1565806209.00
64.000000
-0.00
-0.00
-0.00
-0.00
-0.00
-0.00
-0.00
-0.00
-0.00
-0.00
0.00
0.01
0.01
-0.00
-0.03
-0.05
-0.05
0.00
0.13
0.36
0.66
1.01
1.37
1.72
2.06
2.40
2.79
3.24
3.80
4.43
5.08
5.70
6.28
6.82
7.38
8.04
8.85
9.92
11.16
12.46
13.71
14.86
15.94
17.13
18.63
20.60
23.25
26.39
29.75
33.05
36.12
39.04
42.13
45.85
50.51
56.51
63.49
70.95
78.31
85.24
91.84
98.60
106.27
115.39
126.51
139.15
152.51
165.74
178.29
190.23
202.20
215.56
229.03
244.91
263.79
285.79
309.71
332.68
350.42
358.31
353.04
333.76
302.87
264.19
222.02
179.58
138.43
98.84
60.69
24.19
-9.95
-40.53
-67.06
-89.70
-109.00
-125.51
-139.37
-150.42
-158.28
-162.82
-164.18
-163.26
-161.23
-159.19
-157.95
-157.51
-157.53
-157.55
-157.28
-156.65
-156.00
-155.79
-156.35
-157.74
-159.73
-162.00
-164.32
-166.74
-169.56
-173.30
-178.39
-184.91
-192.52
-200.54
-208.36
-215.71
-223.13
-231.90
-243.50
-258.73
-276.85
-295.36
-310.63
-319.27
-319.20
-310.14
-293.17
-269.73
-241.19
-208.94
-175.08
-142.62
-114.85
-93.96
-79.91
-70.27
-61.58
-51.33
-39.32
-27.52
-18.55
-13.70
-11.94
-10.57
-6.84
0.20
9.17
17.18
21.85
22.78
22.04
22.94
28.02
37.34
48.10
56.13
58.32
54.60
48.19
43.93
45.50
53.18
63.50
71.18
71.98
65.16
53.81
43.08
37.37
37.90
42.31
46.26
45.98
40.42
31.81
24.08
20.57
21.94
25.80
28.01
25.27
17.02
5.99
-3.26
-6.96
-4.22
2.45
8.49
10.01
5.87
-1.81
-8.92
-11.88
-9.64
-4.23
0.67
1.96
-0.87
-5.45
-7.95
-5.47
2.02
11.50
18.37
19.11
13.30
3.97
-4.11
-7.14
-4.45
1.22
5.33
4.40
-1.86
-10.50
-16.95
-17.91
-13.20
-5.88
-0.32
0.34
-3.91
-10.12
-14.27
-13.74
-8.93
-2.98
0.17
-1.82
-8.14
-15.42
-19.45
-17.66
-10.61
-1.60
5.17
6.92
3.84
-1.13
-4.11
-2.51
3.37
10.51
14.91
14.04
8.41
1.47
-2.38
-0.35
7.03
16.00
21.93
21.84
16.34
9.23
5.24
7.31
14.86
24.27
31.00
32.34
28.91
24.11
22.07
25.06
32.12
39.68
43.77
42.34
36.61
30.34
27.62
30.47
37.57
45.17
49.12
47.50
41.45
34.69
31.11
32.52
37.59
42.58
43.67
39.13
30.45
21.56
16.70
17.99
24.25
31.70
36.16
35.52
30.83
25.75
24.20
27.93
35.47
42.81
45.94
43.18
36.15
28.63
24.20
23.87
25.50
25.11
19.55
8.73
-4.11
-14.15
-17.64
-14.18
-6.94
-0.87
0.02
-5.10
-13.58
-20.83
-22.87
-18.50
-9.85
-1.16
3.61
3.00
-1.38
-5.73
-6.49
-2.37
4.91
11.71
14.85
13.60
10.12
8.01
9.92
15.67
22.16
25.17
21.90
12.78
1.45
-7.21
-9.56
-5.12
3.31
11.35
15.30
14.06
9.48
5.11
4.04
7.03
12.15
15.78
14.91
8.90
-0.00
-7.90
-11.50
-9.92
-5.20
-0.98
-0.32
-3.82
-9.28
-13.04
-12.18
-6.52
1.24
6.90
7.26
2.03
-5.84
-11.81
-12.33
-6.95
1.20
7.27
7.36
0.88
-9.05
-17.39
-19.94
-15.77
-7.56
0.09
3.40
1.61
-2.67
-5.18
-2.59
5.40
15.77
23.94
26.39
22.58
15.25
8.65
6.06
7.84
11.37
12.76
9.35
1.44
-7.74
-13.93
-14.45
-9.73
-3.34
0.19
-2.02
-9.54
-18.72
-24.88
-24.99
-19.41
-11.63
-6.07
-5.54
-9.50
-14.53
-16.52
-13.19
-5.58
2.61
7.20
6.20
0.93
-4.61
-6.27
-2.09
6.57
15.73
21.20
20.94
15.99
9.94
6.56
7.73
12.48
17.67
19.94
17.71
11.96
5.55
1.47
1.03
3.12
4.90
3.53
-2.02
-10.16
-17.35
-20.10
-17.07
-10.06
-3.22
-0.88
-4.95
-13.71
-22.52
-26.52
-23.23
-14.15
-3.76
3.06
3.92
0.15
-4.10
-4.54
0.57
9.49
18.05
22.26
20.73
15.41
10.37
9.29
13.17
19.69
24.48
23.72
16.54
5.51
-4.50
-9.18
-7.13
-0.67
5.47
6.82
1.77
-7.56
-16.52
-20.68
-18.28
-11.29
-4.05
-0.81
-3.13
-9.12
-14.71
-16.08
-12.08
-4.71
1.97
4.49
2.01
-3.17
-6.95
-5.93
0.46
9.67
17.37
20.02
16.96
10.65
5.28
4.15
7.67
13.17
16.41
14.31
6.81
-2.84
-10.11
-11.80
-7.95
-1.84
1.99
0.39
-6.51
-15.48
-21.90
-22.54
-17.32
-9.25
-2.73
-0.94
-3.98
-8.82
-11.23
-8.17
0.14
10.31
17.60
18.70
13.79
6.42
1.64
2.96
10.33
20.16
27.36
28.30
22.75
13.90
6.31
3.32
5.11
9.00
11.03
8.51
1.63
-6.74
-12.69
-13.63
-9.93
-4.71
-2.12
-4.90
-12.60
-21.62
-27.31
-26.53
-19.64
-10.35
-3.61
-2.58
-6.69
-12.12
-14.17
-10.38
-2.27
5.55
8.15
3.42
-6.47
-16.22
-20.42
-16.55
-6.46
4.94
12.39
13.14
8.29
1.83
-1.71
0.11
6.41
13.69
18.04
17.38
12.70
7.33
4.77
6.52
11.05
14.76
14.14
8.12
-1.17
-9.46
-12.88
-10.21
-3.68
2.38
4.10
0.38
-6.48
-12.24
-13.16
-8.32
-0.05
7.35
10.17
7.37
1.17
-4.30
-5.33
-0.75
7.49
15.48
19.58
18.41
13.52
8.23
5.61
6.63
9.59
11.17
8.55
1.26
-8.43
-16.60
-20.00
-17.98
-12.93
-8.90
-9.26
-14.50
-21.86
-26.87
-25.82
-18.21
-6.94
3.10
7.92
6.61
1.83
-1.95
-1.19
4.55
12.33
17.64
17.05
10.30
0.56
-7.42
-9.94
-6.48
0.20
5.64
6.35
1.85
-5.05
-10.03
-9.80
-4.14
3.85
9.71
10.25
5.55
-1.09
-5.06
-3.33
3.68
12.34
17.81
16.88
9.86
0.29
-7.19
-9.51
-6.85
-2.37
-0.06
-2.28
-8.24
-14.48
-16.95
-13.46
-5.12
4.33
10.64
11.39
7.46
2.39
0.23
3.21
10.25
17.59
20.78
17.27
7.94
-3.24
-11.28
-12.85
-8.10
-0.57
4.88
4.93
-0.34
-7.35
-11.33
-9.05
-0.89
9.43
16.97
18.47
14.05
6.97
1.44
0.05
2.21
4.69
3.80
-2.19
-11.76
-20.74
-24.69
-21.37
-12.17
-1.26
6.68
8.99
6.42
2.33
0.34
2.08
6.13
9.04
7.68
1.38
-7.46
-14.53
-16.30
-12.04
-4.45
1.91
3.28
-1.07
-8.26
-13.47
-12.71
-5.25
5.83
15.35
19.08
16.06
9.18
3.39
2.65
7.56
15.04
20.15
19.06
11.28
-0.12
-10.20
-15.01
-13.62
-8.44
-3.63
-2.69
-6.52
-13.03
-18.33
-19.07
-14.31
-6.04
1.90
6.06
5.31
1.48
-1.85
-1.54
3.05
9.56
14.04
13.35
7.14
-1.67
-8.70
-10.58
-6.95
-0.73
3.68
2.92
-3.25
-11.84
-18.14
-18.44
-12.06
-1.82
7.43
11.44
9.00
2.39
-3.73
-5.16
-0.46
8.31
16.83
21.11
19.84
14.99
10.30
8.87
11.06
14.22
14.46
9.23
-0.80
-11.86
-19.18
-19.70
-13.97
-5.82
-0.30
-0.58
-6.18
-13.28
-16.90
-13.99
-5.29
5.10
11.97
12.08
6.04
-2.20
-7.68
-7.45
-2.31
3.89
6.59
3.39
-4.39
-12.49
-16.27
-13.35
-5.02
4.49
10.51
10.46
5.38
-0.87
-3.80
-0.89
6.88
15.75
21.12
20.25
13.71
5.00
-1.51
-3.03
0.06
4.70
6.95
4.50
-1.91
-8.87
-12.31
-9.92
-2.57
6.03
11.53
11.34
6.20
-0.42
-4.50
-3.91
0.20
4.21
4.39
-0.66
-8.90
-16.13
-18.40
-14.61
-7.20
-0.72
0.90
-3.27
-10.58
-16.24
-16.22
-9.42
1.45
11.52
16.23
13.88
6.34
-2.05
-6.98
-6.55
-2.10
2.58
3.89
0.62
-5.21
-9.51
-8.63
-1.81
8.13
16.35
18.60
13.73
4.34
-4.80
-9.48
-8.40
-3.79
0.14
-0.16
-5.32
-12.68
-17.77
-17.01
-9.70
1.28
11.24
16.07
14.60
9.02
3.49
1.64
4.17
8.67
10.98
7.93
-0.50
-10.95
-18.49
-19.24
-12.68
-1.94
8.08
13.37
12.94
9.21
6.29
7.39
13.02
20.46
25.49
24.70
17.56
6.76
-3.27
-8.64
-8.12
-3.60
1.03
2.22
-1.21
-7.50
-13.07
-14.69
-11.61
-5.92
-1.31
-0.74
-4.40
-9.52
-12.13
-9.41
-1.70
7.44
13.24
12.45
5.31
-4.53
-12.09
-13.92
-9.95
-3.40
1.34
1.35
-3.08
-8.66
-11.21
-8.17
-0.24
8.99
14.98
14.76
8.63
-0.12
-7.11
-9.34
-6.90
-2.73
-0.73
-3.14
-8.95
-14.29
-14.78
-8.26
3.50
15.53
22.21
20.40
11.28
-0.34
-8.79
-10.64
-6.66
-1.02
1.40
-1.98
-9.85
-17.72
-20.72
-16.38
-6.19
5.32
13.04
14.10
9.33
2.52
-1.79
-0.89
4.71
11.91
16.84
17.16
13.31
8.06
4.61
4.72
7.51
10.09
9.26
3.68
-5.23
-13.89
-18.58
-17.55
-12.19
-6.17
-3.30
-5.20
-10.24
-14.51
-14.19
-7.92
2.17
11.64
16.25
14.44
8.13
1.59
-1.14
1.40
7.41
13.02
14.68
11.33
4.83
-1.12
-3.37
-1.21
3.11
5.82
3.74
-3.57
-13.39
-21.25
-23.35
-18.66
-9.52
-0.31
5.08
5.31
2.17
-0.68
-0.21
4.15
10.09
13.77
12.31
5.70
-3.16
-9.86
-11.24
-7.15
-0.60
3.92
3.06
-3.34
-12.11
-18.53
-19.01
-13.03
-3.56
4.66
7.86
5.17
-0.80
-5.66
-5.75
-0.22
8.39
15.70
18.09
14.77
8.22
2.77
1.80
5.90
12.43
17.28
17.31
12.37
5.26
0.05
-0.46
3.61
9.37
12.85
11.39
5.18
-2.85
-8.78
-10.05
-6.81
-1.95
0.65
-1.51
-8.13
-16.12
-21.33
-20.95
-15.13
-6.93
-0.59
0.99
-2.08
-6.87
-9.31
-6.89
-0.00
8.05
13.21
13.03
8.22
2.15
-1.11
0.63
6.24
12.00
13.81
9.65
0.92
-8.31
-13.68
-12.96
-7.20
-0.07
4.29
3.59
-1.45
-7.75
-11.75
-11.49
-7.72
-3.27
-1.43
-3.86
-9.37
-14.70
-16.12
-11.76
-2.64
7.57
14.71
16.35
13.11
8.17
5.23
6.31
10.63
15.24
16.87
14.00
7.69
0.93
-3.17
-3.18
-0.21
2.73
2.60
-1.88
-9.30
-16.31
-19.45
-17.34
-11.53
-5.74
-3.78
-7.19
-14.12
-20.37
-21.77
-16.68
-7.00
2.83
8.52
8.33
3.93
-0.68
-1.75
1.98
8.64
14.49
16.30
13.37
8.07
4.25
4.93
10.33
17.65
22.57
21.76
14.91
4.90
-3.68
-7.09
-4.52
1.65
7.15
8.25
3.78
-4.36
-12.43
-16.89
-16.35
-12.13
-7.45
-5.40
-7.19
-11.42
-14.85
-14.40
-9.05
-0.49
7.65
11.98
11.37
7.63
4.39
4.81
9.55
16.17
20.56
19.55
12.94
3.86
-3.04
-4.34
-0.02
6.45
10.12
7.45
-1.58
-13.30
-22.34
-24.72
-19.96
-11.39
-4.18
-2.28
-6.14
-12.66
-16.92
-15.29
-7.65
2.61
10.47
12.28
8.00
1.05
-3.80
-3.25
2.65
10.49
15.76
15.57
10.25
3.16
-1.46
-0.92
4.31
10.87
14.55
12.76
5.94
-2.72
-9.12
-10.77
-7.99
-3.72
-1.64
-3.83
-9.49
-15.44
-18.01
-15.39
-8.70
-1.41
2.71
1.78
-2.95
-7.80
-8.93
-4.55
3.93
12.55
17.03
15.34
8.75
1.45
-2.00
0.99
9.46
19.38
25.98
26.26
20.44
11.76
4.34
0.88
1.31
3.07
2.95
-0.73
-7.12
-13.14
-15.45
-12.38
-5.14
2.93
8.16
8.55
4.96
0.42
-1.81
-0.25
3.81
7.08
6.30
0.41
-8.62
-16.61
-19.64
-16.32
-8.80
-1.89
-0.19
-5.48
-15.65
-25.62
-30.11
-26.53
-16.34
-4.07
5.20
8.65
7.07
4.12
3.90
8.52
16.80
25.05
29.35
27.79
21.62
14.40
9.87
9.77
12.84
15.62
14.60
8.53
-0.77
-9.33
-13.39
-11.64
-6.06
-0.94
-0.33
-5.65
-14.89
-23.68
-27.79
-25.56
-18.84
-11.82
-8.56
-10.63
-16.25
-21.44
-22.52
-18.27
-10.61
-3.52
-0.49
-2.52
-7.41
-11.07
-9.92
-3.03
7.20
16.36
20.44
18.17
11.69
5.41
3.44
7.36
15.37
23.42
27.57
26.36
21.46
16.50
14.61
16.42
19.45
19.61
13.85
2.20
-11.76
-22.69
-26.37
-22.14
-13.42
-5.89
-4.19
-9.47
-18.64
-26.26
-27.72
-21.90
-11.70
-2.16
2.54
1.49
-2.64
-5.35
-3.22
4.01
13.48
20.89
23.08
19.80
13.72
8.70
7.50
10.19
14.16
15.61
11.92
3.34
-7.01
-14.62
-16.11
-11.12
-2.56
4.88
7.44
4.33
-1.90
-6.89
-7.12
-2.01
5.65
11.52
12.28
7.74
0.92
-3.79
-3.29
2.26
9.52
13.94
12.49
5.38
-4.03
-11.22
-13.12
-9.87
-4.55
-1.21
-2.38
-7.42
-12.98
-15.08
-11.62
-3.92
3.91
7.20
3.49
-5.91
-16.49
-23.02
-22.37
-15.22
-5.73
0.92
1.57
-3.32
-9.98
-13.79
-12.01
-5.44
2.13
6.21
4.38
-2.25
-9.69
-13.47
-11.19
-3.99
4.13
8.68
7.31
1.06
-6.11
-9.68
-7.08
0.79
10.12
16.26
16.47
11.44
4.79
0.91
2.33
8.26
15.07
18.46
16.12
9.08
1.21
-3.15
-1.72
4.40
11.38
14.96
12.96
6.52
-0.55
-4.06
-1.80
5.11
12.72
16.43
13.64
5.29
-4.63
-11.17
-11.18
-5.16
3.16
8.87
8.74
3.15
-4.28
-8.86
-7.78
-1.83
5.05
8.32
5.61
-1.66
-9.11
-12.03
-8.30
0.37
9.31
13.79
11.79
5.07
-1.85
-4.52
-1.23
5.95
12.44
13.95
8.96
-0.15
-8.58
-11.67
-7.59
1.67
11.48
17.20
16.65
11.12
4.42
0.44
0.95
4.60
7.84
7.20
1.43
-7.73
-16.44
-21.06
-20.31
-16.01
-12.10
-12.24
-17.39
-25.26
-31.47
-32.09
-26.09
-15.99
-6.52
-1.89
-3.37
-8.54
-12.86
-12.26
-5.58
4.80
14.42
19.34
18.30
13.35
8.53
7.32
10.71
16.63
21.24
21.35
16.36
8.65
2.21
0.24
3.16
8.40
11.80
10.05
2.78
-7.18
-15.28
-17.79
-13.94
-6.41
0.33
2.37
-1.33
-8.43
-14.69
-16.42
-12.68
-5.83
-0.05
1.21
-2.66
-9.03
-13.42
-12.32
-5.13
5.23
14.04
17.42
14.57
8.11
2.56
1.69
6.31
13.92
20.31
22.03
18.42
11.77
5.84
3.45
4.91
7.81
8.64
4.84
-3.48
-13.60
-21.62
-24.62
-22.30
-17.11
-12.88
-12.43
-15.97
-20.80
-22.87
-19.37
-10.47
0.42
8.51
10.40
6.11
-0.84
-5.44
-4.10
3.23
13.09
20.52
21.84
16.76
8.34
1.15
-1.50
0.63
4.75
6.80
4.00
-3.33
-12.02
-17.91
-18.28
-13.48
-6.61
-1.74
-1.38
-5.08
-9.66
-11.27
-7.62
0.49
9.48
14.96
14.22
7.71
-1.03
-7.23
-7.56
-1.86
6.80
13.82
15.68
11.93
5.33
0.15
-0.37
3.92
10.10
13.88
12.23
5.28
-3.61
-9.81
-10.15
-4.76
2.95
8.35
8.36
3.29
-3.34
-6.98
-4.91
2.18
10.47
15.32
14.14
7.94
0.66
-3.14
-1.06
5.68
13.00
16.45
13.90
6.91
-0.22
-2.93
0.89
9.48
18.18
22.15
19.06
10.42
0.75
-5.08
-4.63
0.93
7.61
10.96
8.79
2.28
-4.97
-9.13
-8.47
-4.29
-0.06
0.78
-3.12
-10.20
-16.81
-19.45
-16.74
-10.32
-4.07
-1.91
-5.53
-13.36
-21.38
-25.35
-23.25
-16.37
-8.66
-4.35
-5.42
-10.57
-15.94
-17.61
-14.04
-7.11
-0.98
0.36
-4.39
-12.89
-20.46
-22.58
-17.55
-7.42
3.07
9.21
8.95
3.92
-1.41
-2.53
2.59
12.33
22.28
27.88
26.98
20.98
13.97
10.24
11.85
17.47
23.36
25.61
22.70
16.22
9.94
7.29
9.29
13.77
16.61
14.31
6.06
-5.40
-15.32
-19.47
-16.52
-8.82
-1.01
2.58
0.26
-6.22
-12.72
-15.32
-12.53
-6.12
-0.14
1.50
-2.66
-10.86
-19.00
-23.00
-21.13
-14.91
-8.15
-4.70
-6.19
-11.16
-15.87
-16.75
-12.49
-4.95
1.91
4.48
1.60
-4.56
-9.76
-10.10
-4.30
5.52
14.98
19.96
18.89
13.59
8.24
6.74
10.56
17.65
23.73
24.72
19.18
9.25
-0.59
-5.97
-5.21
-0.15
4.88
5.77
1.10
-7.03
-14.05
-15.80
-10.92
-1.85
6.67
10.38
8.10
2.43
-2.00
-1.40
4.57
12.55
17.44
15.50
6.78
-4.90
-14.05
-16.86
-13.22
-6.70
-2.28
-3.36
-9.82
-18.19
-23.79
-23.38
-17.06
-8.11
-1.11
0.79
-2.35
-7.33
-9.62
-6.10
3.12
14.64
23.72
26.91
23.96
17.88
13.00
12.43
16.16
21.09
22.94
18.83
9.17
-2.51
-11.50
-14.56
-11.79
-6.47
-3.20
-5.15
-12.28
-21.12
-26.86
-25.97
-18.34
-7.31
2.16
6.31
4.69
0.18
-2.77
-0.92
5.87
14.51
20.49
20.45
14.15
4.60
-3.73
-7.34
-5.57
-0.83
2.95
2.73
-1.88
-8.42
-13.01
-12.79
-7.74
-0.95
3.12
1.32
-6.16
-15.70
-22.15
-21.83
-14.69
-4.37
4.00
6.72
3.74
-1.51
-4.32
-1.66
5.87
14.40
18.98
16.60
7.92
-2.92
-10.69
-11.85
-6.47
1.89
8.29
9.24
4.61
-2.33
-6.96
-6.02
0.47
9.30
15.97
17.39
13.71
8.08
4.55
5.64
10.64
16.07
17.81
13.67
4.79
-4.87
-10.85
-10.70
-5.45
1.02
4.24
1.72
-5.62
-14.06
-19.31
-18.93
-13.71
-7.22
-3.58
-4.95
-10.23
-15.52
-16.47
-10.78
0.17
11.98
19.72
20.66
15.92
9.71
6.73
9.22
15.60
21.38
22.08
16.05
5.45
-4.94
-10.63
-10.09
-5.59
-1.74
-2.68
-9.69
-20.37
-29.99
-34.11
-30.96
-22.19
-11.92
-4.40
-1.71
-2.86
-4.55
-3.37
2.07
10.15
17.03
18.75
13.66
3.60
-6.93
-12.94
-11.61
-3.78
6.54
14.42
16.78
13.87
9.01
6.36
8.32
14.07
20.02
22.17
18.51
10.26
1.25
-4.46
-4.86
-1.10
3.24
4.32
0.36
-7.39
-15.35
-19.68
-18.56
-13.27
-7.47
-5.05
-7.74
-14.02
-19.97
-21.42
-16.56
-6.96
3.16
9.42
9.75
5.51
0.60
-0.89
2.84
10.46
18.21
22.26
20.86
15.23
8.82
5.11
5.66
9.15
12.36
12.08
7.28
-0.21
-6.70
-8.88
-5.98
-0.46
3.27
1.40
-6.83
-18.37
-27.94
-30.81
-25.54
-14.72
-3.59
2.94
2.84
-2.06
-7.41
-8.90
-4.82
3.10
10.92
14.87
13.62
8.99
4.82
4.51
8.98
15.99
21.52
22.10
16.94
8.43
0.78
-2.38
-0.04
5.71
10.89
12.07
8.29
1.55
-4.54
-6.86
-4.71
-0.15
3.18
2.41
-2.89
-10.28
-15.78
-16.15
-10.88
-2.60
4.22
5.88
1.45
-6.69
-14.10
-16.89
-13.97
-7.50
-1.54
0.45
-2.30
-7.36
-10.68
-9.27
-3.11
4.59
9.07
6.94
-1.74
-13.17
-21.84
-23.38
-17.07
-6.12
3.97
8.48
5.93
-1.21
-8.06
-10.12
-5.83
2.69
11.01
15.06
13.50
8.34
3.62
2.88
7.03
13.72
18.97
19.63
15.34
8.86
4.40
5.02
10.69
18.23
23.09
22.05
15.10
5.47
-2.19
-4.49
-1.30
4.16
7.25
4.60
-3.83
-14.66
-22.99
-25.24
-21.16
-14.09
-8.80
-8.79
-14.15
-21.57
-26.31
-25.20
-18.43
-9.51
-3.20
-2.61
-7.41
-14.02
-17.80
-15.73
-8.33
0.80
6.92
6.94
1.29
-6.32
-10.93
-9.16
-1.18
9.38
17.58
19.95
16.52
10.71
7.22
9.14
16.17
24.66
29.85
28.79
21.94
12.97
6.57
5.60
9.46
14.54
16.50
12.74
4.11
-5.70
-12.24
-12.84
-8.16
-1.69
2.34
1.42
-3.73
-9.78
-12.75
-10.46
-3.83
3.52
7.47
5.72
-0.77
-8.25
-12.35
-10.61
-4.00
3.56
7.28
4.46
-4.00
-13.94
-20.21
-19.55
-12.40
-2.61
4.90
6.78
3.32
-2.12
-5.19
-3.24
3.09
10.37
14.54
13.44
8.07
2.07
-0.62
1.78
7.77
13.30
14.17
8.56
-1.70
-12.09
-17.83
-16.64
-10.01
-2.47
0.98
-2.20
-10.72
-20.03
-25.03
-22.82
-14.31
-3.54
4.70
7.56
5.72
2.55
2.04
6.12
13.45
20.25
22.55
18.79
10.80
2.83
-0.89
1.29
7.39
12.94
13.54
7.42
-3.27
-13.77
-19.12
-17.02
-8.91
0.85
7.49
8.44
4.59
-0.34
-2.25
0.95
7.91
14.54
16.25
10.71
-0.60
-13.04
-21.23
-22.01
-16.11
-7.63
-1.55
-0.71
-4.27
-8.43
-9.00
-4.27
3.76
10.54
11.64
5.55
-5.18
-15.46
-20.37
-17.99
-10.29
-2.05
2.07
0.06
-6.34
-12.72
-14.64
-10.15
-0.99
8.55
14.07
13.59
8.66
3.35
1.77
5.49
12.64
18.84
19.78
13.81
2.95
-8.17
-14.79
-14.57
-8.78
-1.34
3.49
3.55
-0.08
-3.96
-4.55
-0.50
6.51
12.55
13.86
9.04
0.04
-8.85
-13.30
-11.32
-4.32
3.78
8.78
8.51
3.98
-1.42
-3.97
-1.95
3.51
9.08
11.33
8.88
3.34
-1.69
-2.67
1.56
9.01
15.48
17.03
12.32
3.52
-4.82
-8.44
-5.85
0.72
6.55
7.27
1.42
-8.50
-17.53
-20.97
-17.13
-8.26
0.85
5.66
4.42
-0.98
-6.18
-7.09
-2.26
6.26
14.18
17.52
14.96
8.68
2.90
1.33
4.84
10.84
14.74
12.77
4.34
-7.30
-16.77
-19.58
-14.76
-5.47
2.68
4.94
-0.01
-9.30
-17.50
-19.88
-14.88
-4.97
4.95
10.18
8.82
2.43
-5.00
-9.64
-9.86
-7.03
-4.49
-5.31
-10.23
-16.93
-21.24
-19.57
-11.10
1.32
12.69
18.39
16.90
10.68
4.75
3.83
9.60
19.65
28.76
31.91
27.05
16.06
3.72
-5.10
-7.89
-5.74
-2.28
-1.46
-5.04
-11.73
-18.01
-20.35
-17.47
-11.04
-4.78
-2.14
-4.23
-9.04
-12.67
-11.59
-4.82
5.33
14.61
19.08
17.55
12.06
6.71
5.00
7.86
12.94
16.08
13.83
5.54
-5.90
-15.61
-19.36
-15.91
-7.73
0.28
3.60
0.69
-6.26
-12.58
-13.89
-8.66
0.98
10.51
15.70
15.01
10.31
5.45
3.82
5.99
9.55
10.68
6.73
-1.79
-11.47
-17.75
-17.85
-12.33
-5.02
-0.86
-2.99
-10.91
-20.52
-26.45
-24.88
-15.78
-2.80
8.73
14.62
13.96
9.31
4.96
4.24
7.69
12.67
15.08
11.85
3.00
-8.12
-16.51
-18.11
-12.14
-1.40
9.10
14.88
14.43
9.85
5.58
5.55
10.77
18.65
24.35
23.73
15.94
4.09
-6.56
-11.42
-9.28
-2.89
2.75
3.40
-1.94
-10.43
-17.10
-17.89
-11.88
-1.88
7.24
11.55
10.11
5.41
1.63
1.92
6.33
11.84
14.16
10.51
1.52
-8.99
-16.17
-16.98
-11.91
-4.75
-0.29
-1.58
-8.16
-16.27
-21.01
-19.17
-10.94
0.02
8.68
11.19
7.03
-0.95
-8.07
-10.65
-7.96
-2.50
1.59
1.34
-3.20
-8.73
-10.77
-6.52
3.16
13.83
19.85
17.63
7.90
-4.52
-13.28
-13.98
-6.52
4.94
14.60
18.29
15.70
10.18
6.50
7.69
13.20
19.11
20.71
15.35
4.27
-7.97
-15.95
-16.37
-9.94
-0.96
5.09
4.68
-1.86
-10.51
-16.06
-15.15
-8.42
-0.16
4.24
1.55
-7.13
-16.98
-22.20
-19.47
-9.96
1.24
8.30
7.93
1.31
-6.86
-11.14
-8.71
-0.88
7.75
12.09
9.54
1.40
-7.93
-13.54
-12.78
-6.81
0.18
3.38
0.25
-7.83
-16.30
-19.90
-15.65
-4.74
8.04
17.03
18.76
13.97
6.98
3.09
5.40
13.09
21.79
26.27
23.46
14.27
2.99
-5.11
-6.83
-2.69
3.46
6.86
4.75
-2.02
-9.42
-12.70
-9.20
-0.06
10.34
16.79
16.26
9.58
0.82
-5.15
-5.48
-0.90
4.67
6.78
2.97
-5.54
-14.58
-19.44
-17.71
-10.56
-2.05
3.30
3.18
-1.20
-6.00
-7.21
-3.18
4.30
10.92
12.37
7.01
-3.06
-13.03
-17.90
-15.38
-6.99
2.75
8.89
8.92
4.10
-1.48
-3.41
0.16
7.48
14.06
15.50
10.12
0.11
-9.56
-13.95
-10.92
-2.29
7.38
13.31
13.22
8.38
2.68
0.04
2.08
7.10
11.12
10.34
3.56
-7.01
-16.87
-21.61
-19.42
-12.01
-3.57
1.59
1.38
-2.94
-7.65
-8.74
-4.30
4.30
13.19
18.08
16.72
10.14
2.05
-3.34
-3.71
-0.06
4.05
4.58
-0.42
-9.49
-18.47
-22.80
-20.16
-11.80
-1.95
4.58
5.28
1.05
-4.20
-6.18
-2.66
5.03
12.85
16.34
13.23
4.75
-4.96
-11.28
-11.53
-6.42
0.51
5.11
4.99
0.88
-4.01
-6.00
-3.13
3.56
10.85
15.13
14.62
10.34
5.49
3.43
5.68
10.96
15.76
16.33
11.01
1.08
-9.55
-16.57
-17.55
-13.21
-7.07
-3.22
-3.78
-7.70
-11.40
-11.13
-5.46
3.64
11.85
15.08
11.90
4.38
-3.24
-7.08
-5.90
-1.82
1.16
-0.32
-6.85
-15.70
-22.32
-22.92
-16.58
-5.85
4.57
10.38
10.00
5.28
0.24
-1.34
1.68
7.25
11.19
9.92
2.66
-7.82
-16.57
-19.09
-13.85
-3.19
7.91
14.35
13.80
7.67
0.31
-3.62
-1.74
4.74
11.76
14.85
11.67
3.43
-5.88
-11.70
-11.43
-5.76
1.96
7.77
9.40
7.37
4.34
3.27
5.46
9.62
12.67
11.59
5.39
-4.13
-12.98
-17.13
-14.67
-6.84
2.52
9.05
10.23
6.76
1.99
-0.16
2.44
8.56
14.38
15.59
10.05
-0.75
-12.41
-19.88
-20.29
-14.25
-5.41
1.77
4.55
3.26
0.78
0.41
3.83
9.84
15.14
16.37
12.20
4.28
-3.62
-7.74
-6.48
-1.43
3.56
4.59
0.09
-8.09
-15.69
-18.54
-14.90
-6.73
1.67
6.08
4.91
0.08
-4.36
-4.73
-0.32
6.22
10.28
8.21
-0.31
-11.88
-20.94
-22.81
-16.15
-3.66
9.33
17.70
19.00
14.41
7.73
2.87
1.64
2.87
3.51
0.87
-5.39
-12.76
-17.23
-15.63
-7.60
4.03
14.56
19.95
18.81
13.01
6.47
2.88
3.57
6.88
9.32
7.80
1.70
-6.67
-13.23
-14.59
-10.13
-2.50
3.77
4.97
0.47
-6.95
-12.56
-12.67
-6.86
1.70
7.95
8.04
1.56
-8.20
-16.07
-18.06
-13.65
-5.91
0.33
1.45
-2.80
-9.19
-13.00
-10.80
-2.62
8.09
16.30
18.29
13.76
5.88
-0.49
-1.65
2.90
10.26
15.87
16.19
10.79
2.43
-4.54
-6.71
-3.66
1.93
5.77
4.60
-1.82
-10.52
-17.00
-17.86
-12.94
-5.56
-0.53
-1.43
-8.31
-17.50
-23.64
-22.65
-14.14
-1.57
9.61
15.01
13.60
8.02
2.85
1.78
5.61
11.78
15.85
14.22
6.36
-4.77
-14.06
-17.08
-12.51
-2.81
7.02
12.43
11.76
7.00
2.36
1.55
5.36
11.11
14.30
11.50
2.55
-9.13
-18.26
-20.72
-15.62
-5.77
4.18
10.25
11.08
8.47
5.82
5.85
8.91
12.69
13.56
8.90
-1.03
-12.93
-21.74
-23.45
-17.09
-5.52
5.97
12.42
11.73
5.72
-1.06
-3.85
-0.51
7.44
15.68
19.81
17.92
11.54
4.60
0.84
1.60
4.86
6.76
4.13
-3.31
-12.46
-18.63
-18.27
-11.25
-1.11
6.88
8.70
3.88
-4.25
-10.52
-11.03
-5.24
3.56
10.19
10.64
4.27
-5.71
-14.15
-16.83
-12.76
-4.60
3.00
6.15
3.97
-1.08
-4.82
-4.13
1.17
8.00
11.89
9.73
1.73
-8.47
-15.90
-16.98
-11.72
-3.56
2.59
3.30
-1.37
-7.97
-11.70
-9.33
-1.19
8.93
15.88
16.20
10.07
1.22
-5.27
-5.90
-0.88
6.12
10.05
7.57
-0.97
-11.64
-19.07
-19.51
-12.89
-2.72
5.88
9.12
6.60
1.23
-2.59
-1.73
3.77
10.75
14.69
12.46
4.24
-6.35
-14.18
-15.36
-9.30
0.92
10.30
14.74
13.15
7.87
3.01
1.77
4.44
8.25
9.15
4.51
-5.06
-15.79
-22.78
-22.72
-15.70
-5.04
4.61
9.68
9.53
6.44
4.01
4.93
9.23
14.39
16.68
13.51
5.10
-5.41
-13.50
-15.72
-11.52
-3.66
3.42
6.18
3.87
-1.15
-5.03
-4.94
-0.73
4.93
8.21
6.47
-0.12
-8.58
-14.76
-15.66
-11.03
-3.50
3.11
5.98
4.85
2.07
0.99
3.71
9.48
14.93
15.95
10.36
-0.53
-12.19
-19.21
-18.27
-9.91
1.70
11.19
14.78
12.22
6.48
1.82
1.13
4.30
8.44
9.81
6.15
-1.82
-10.66
-16.07
-15.40
-9.00
-0.05
7.22
9.95
8.09
4.25
1.90
3.14
7.26
11.06
10.73
4.25
-7.08
-18.98
-26.35
-25.82
-17.68
-5.76
4.62
9.44
8.07
3.43
-0.05
1.01
6.84
14.48
19.69
19.58
14.43
7.40
2.63
2.52
6.26
10.34
10.67
5.15
-4.86
-15.21
-21.32
-20.68
-14.48
-6.87
-2.69
-4.76
-12.21
-21.04
-26.32
-25.06
-17.71
-7.90
-0.17
2.65
0.89
-2.27
-3.07
0.60
7.79
15.27
19.37
18.35
13.38
7.76
4.93
6.37
10.62
14.19
13.57
7.34
-2.81
-12.86
-18.69
-18.29
-12.96
-6.62
-3.58
-5.85
-11.94
-17.66
-18.49
-12.40
-1.02
11.12
19.08
20.31
15.85
9.65
6.10
7.60
13.27
19.60
22.62
20.27
13.55
5.80
0.84
0.64
4.17
8.01
8.41
3.52
-5.39
-14.53
-19.83
-19.32
-14.44
-9.12
-7.56
-11.44
-18.88
-25.42
-26.48
-20.16
-8.30
4.42
12.98
14.63
10.33
3.87
-0.44
-0.28
3.42
7.12
7.04
1.64
-7.25
-15.22
-17.74
-12.91
-2.61
8.30
14.70
14.00
7.53
-0.29
-4.50
-2.26
5.51
14.89
21.09
21.11
15.21
6.67
-0.22
-2.49
-0.18
4.00
6.38
4.60
-0.70
-6.43
-8.72
-5.49
2.27
10.80
15.91
15.41
10.30
4.19
0.93
2.31
6.82
10.65
10.01
3.43
-7.11
-17.35
-22.94
-21.91
-15.59
-7.86
-2.77
-2.39
-5.79
-9.68
-10.65
-7.18
-0.66
5.38
7.40
3.93
-3.40
-10.75
-14.20
-12.15
-6.06
0.20
2.87
0.57
-4.86
-9.30
-8.90
-2.44
7.66
16.78
20.50
17.25
9.19
0.93
-3.11
-1.29
4.41
9.47
9.65
3.45
-6.93
-16.61
-20.91
-17.87
-9.41
-0.27
4.69
3.22
-3.14
-9.92
-12.46
-8.62
0.08
9.32
14.80
14.69
10.62
6.54
6.01
9.95
15.85
19.42
17.21
8.90
-2.29
-11.40
-14.60
-11.37
-4.87
-0.01
-0.62
-7.11
-16.25
-22.96
-23.22
-16.34
-5.38
4.60
9.33
7.77
2.47
-2.05
-2.06
3.25
11.25
17.50
18.38
13.24
4.66
-2.78
-5.38
-2.24
4.16
9.40
9.67
4.00
-5.24
-13.58
-16.96
-13.99
-6.65
1.07
5.38
4.92
1.42
-1.57
-1.03
3.57
9.81
13.68
12.07
4.68
-5.58
-14.12
-17.25
-14.14
-7.23
-0.71
1.91
-0.16
-4.73
-7.95
-6.76
-0.71
7.65
14.22
15.61
11.05
2.87
-5.02
-9.16
-8.54
-5.14
-2.60
-3.99
-9.91
-17.86
-23.59
-23.51
-16.88
-6.33
3.42
8.28
6.96
1.68
-3.13
-3.45
1.90
10.80
19.01
22.80
21.18
16.32
12.25
12.28
16.84
23.17
26.83
24.38
15.53
3.48
-6.77
-11.15
-8.91
-3.09
1.38
0.45
-6.59
-16.70
-24.84
-26.87
-21.96
-13.02
-4.93
-1.58
-3.76
-8.68
-11.82
-9.63
-1.71
8.94
17.54
20.33
16.75
9.59
3.44
1.91
5.49
11.33
14.87
12.61
4.37
-6.59
-15.38
-18.17
-14.55
-7.76
-2.70
-3.04
-8.94
-16.98
-22.05
-20.38
-11.77
0.28
10.46
14.59
11.88
5.19
-0.78
-2.22
1.60
8.13
13.01
12.73
6.72
-2.33
-9.98
-12.59
-9.40
-3.04
2.14
2.69
-1.82
-8.42
-12.49
-10.54
-2.34
8.88
18.19
21.74
18.99
12.73
7.44
6.45
10.00
15.06
17.13
12.92
2.51
-10.47
-20.56
-23.43
-18.20
-7.88
2.29
7.84
7.45
3.45
0.05
0.50
5.01
10.55
12.80
8.97
-0.27
-11.05
-18.27
-18.57
-12.26
-2.88
4.68
7.02
4.10
-0.96
-3.84
-1.66
5.05
12.68
16.50
13.45
4.23
-7.07
-15.03
-16.01
-10.16
-1.25
5.49
6.54
1.97
-4.62
-8.34
-6.14
1.43
10.46
15.87
14.29
6.07
-5.12
-14.24
-17.68
-15.24
-9.87
-5.89
-6.24
-10.73
-16.05
-17.89
-13.42
-3.29
8.53
16.81
18.00
12.13
2.78
-4.99
-7.61
-4.91
-0.11
2.28
-0.67
-8.40
-17.03
-21.44
-18.32
-8.07
5.27
16.15
20.40
17.54
10.78
4.98
3.84
7.74
13.63
16.96
14.48
6.32
-4.00
-11.57
-12.91
-7.95
-0.03
6.16
7.33
3.59
-1.76
-4.19
-0.75
8.09
18.57
25.60
25.61
18.49
7.65
-1.99
-6.68
-5.88
-2.35
-0.24
-2.57
-9.21
-17.03
-21.85
-20.98
-14.95
-7.16
-1.75
-1.12
-4.44
-8.27
-8.71
-3.90
4.74
13.25
17.27
14.48
5.96
-4.48
-12.30
-14.73
-12.12
-7.49
-4.74
-6.14
-11.00
-15.98
-17.20
-12.59
-3.29
6.79
13.13
13.26
8.27
2.05
-0.77
2.32
10.21
18.76
23.15
20.72
12.45
2.53
-4.13
-4.64
0.27
6.83
10.58
8.91
2.68
-4.64
-8.88
-7.81
-2.28
4.38
8.35
7.63
3.03
-2.32
-5.03
-3.35
1.77
7.21
9.39
6.40
-0.84
-9.03
-14.22
-14.08
-9.15
-2.51
2.04
2.21
-1.56
-6.42
-8.94
-7.18
-1.90
3.86
6.70
4.79
-0.95
-7.40
-11.17
-10.60
-6.71
-2.66
-1.72
-5.24
-11.65
-17.22
-18.09
-12.55
-2.15
8.89
15.92
16.33
10.88
3.24
-2.23
-2.90
0.60
4.98
6.47
3.25
-3.36
-9.65
-11.82
-8.42
-1.18
5.84
8.89
6.75
1.44
-3.05
-3.19
1.90
9.88
16.53
18.04
13.18
4.02
-5.22
-10.31
-9.31
-3.33
3.95
8.55
8.36
4.28
-0.34
-1.74
1.95
9.50
17.17
20.89
18.66
11.70
3.86
-0.81
-0.43
3.64
7.52
7.20
0.98
-9.51
-20.17
-26.69
-26.94
-21.92
-15.07
-10.07
-8.73
-10.15
-11.33
-9.37
-3.33
5.03
12.16
14.79
11.88
5.27
-1.25
-4.16
-2.16
3.09
7.99
9.09
5.17
-2.08
-8.98
-12.02
-9.89
-4.15
1.54
3.74
1.24
-4.27
-9.09
-9.77
-5.08
3.24
11.51
16.26
16.28
13.03
9.81
9.42
12.49
17.03
19.58
17.52
10.71
1.77
-5.27
-7.41
-4.37
0.98
4.32
2.31
-5.40
-15.72
-23.85
-25.86
-20.91
-11.60
-2.67
1.77
0.38
-4.93
-10.18
-11.86
-8.79
-2.62
3.36
6.43
6.13
4.41
4.39
8.14
15.19
22.49
26.01
23.00
13.76
1.61
-8.74
-13.57
-12.08
-6.79
-1.97
-1.21
-5.44
-12.37
-17.80
-18.05
-12.08
-2.16
7.31
12.29
11.17
5.75
-0.02
-2.38
-0.03
5.14
9.17
8.50
2.16
-7.47
-15.85
-18.86
-15.06
-6.56
2.12
6.55
4.80
-1.45
-8.04
-10.61
-7.12
1.01
9.79
15.09
14.92
10.64
5.97
4.51
7.51
12.91
16.60
15.03
7.47
-3.28
-12.39
-15.91
-13.01
-6.54
-1.35
-1.32
-7.06
-15.58
-21.94
-22.23
-15.76
-5.45
3.94
8.41
6.89
1.68
-3.18
-4.42
-1.54
2.98
5.23
2.46
-5.18
-14.33
-20.27
-19.47
-11.68
-0.22
9.79
14.12
11.83
5.62
0.20
-0.61
3.85
10.64
14.86
12.74
3.92
-7.97
-17.20
-18.99
-12.16
0.04
11.87
18.08
16.83
10.55
4.30
2.80
7.68
16.55
24.49
26.95
22.31
12.90
3.47
-1.58
-0.80
3.51
6.79
5.11
-2.31
-12.48
-20.27
-21.49
-15.39
-5.25
3.44
6.11
1.75
-6.53
-13.38
-14.36
-8.48
1.30
9.87
12.96
9.44
1.72
-5.82
-9.59
-8.78
-5.80
-4.56
-7.77
-15.06
-22.77
-26.04
-21.64
-10.19
4.00
15.03
18.69
14.74
7.01
1.01
0.78
6.61
14.95
20.74
20.30
13.41
3.38
-4.94
-7.89
-4.93
1.23
6.23
6.67
2.11
-4.81
-9.76
-9.35
-3.06
6.32
14.28
17.12
14.04
7.52
1.65
-0.27
2.15
6.16
7.74
4.23
-3.96
-13.27
-19.23
-19.10
-13.54
-6.33
-1.99
-3.20
-9.13
-15.96
-19.22
-16.43
-8.51
0.75
6.93
7.55
3.44
-1.86
-4.28
-1.64
5.04
11.93
14.66
10.77
1.34
-9.45
-16.48
-16.47
-9.65
0.32
8.57
11.74
9.64
5.21
2.49
3.99
9.09
14.30
15.39
9.98
-0.76
-12.51
-20.08
-20.16
-13.15
-2.94
5.27
7.89
4.72
-0.93
-4.45
-2.63
4.46
13.48
19.74
19.89
13.78
4.44
-3.66
-7.17
-5.68
-1.79
0.69
-0.78
-5.74
-10.89
-12.04
-6.73
3.98
15.89
23.84
24.52
18.36
9.17
1.90
-0.26
2.42
6.52
7.73
3.59
-5.11
-14.63
-20.64
-20.71
-15.75
-9.46
-6.13
-7.97
-13.72
-19.38
-20.45
-14.76
-3.81
7.83
15.13
15.38
9.64
2.03
-2.81
-2.37
2.11
6.73
7.24
1.84
-7.58
-16.51
-20.28
-16.83
-7.82
2.30
8.81
9.40
5.16
-0.11
-2.39
0.14
6.10
11.62
12.68
7.51
-2.24
-12.30
-17.99
-16.84
-9.81
-0.78
5.74
7.10
3.92
-0.44
-1.95
1.55
9.07
17.05
21.35
19.71
13.09
5.02
-0.42
-1.01
2.36
6.25
6.87
2.45
-5.55
-13.14
-16.19
-12.84
-4.67
4.19
9.51
9.38
5.05
0.03
-2.26
-0.72
2.93
5.24
3.46
-2.61
-10.26
-15.29
-14.34
-6.92
4.09
13.97
18.40
15.81
8.03
-0.77
-6.36
-6.77
-3.14
1.08
2.43
-0.38
-5.79
-10.20
-10.23
-4.82
3.97
12.10
15.68
13.32
6.83
0.16
-2.95
-1.16
3.72
7.77
7.31
1.21
-8.52
-17.70
-22.28
-20.59
-14.17
-6.72
-1.97
-1.47
-3.82
-5.69
-4.13
1.38
8.33
12.46
10.31
1.66
-10.06
-19.22
-21.06
-14.36
-2.15
9.82
16.27
15.02
8.02
-0.09
-4.71
-3.86
1.12
6.66
9.24
7.67
3.42
-0.41
-1.13
1.67
5.87
8.24
6.45
0.76
-5.93
-9.69
-7.98
-1.28
6.83
11.58
9.70
1.53
-9.17
-16.81
-17.28
-9.95
1.97
13.01
18.39
16.31
8.69
-0.16
-5.87
-6.36
-2.59
2.44
5.64
5.67
3.61
1.93
2.73
6.25
10.37
11.90
8.48
0.39
-9.12
-15.36
-14.77
-6.98
4.62
14.44
17.63
12.65
2.00
-8.99
-15.33
-14.92
-9.64
-4.00
-2.35
-6.04
-12.70
-17.62
-16.67
-9.03
2.13
11.19
13.40
7.47
-3.51
-13.75
-18.05
-14.58
-5.85
3.05
7.39
5.65
0.29
-3.83
-2.48
5.36
16.78
26.36
29.25
23.83
12.51
0.45
-7.38
-8.78
-5.44
-1.47
-0.86
-4.76
-10.82
-14.71
-12.86
-4.93
5.68
13.55
14.41
7.54
-3.60
-13.38
-17.03
-13.26
-4.97
2.86
5.92
3.13
-2.89
-7.49
-6.93
-0.66
8.33
15.07
15.52
8.94
-1.72
-11.35
-15.63
-13.33
-6.86
-0.59
1.88
0.02
-3.47
-4.43
-0.21
8.39
17.26
21.27
17.51
7.07
-5.16
-13.35
-13.94
-7.68
0.69
5.25
2.33
-7.43
-19.34
-27.25
-27.09
-19.01
-7.28
2.19
5.31
2.07
-3.58
-6.23
-2.38
7.46
19.07
26.87
27.20
20.33
10.09
1.63
-1.57
0.59
4.94
7.27
4.82
-1.95
-9.57
-13.56
-10.95
-2.00
9.80
19.37
22.82
19.30
11.34
3.38
-0.95
-0.67
2.08
3.63
1.22
-5.12
-12.54
-17.04
-15.96
-9.77
-1.72
3.96
4.58
0.54
-5.10
-8.54
-7.68
-3.29
1.42
2.98
-0.30
-7.05
-13.63
-16.17
-12.96
-5.58
1.96
5.25
2.19
-5.77
-14.17
-18.00
-14.44
-4.56
7.18
15.41
16.72
11.53
3.66
-2.03
-2.44
2.01
7.71
10.28
7.08
-1.10
-10.42
-16.19
-15.52
-8.79
0.54
7.95
10.28
7.60
2.80
0.02
2.19
9.14
17.76
23.74
24.01
18.57
10.51
4.12
2.41
5.30
9.68
11.30
7.29
-2.04
-13.35
-22.04
-24.87
-21.73
-15.61
-10.65
-9.69
-12.60
-16.30
-16.80
-11.75
-2.06
8.39
14.87
14.55
8.35
0.35
-4.50
-3.22
3.32
10.99
14.72
11.46
2.06
-9.24
-17.09
-18.01
-12.21
-3.37
3.57
5.29
1.92
-3.30
-6.02
-3.53
3.60
11.91
17.11
16.80
11.82
5.76
2.87
5.31
11.96
19.01
22.31
19.76
12.56
4.49
-0.32
0.17
4.80
9.94
11.57
7.74
-0.39
-9.15
-14.52
-14.43
-9.85
-4.24
-1.61
-4.19
-11.30
-19.70
-25.43
-26.04
-21.92
-15.91
-11.58
-10.95
-13.36
-15.88
-15.11
-9.42
-0.07
9.30
14.76
14.34
9.22
3.15
0.26
2.68
9.25
16.10
18.87
15.30
6.52
-3.49
-10.25
-11.35
-7.71
-2.92
-0.97
-3.65
-9.52
-14.75
-15.48
-10.28
-1.01
8.17
13.23
12.58
7.87
2.79
0.93
3.54
8.89
13.49
14.22
10.30
3.95
-0.88
-0.71
5.30
14.79
23.23
26.36
22.37
12.92
2.30
-4.95
-6.47
-3.32
0.75
1.65
-2.63
-10.73
-18.73
-22.58
-20.53
-14.31
-8.11
-6.00
-9.47
-16.34
-22.14
-22.54
-15.99
-4.79
6.23
12.39
11.72
6.17
0.29
-1.33
3.00
11.19
18.37
19.84
13.87
2.81
-8.02
-13.43
-11.20
-3.46
4.64
7.92
4.25
-4.25
-12.53
-15.66
-11.81
-3.34
4.60
7.22
2.91
-5.65
-13.12
-14.71
-8.84
1.84
12.18
17.50
16.21
10.55
4.91
3.37
7.18
14.28
20.59
22.54
19.04
12.08
5.56
2.84
4.86
9.48
12.76
11.20
3.91
-6.72
-16.27
-20.78
-18.97
-13.08
-7.60
-6.62
-11.53
-20.06
-27.57
-29.67
-24.70
-14.71
-4.26
2.15
2.74
-0.68
-3.88
-2.90
3.54
13.20
21.59
24.78
21.66
14.70
8.42
6.65
10.29
16.79
21.70
21.35
15.06
5.58
-2.39
-4.93
-0.98
6.93
14.19
16.66
12.91
5.03
-2.71
-6.44
-4.89
-0.09
3.89
3.32
-2.72
-11.87
-19.64
-22.19
-18.55
-11.29
-5.11
-4.15
-9.43
-18.25
-25.63
-27.16
-21.69
-12.03
-3.33
-0.14
-3.69
-11.16
-17.52
-18.56
-13.42
-5.13
1.37
2.29
-2.63
-9.86
-14.16
-11.76
-2.71
9.16
18.39
20.99
16.80
9.41
4.01
4.38
10.66
19.37
25.46
25.22
18.50
8.72
0.87
-1.46
1.95
7.77
11.29
9.14
1.35
-8.62
-15.99
-17.38
-12.80
-5.43
0.23
1.08
-2.76
-8.21
-11.11
-8.73
-1.57
6.90
12.26
11.59
5.30
-2.88
-8.16
-7.38
-0.91
7.33
12.04
9.63
0.39
-11.50
-20.01
-20.72
-13.15
-0.99
9.92
14.88
12.77
6.49
1.05
0.66
6.21
14.87
21.83
23.12
17.99
9.22
1.55
-1.27
1.40
6.72
10.18
8.46
1.31
-8.17
-15.52
-17.70
-14.91
-10.54
-8.80
-12.08
-19.17
-25.90
-27.38
-21.08
-8.43
5.74
15.63
17.60
12.05
2.93
-4.59
-6.99
-4.29
0.22
2.26
-0.85
-8.30
-16.31
-20.13
-16.94
-7.53
4.02
12.39
14.13
9.45
2.11
-2.67
-1.21
6.60
17.12
25.20
26.99
22.18
13.97
7.14
4.92
7.19
10.53
10.44
4.24
-7.01
-18.91
-26.19
-25.72
-18.30
-8.23
-0.82
0.52
-3.89
-10.39
-14.26
-12.47
-5.43
3.38
9.42
9.86
5.27
-0.79
-3.72
-0.89
6.83
15.19
18.97
14.99
4.14
-8.94
-18.32
-19.98
-14.16
-5.08
1.54
1.73
-4.42
-12.97
-18.46
-17.21
-9.38
1.15
9.11
10.99
6.92
0.63
-3.06
-0.99
6.38
15.49
21.79
22.53
18.38
12.83
10.12
12.56
19.21
26.41
29.94
27.37
19.50
9.81
2.36
-0.34
1.00
3.12
2.05
-4.42
-14.99
-25.61
-31.41
-29.75
-21.81
-12.22
-6.52
-8.00
-15.77
-25.13
-30.35
-27.78
-18.19
-6.08
2.72
4.46
-0.42
-7.77
-12.20
-10.27
-2.57
6.78
12.48
11.31
4.12
-4.66
-9.59
-7.39
1.10
11.48
18.33
18.30
12.09
3.71
-1.82
-1.42
4.39
12.02
17.08
17.03
12.45
6.63
3.34
4.56
9.31
14.36
16.22
13.40
7.33
1.51
-0.50
2.66
9.25
15.31
16.84
12.14
2.84
-6.97
-12.94
-12.95
-8.33
-2.99
-1.24
-5.19
-13.41
-21.81
-25.92
-23.68
-16.64
-9.24
-6.15
-9.48
-17.40
-25.11
-27.55
-22.44
-11.61
-0.00
7.11
7.08
1.28
-5.78
-9.04
-5.91
2.50
12.08
18.31
18.91
15.04
10.54
9.41
13.28
20.31
26.20
26.81
20.73
10.34
0.64
-3.51
-0.20
8.39
17.29
21.56
19.05
11.55
3.57
-0.37
1.57
7.58
13.21
14.15
8.77
-0.97
-10.52
-15.41
-13.83
-7.57
-1.07
1.26
-2.41
-10.27
-17.98
-21.13
-17.91
-9.94
-1.55
2.88
1.41
-4.51
-10.80
-13.37
-10.50
-4.01
1.83
2.82
-2.59
-12.20
-21.24
-25.05
-21.87
-13.75
-5.38
-1.25
-2.88
-8.05
-12.21
-11.38
-4.85
4.38
11.25
11.56
4.58
-6.49
-16.23
-19.88
-16.02
-7.03
2.17
7.08
6.06
1.11
-3.42
-3.55
2.02
11.06
19.20
22.45
19.61
12.96
6.93
5.53
9.88
17.58
23.97
24.87
18.94
8.54
-1.66
-7.17
-6.17
-0.34
6.19
9.14
6.54
-0.56
-8.71
-14.28
-15.42
-12.92
-9.41
-7.64
-8.65
-11.13
-12.30
-9.72
-2.98
5.77
12.89
15.35
12.52
6.61
1.57
0.66
4.56
10.76
14.89
13.37
5.58
-5.48
-14.77
-18.01
-14.30
-6.61
-0.17
0.66
-4.94
-13.79
-20.47
-20.57
-13.23
-1.61
8.94
13.93
12.16
6.22
0.77
-0.20
4.40
12.32
19.36
21.96
19.19
13.22
8.01
6.73
9.98
15.21
18.13
15.32
6.35
-5.70
-15.86
-19.84
-16.47
-8.22
0.29
4.81
3.76
-1.09
-5.95
-7.34
-4.20
1.55
6.34
7.10
3.18
-3.22
-8.38
-9.41
-5.94
-0.45
3.17
2.02
-3.95
-11.77
-16.95
-16.25
-9.57
-0.21
6.93
8.07
2.75
-5.91
-13.08
-14.94
-10.88
-3.82
1.53
1.47
-4.60
-13.79
-21.42
-23.67
-19.77
-12.32
-5.77
-3.62
-6.51
-11.68
-14.84
-12.72
-5.23
4.33
11.08
11.50
5.65
-2.83
-8.58
-7.72
-0.13
10.58
19.02
21.31
17.16
10.02
4.89
5.39
11.77
20.82
27.92
29.69
25.85
19.15
13.55
11.86
14.04
17.27
17.78
13.23
4.11
-6.17
-13.40
-14.97
-11.53
-6.72
-4.98
-8.92
-17.50
-26.53
-30.90
-27.66
-17.69
-5.26
4.22
7.27
4.08
-1.75
-5.45
-3.84
2.85
11.25
16.68
15.91
9.01
-0.67
-8.43
-10.81
-7.40
-1.05
4.11
5.12
1.91
-2.61
-4.56
-1.47
6.05
14.47
19.31
17.70
10.16
0.31
-7.04
-8.70
-4.80
1.28
4.95
3.14
-3.77
-12.22
-17.41
-16.11
-8.64
1.41
9.16
11.43
8.29
2.99
-0.26
1.13
6.60
12.81
15.67
12.92
5.48
-2.94
-8.07
-7.40
-1.80
5.12
9.04
7.44
1.10
-6.34
-10.58
-9.16
-3.04
4.00
7.42
4.62
-3.42
-12.85
-19.00
-19.13
-13.90
-6.96
-2.65
-3.41
-8.29
-13.45
-14.55
-9.25
1.17
12.49
19.74
20.17
14.57
6.90
1.84
2.11
6.91
12.26
13.60
8.36
-2.28
-13.92
-21.41
-21.63
-15.31
-6.34
0.45
2.13
-0.67
-4.45
-5.00
-0.22
8.48
16.78
19.97
15.61
5.12
-6.96
-15.36
-16.96
-12.32
-5.29
-0.60
-1.03
-5.77
-10.91
-11.80
-6.08
4.82
16.22
22.94
22.16
15.05
5.99
-0.19
-0.90
2.67
6.63
6.79
1.39
-7.83
-16.60
-20.74
-18.44
-11.34
-3.50
1.08
0.72
-3.05
-6.58
-6.28
-0.95
7.45
14.85
17.30
13.38
5.06
-3.36
-7.58
-5.93
-0.29
4.97
5.51
-0.38
-10.62
-20.37
-24.64
-21.06
-11.27
-0.02
7.51
8.61
4.42
-0.81
-2.51
1.54
9.93
18.49
22.89
21.14
14.71
7.41
3.09
3.27
6.42
9.01
7.93
2.39
-5.46
-11.83
-13.43
-9.49
-2.15
4.72
7.69
5.77
0.87
-3.29
-3.42
1.40
9.13
15.78
17.60
13.17
4.15
-5.65
-12.22
-13.73
-11.33
-8.41
-8.61
-13.49
-21.53
-28.75
-30.94
-25.99
-15.27
-3.06
5.80
8.44
5.53
0.79
-1.35
1.71
9.23
17.78
23.37
23.93
20.38
15.90
13.66
14.72
17.33
17.96
13.65
4.07
-7.92
-17.70
-21.43
-18.23
-10.79
-3.77
-1.29
-4.50
-11.02
-16.31
-16.37
-10.04
0.27
9.92
14.73
13.38
7.91
2.66
1.51
5.68
13.06
19.47
21.03
16.46
7.76
-0.98
-5.90
-5.57
-1.67
2.01
1.92
-3.10
-11.12
-18.07
-20.17
-16.01
-7.43
1.47
6.76
6.95
3.75
1.06
2.32
8.20
15.97
20.87
18.97
9.89
-2.90
-13.68
-17.73
-14.12
-6.10
0.71
1.67
-4.34
-14.26
-22.81
-25.54
-21.31
-12.84
-5.03
-1.98
-4.73
-10.79
-15.62
-15.43
-9.32
0.15
8.49
11.92
9.55
3.81
-1.03
-1.35
3.63
11.42
17.59
18.37
12.83
3.46
-5.16
-8.88
-6.27
0.66
7.47
9.87
6.14
-1.94
-10.14
-14.26
-12.43
-6.20
0.42
3.49
1.48
-3.79
-8.31
-8.29
-2.59
6.69
15.34
19.65
18.41
13.69
9.26
8.27
11.16
15.36
16.84
12.72
3.16
-8.42
-17.05
-19.08
-14.27
-6.01
0.49
1.15
-4.70
-13.84
-21.07
-22.06
-15.84
-5.28
4.52
9.21
7.62
2.24
-2.19
-1.56
5.20
15.50
24.50
27.83
24.03
15.28
5.99
0.26
-0.44
2.06
3.88
1.77
-4.78
-13.04
-18.61
-18.15
-11.45
-1.76
6.15
8.66
5.55
0.06
-3.16
-0.90
6.55
15.53
20.93
19.15
10.41
-1.51
-11.14
-14.44
-10.89
-3.81
1.75
1.87
-4.04
-12.92
-19.93
-21.36
-16.69
-8.80
-2.28
-0.54
-3.89
-9.39
-12.75
-10.95
-4.13
4.36
9.97
9.35
2.51
-7.17
-14.60
-15.77
-9.94
0.15
9.67
14.44
13.21
8.30
4.06
4.31
9.99
18.47
25.12
26.03
20.27
10.51
1.44
-3.07
-2.08
2.00
4.95
3.32
-3.41
-12.58
-19.90
-22.02
-18.51
-12.05
-6.84
-5.99
-9.51
-14.22
-15.58
-10.49
0.48
13.16
21.87
22.66
15.55
4.60
-4.55
-7.88
-5.08
0.44
4.01
2.56
-3.42
-10.24
-13.23
-9.67
-0.47
10.28
17.40
17.44
10.66
0.76
-7.19
-9.59
-6.27
-0.49
3.12
1.34
-5.51
-13.73
-18.30
-15.88
-6.88
4.71
13.40
15.35
10.42
2.09
-4.70
-6.53
-3.30
1.76
4.35
1.78
-5.25
-12.94
-16.58
-13.45
-4.42
6.40
13.95
14.94
9.70
1.99
-3.21
-2.40
4.56
14.35
22.14
24.08
19.33
10.36
1.41
-3.95
-4.68
-2.67
-1.34
-3.39
-8.95
-15.52
-19.36
-17.88
-11.42
-3.09
2.92
3.92
0.40
-4.25
-5.76
-1.76
6.72
15.43
19.51
16.20
6.54
-4.98
-13.04
-14.37
-9.56
-2.66
1.29
-0.64
-7.68
-15.69
-19.64
-16.60
-7.45
3.64
11.59
13.24
9.23
3.21
-0.39
0.90
5.93
10.75
10.99
4.74
-6.08
-16.40
-20.82
-16.57
-5.17
8.24
17.76
19.82
14.92
7.20
1.77
1.85
7.01
13.55
16.81
14.00
5.74
-4.12
-10.91
-11.68
-6.92
-0.14
4.27
3.63
-1.42
-7.48
-10.41
-7.86
-0.75
7.43
12.73
13.17
9.71
5.61
4.10
6.41
10.86
13.71
11.61
3.54
-8.24
-19.23
-25.02
-23.53
-16.00
-6.34
1.10
3.79
2.10
-1.01
-2.16
0.47
5.85
10.76
11.66
7.03
-1.58
-10.27
-14.87
-13.45
-7.42
-0.79
2.16
-0.61
-7.61
-14.62
-17.22
-13.25
-4.01
6.47
13.69
15.05
11.06
4.72
-0.31
-1.95
-0.72
0.75
-0.47
-5.55
-12.92
-18.84
-19.56
-13.46
-2.34
9.36
16.75
17.18
11.62
4.13
-0.42
0.81
7.12
14.58
18.43
15.81
7.37
-2.98
-10.34
-11.53
-6.89
0.06
4.71
4.10
-1.38
-8.24
-12.01
-9.97
-2.77
5.97
11.84
12.28
7.97
2.33
-0.81
0.47
4.89
8.86
8.76
3.37
-5.37
-13.22
-16.23
-12.86
-4.87
3.75
9.09
9.40
5.79
1.32
-1.03
-0.11
2.71
4.54
2.75
-3.25
-11.58
-18.74
-21.55
-18.90
-12.34
-5.24
-0.90
-0.66
-3.25
-5.50
-4.44
0.93
8.88
15.78
18.20
14.83
7.24
-0.86
-5.77
-5.76
-2.01
2.10
3.02
-0.83
-8.13
-15.26
-18.38
-15.53
-7.85
1.09
7.22
8.34
5.30
1.40
0.36
3.98
11.03
17.85
20.60
17.56
10.12
2.06
-2.69
-2.37
1.69
5.91
6.83
3.27
-2.97
-8.02
-8.34
-2.86
6.31
15.00
19.29
17.57
11.32
4.09
-0.67
-1.48
0.45
2.21
1.02
-3.99
-11.24
-17.55
-20.07
-17.81
-12.30
-6.75
-4.14
-5.48
-9.25
-12.25
-11.43
-5.85
2.61
10.15
13.09
10.01
2.64
-5.09
-9.18
-7.98
-3.13
1.44
1.89
-3.11
-11.42
-18.51
-20.03
-14.49
-4.16
6.13
11.67
10.62
4.87
-1.04
-2.80
1.29
9.26
16.67
19.19
15.05
5.96
-3.86
-10.08
-10.54
-6.25
-0.57
2.90
2.36
-1.15
-4.57
-4.63
0.02
7.94
15.55
19.10
16.80
9.83
1.67
-3.86
-4.72
-1.72
2.14
3.79
1.94
-2.00
-4.87
-3.91
1.43
8.74
13.92
13.47
6.63
-4.04
-13.79
-18.26
-15.70
-7.91
0.82
6.12
5.99
1.76
-2.77
-3.74
0.44
8.00
14.79
16.62
11.79
2.17
-7.73
-13.25
-12.18
-5.79
1.89
6.59
6.24
2.11
-2.18
-2.97
1.10
8.16
14.12
15.09
9.70
-0.03
-9.70
-15.06
-14.30
-8.89
-2.77
0.01
-2.51
-9.09
-16.06
-19.55
-17.51
-11.04
-3.55
1.27
1.63
-1.34
-4.29
-3.93
0.88
8.29
14.51
16.15
12.34
5.38
-0.49
-1.78
2.19
8.83
13.66
12.99
6.04
-4.40
-13.55
-17.13
-13.85
-5.91
2.12
5.95
4.08
-1.49
-6.39
-6.59
-0.81
8.56
16.75
19.30
14.60
4.85
-5.32
-11.38
-11.55
-7.44
-2.97
-1.70
-4.60
-9.53
-12.42
-10.03
-1.95
8.68
16.87
18.31
11.83
0.20
-11.40
-17.91
-17.08
-10.22
-1.41
4.97
6.65
4.39
1.37
0.85
4.22
10.07
15.16
16.35
12.66
5.94
-0.37
-3.20
-1.92
1.34
2.83
-0.38
-8.52
-18.75
-26.50
-28.14
-23.00
-13.93
-5.73
-2.43
-5.01
-10.84
-15.24
-14.23
-7.06
3.43
12.34
15.69
12.77
6.53
1.87
2.63
9.44
19.18
27.05
29.19
24.88
16.82
9.37
5.97
7.09
10.12
10.96
6.74
-2.38
-13.14
-21.02
-22.82
-18.72
-12.04
-7.50
-8.32
-14.32
-22.01
-26.57
-24.64
-16.29
-4.99
4.40
8.40
6.74
2.45
-0.12
2.11
9.17
17.97
24.04
24.07
17.78
8.09
-0.60
-4.72
-3.54
0.70
4.22
4.09
-0.04
-5.66
-9.09
-7.59
-1.21
7.31
14.08
16.36
14.08
9.78
6.91
7.64
11.61
16.00
17.20
12.97
3.86
-6.95
-15.27
-18.20
-15.81
-10.98
-7.85
-9.20
-14.79
-21.40
-24.74
-22.07
-13.82
-3.54
4.17
6.27
3.02
-2.31
-5.50
-3.90
1.96
8.73
12.12
9.50
1.54
-8.06
-14.56
-14.70
-8.45
0.92
8.81
11.85
9.70
5.16
2.26
3.85
9.80
17.23
22.14
21.86
16.69
9.66
4.81
4.67
8.80
13.98
16.10
12.63
4.15
-5.75
-12.50
-13.12
-8.05
-0.93
3.31
1.32
-6.73
-17.09
-24.58
-25.46
-19.40
-9.73
-1.28
2.33
0.65
-3.61
-6.45
-5.04
0.54
7.48
11.98
11.59
6.60
-0.09
-4.79
-5.20
-1.75
2.52
3.86
0.05
-8.17
-17.21
-22.70
-21.89
-15.22
-6.18
0.75
2.74
0.10
-3.88
-5.10
-1.13
7.21
16.24
21.56
20.64
14.36
6.57
1.79
2.60
8.03
14.13
16.18
11.62
1.60
-9.48
-16.52
-16.47
-10.14
-1.55
4.37
4.63
-0.27
-6.64
-9.99
-7.50
0.35
9.98
16.85
18.01
13.56
6.52
0.93
-0.54
1.92
5.59
6.91
3.77
-3.17
-10.75
-15.22
-14.52
-9.69
-4.35
-2.74
-7.20
-16.63
-26.73
-32.32
-29.98
-20.10
-6.74
4.52
9.58
8.04
3.31
0.31
2.60
10.11
19.16
24.71
23.41
15.63
5.29
-2.44
-4.23
-0.48
5.02
7.57
4.52
-3.02
-10.78
-13.98
-10.27
-1.25
8.51
14.11
13.23
7.40
0.99
-1.63
1.36
8.06
14.02
15.01
9.56
-0.07
-9.20
-13.45
-11.28
-4.96
0.81
1.53
-4.31
-14.28
-23.31
-26.47
-21.70
-11.04
0.68
8.47
9.85
6.06
1.04
-0.94
2.12
8.97
15.83
18.61
15.29
7.02
-2.49
-9.09
-10.42
-7.17
-2.57
-0.42
-2.79
-8.70
-14.80
-17.29
-14.37
-7.28
0.29
4.37
3.10
-2.15
-7.67
-9.45
-5.61
2.54
11.34
16.96
17.55
14.22
10.25
8.94
11.58
16.65
20.71
20.54
15.21
6.82
-0.63
-3.42
-0.42
6.21
12.08
13.03
7.48
-2.53
-12.51
-17.99
-17.11
-11.61
-5.92
-4.48
-9.14
-17.96
-26.33
-29.63
-25.91
-17.01
-7.41
-1.71
-1.95
-6.63
-11.71
-13.04
-8.82
-0.48
8.08
12.86
12.06
6.98
1.20
-1.56
0.40
5.78
11.10
12.87
9.66
3.09
-3.12
-5.32
-2.15
4.72
11.44
14.36
12.14
6.50
1.22
-0.18
3.49
10.16
15.73
16.35
10.82
1.42
-7.34
-11.12
-8.37
-0.98
6.68
10.50
9.00
4.12
-0.08
0.02
5.32
13.27
19.45
20.23
14.81
5.80
-2.37
-6.00
-4.22
0.59
4.15
2.88
-4.05
-14.05
-22.55
-25.57
-21.80
-13.42
-4.75
0.09
-0.54
-5.04
-9.69
-10.80
-6.83
0.81
8.69
13.44
13.68
10.76
7.76
7.48
10.72
15.55
18.42
16.26
8.47
-2.39
-11.86
-15.93
-13.35
-6.49
-0.03
1.63
-3.19
-12.53
-21.86
-26.78
-25.34
-18.97
-11.45
-6.56
-5.97
-8.39
-10.68
-9.86
-5.13
1.64
7.05
8.13
4.32
-2.00
-6.80
-6.57
-0.44
9.18
17.95
21.87
19.66
13.43
7.42
5.63
9.48
17.08
24.36
27.52
25.20
19.07
12.79
9.61
10.46
13.33
14.66
11.58
3.82
-5.92
-13.41
-15.26
-11.05
-3.66
2.19
2.54
-3.52
-13.19
-21.65
-24.65
-21.04
-13.44
-6.71
-4.95
-9.13
-16.42
-21.99
-21.99
-16.13
-7.94
-2.65
-3.96
-11.54
-21.11
-26.93
-25.22
-16.35
-4.66
4.16
6.36
2.19
-4.54
-8.85
-7.51
-0.87
7.64
13.56
14.08
9.59
3.44
-0.11
1.70
8.52
17.09
23.04
23.44
18.46
11.26
6.18
6.31
11.66
19.26
24.87
25.46
20.88
13.81
8.06
6.25
8.23
11.26
11.65
7.04
-1.91
-11.84
-18.40
-18.79
-13.55
-6.29
-1.81
-3.34
-10.69
-20.32
-27.33
-28.22
-22.73
-13.95
-6.35
-3.23
-4.96
-8.92
-11.29
-9.36
-3.17
4.64
10.39
11.67
8.79
4.54
2.46
4.61
10.28
16.20
18.57
15.39
7.75
-0.52
-5.03
-3.32
3.63
11.89
16.75
15.32
8.14
-1.19
-8.04
-9.38
-5.38
0.77
4.75
3.68
-2.28
-10.04
-15.48
-15.94
-11.84
-6.42
-3.88
-6.79
-14.35
-22.66
-26.81
-23.68
-13.75
-1.06
9.02
12.76
9.95
3.93
-0.51
0.09
5.91
13.85
19.37
19.21
13.16
4.17
-3.38
-6.32
-4.38
-0.20
2.37
0.70
-4.85
-11.24
-14.34
-11.49
-3.34
6.57
13.63
14.86
10.63
4.43
0.70
2.14
8.11
14.93
18.03
14.62
5.42
-5.66
-13.78
-15.71
-11.84
-5.70
-1.91
-3.28
-9.21
-16.02
-19.19
-16.07
-7.48
2.67
9.61
10.41
5.67
-0.94
-4.84
-3.13
3.65
12.05
17.76
18.14
13.65
7.64
4.16
5.53
10.91
16.67
18.51
14.14
4.77
-5.45
-11.79
-11.68
-6.46
-0.48
1.21
-3.96
-14.39
-25.06
-30.26
-26.90
-16.24
-3.28
6.16
8.74
5.31
0.13
-1.90
1.74
9.60
17.27
19.99
15.69
5.99
-4.56
-11.15
-11.37
-6.38
-0.06
3.38
1.85
-3.51
-9.12
-11.15
-7.84
-0.61
6.68
9.94
7.05
-0.84
-9.90
-15.72
-15.70
-10.27
-2.48
3.87
6.45
5.67
4.11
4.77
8.86
14.94
19.56
19.20
12.66
1.97
-8.40
-13.81
-11.90
-3.82
6.29
13.62
15.10
10.93
4.19
-1.19
-2.71
-0.78
1.64
1.11
-4.05
-12.47
-20.33
-23.48
-19.84
-10.84
-0.64
6.11
6.78
2.33
-3.39
-5.77
-2.22
6.34
16.11
22.62
23.28
18.84
12.72
8.73
8.77
11.66
13.84
11.77
4.30
-6.44
-15.85
-19.56
-15.76
-6.35
4.08
10.67
10.87
5.63
-1.44
-6.28
-6.68
-3.50
0.11
0.72
-3.12
-9.97
-16.36
-18.82
-16.07
-9.79
-3.77
-1.66
-4.76
-11.08
-16.43
-16.83
-10.89
-0.75
9.11
14.38
13.43
8.07
2.44
0.41
3.26
8.97
13.44
13.00
6.78
-2.68
-10.77
-13.48
-9.71
-2.04
4.83
6.76
2.69
-4.70
-10.45
-10.30
-3.23
8.02
18.41
23.51
21.91
15.76
9.16
5.68
6.23
8.64
9.25
5.23
-3.56
-14.24
-22.39
-24.58
-20.31
-12.47
-5.87
-4.54
-9.47
-17.84
-24.56
-25.07
-18.00
-6.05
5.40
11.33
9.88
3.34
-3.21
-5.01
-0.29
8.71
17.23
20.82
17.92
10.55
2.94
-1.09
-0.30
3.40
6.52
6.20
2.06
-3.60
-7.18
-6.18
-0.70
6.40
11.14
10.75
5.33
-2.00
-6.85
-6.07
0.32
9.02
15.11
14.84
7.74
-2.96
-12.15
-15.65
-12.59
-5.93
-0.61
-0.65
-6.77
-15.94
-23.15
-24.35
-18.70
-9.09
-0.34
3.55
1.70
-3.43
-7.56
-7.29
-1.99
5.97
12.75
15.42
13.70
9.94
7.56
8.95
13.75
19.11
21.30
18.06
10.14
1.07
-4.84
-4.96
0.12
6.60
9.65
6.12
-3.63
-15.74
-24.84
-26.98
-21.68
-12.08
-2.99
1.84
1.77
-0.61
-1.37
2.16
9.62
17.74
22.28
20.48
12.84
2.80
-5.22
-8.25
-6.35
-2.29
0.20
-1.30
-6.40
-12.16
-14.75
-11.84
-3.98
5.55
12.48
13.92
10.08
4.00
-0.19
0.17
4.71
10.16
12.27
8.36
-0.88
-11.61
-18.87
-19.25
-12.69
-2.52
6.61
11.13
10.40
6.69
3.54
3.38
6.13
9.13
8.86
3.35
-6.39
-16.66
-22.91
-22.42
-16.04
-7.82
-2.74
-3.93
-10.57
-18.28
-21.62
-17.24
-6.08
7.14
16.45
18.13
12.71
4.57
-0.64
0.62
7.95
17.37
23.83
24.11
18.54
10.61
4.55
2.89
4.94
7.48
6.86
1.51
-7.06
-14.95
-18.14
-14.76
-6.38
2.91
8.79
8.99
4.54
-0.99
-3.66
-1.39
4.78
11.40
14.62
12.58
6.32
-0.81
-5.16
-5.11
-1.98
0.92
0.29
-4.93
-12.78
-19.29
-20.68
-15.56
-5.81
4.21
10.05
9.55
3.82
-3.38
-7.92
-7.62
-3.45
1.06
2.07
-2.09
-9.82
-16.97
-19.19
-14.61
-4.95
5.41
11.91
12.40
8.23
3.17
1.17
3.91
9.88
15.50
17.31
14.06
7.45
1.08
-1.79
-0.14
4.19
7.60
6.88
1.17
-7.60
-15.63
-19.49
-17.97
-12.65
-7.06
-4.53
-6.39
-11.27
-15.98
-17.38
-14.30
-8.18
-2.15
0.68
-0.79
-5.09
-8.98
-9.40
-5.16
2.25
9.58
13.67
13.34
9.92
6.42
5.69
8.65
13.80
18.08
18.73
15.06
8.78
3.23
1.28
3.71
8.67
12.80
13.17
8.94
1.84
-4.87
-8.31
-7.54
-4.12
-1.04
-1.04
-4.95
-11.13
-16.39
-17.78
-14.30
-7.51
-0.72
2.83
1.93
-1.94
-5.49
-5.54
-1.13
5.87
11.70
13.02
8.98
1.79
-4.57
-6.75
-4.12
0.79
3.84
1.87
-5.25
-14.28
-20.42
-20.02
-12.75
-1.83
7.63
11.58
9.15
3.04
-2.09
-2.39
3.10
11.94
19.85
23.24
21.22
16.05
11.47
10.32
12.74
16.01
16.41
11.53
1.98
-8.74
-16.28
-17.92
-14.23
-8.79
-6.07
-8.76
-16.09
-24.12
-27.82
-24.08
-13.44
-0.02
10.63
14.56
11.48
4.85
-0.28
-0.18
5.46
13.32
18.62
17.89
10.99
1.20
-6.77
-9.52
-6.79
-1.61
1.73
0.21
-6.13
-14.12
-19.34
-18.68
-12.13
-2.55
5.89
10.24
10.29
8.39
7.71
10.08
14.99
19.58
20.80
17.16
9.77
2.04
-2.50
-2.23
1.43
4.30
1.66
-8.76
-24.83
-40.26
-47.44
-41.69
-24.18
-2.12
14.83
19.66
11.74
-2.94
-15.47
-19.09
-12.92
-1.73
7.57
10.51
7.70
3.93
4.43
11.13
21.29
28.95
28.78
19.39
4.34
-9.61
-16.18
-13.01
-2.52
9.43
16.85
16.80
10.55
2.43
-2.80
-2.71
1.65
6.58
8.01
3.98
-4.16
-12.49
-16.88
-15.29
-9.15
-2.59
-0.03
-3.62
-11.88
-20.51
-24.88
-22.65
-15.12
-6.26
-0.31
0.74
-1.79
-4.36
-3.44
2.16
10.65
18.34
21.91
20.35
15.56
11.10
9.99
12.91
17.66
20.57
18.62
11.42
1.62
-6.54
-9.64
-7.17
-1.89
1.64
-0.15
-7.66
-17.74
-25.24
-26.02
-19.22
-7.76
3.36
9.81
10.20
6.43
2.37
1.29
4.06
8.67
11.64
10.11
3.61
-5.55
-13.50
-16.83
-14.40
-7.95
-1.13
2.46
1.30
-3.27
-7.77
-8.64
-4.35
3.60
11.49
15.56
14.16
8.66
2.50
-0.83
-0.14
2.93
5.06
3.42
-2.19
-9.14
-13.37
-11.86
-4.47
5.81
14.51
18.05
15.59
9.24
2.62
-1.24
-1.55
0.02
0.48
-2.50
-8.89
-16.32
-21.17
-20.76
-14.92
-6.38
0.77
3.29
0.78
-4.12
-7.30
-5.67
0.83
9.08
14.69
14.50
8.64
0.47
-5.35
-5.65
-0.61
6.30
10.27
7.98
-0.37
-11.04
-18.82
-19.86
-13.90
-4.19
4.35
7.98
6.29
2.16
-0.10
2.43
9.42
17.45
21.92
19.91
11.96
1.74
-5.85
-7.60
-3.62
2.72
6.92
5.98
0.18
-7.12
-11.53
-10.30
-3.84
4.45
10.29
11.06
7.24
2.14
-0.31
2.08
8.25
14.52
16.64
12.29
2.59
-8.46
-16.03
-17.27
-12.83
-6.51
-3.02
-5.13
-11.84
-18.84
-21.01
-15.50
-3.60
9.79
18.83
20.00
13.87
4.70
-2.20
-3.59
-0.06
4.56
5.67
0.87
-8.51
-18.02
-22.68
-19.83
-10.68
0.38
8.28
10.16
6.89
2.36
0.95
4.77
12.16
18.62
19.56
13.08
1.24
-10.92
-18.20
-18.03
-11.70
-3.31
2.62
3.84
1.23
-2.02
-2.62
0.78
6.69
11.93
13.34
9.71
2.48
-5.10
-9.63
-9.40
-5.21
0.17
3.55
3.28
0.07
-3.27
-3.69
0.22
7.25
14.00
16.98
14.62
8.20
1.22
-2.79
-2.36
1.07
3.97
2.96
-3.12
-12.42
-20.96
-24.91
-22.72
-16.09
-8.94
-5.24
-6.70
-11.76
-16.55
-17.16
-11.90
-2.29
7.77
14.31
15.53
12.66
9.06
8.04
10.76
15.56
18.97
17.95
11.84
2.91
-4.68
-7.29
-3.88
3.28
9.84
11.78
7.72
-0.28
-7.82
-10.82
-7.74
-0.56
6.57
9.83
7.98
3.02
-1.24
-1.72
1.85
6.66
8.46
4.28
-5.54
-17.25
-25.57
-26.64
-20.29
-10.21
-1.95
0.21
-4.31
-12.15
-17.88
-17.24
-9.63
1.59
11.11
14.86
12.46
7.25
4.32
7.24
15.88
26.24
32.66
31.01
21.05
6.72
-6.12
-12.66
-11.63
-5.72
0.25
2.22
-0.80
-6.29
-9.89
-8.19
-0.86
8.95
16.51
18.13
13.47
5.48
-1.25
-3.29
-0.43
4.44
6.98
4.19
-3.61
-12.99
-19.31
-19.56
-14.17
-6.96
-2.90
-5.25
-13.56
-23.71
-30.13
-28.92
-19.93
-6.84
4.93
11.20
11.15
7.38
4.14
4.49
8.52
13.46
15.59
12.60
5.31
-2.82
-7.67
-6.85
-1.26
5.49
9.15
7.25
0.63
-7.05
-11.50
-10.35
-4.54
2.20
5.58
3.38
-3.25
-10.34
-13.39
-10.07
-1.61
7.93
13.91
13.72
8.29
1.33
-2.79
-1.57
4.19
11.12
15.33
14.73
10.30
5.33
3.31
5.74
11.08
15.60
15.63
9.78
0.01
-9.42
-14.27
-12.83
-6.93
-0.94
0.73
-3.71
-12.36
-20.52
-23.39
-18.84
-8.67
2.36
9.20
9.30
4.01
-2.42
-5.36
-2.55
4.70
12.46
16.56
15.06
9.26
2.71
-1.09
-0.76
2.14
4.17
2.30
-4.14
-12.71
-19.11
-19.52
-12.96
-2.00
8.40
13.49
11.28
3.49
-5.39
-10.78
-10.50
-5.85
-0.55
1.58
-0.87
-6.16
-10.42
-10.17
-4.42
4.54
12.52
15.84
13.45
7.55
2.20
0.75
3.78
8.73
11.43
8.80
0.84
-9.14
-16.40
-17.44
-11.94
-2.93
5.15
8.86
7.70
3.99
1.40
2.45
7.04
12.39
14.68
11.35
2.59
-8.46
-17.31
-20.54
-17.62
-11.20
-5.53
-4.01
-7.12
-12.26
-15.27
-13.14
-5.87
3.43
10.39
12.11
8.90
4.17
2.19
5.56
13.40
21.77
25.86
22.76
13.17
1.13
-8.21
-11.40
-8.37
-2.34
2.15
2.04
-2.69
-8.95
-12.56
-10.67
-3.59
5.48
12.12
13.40
9.48
3.50
-0.36
0.57
5.80
11.82
14.23
10.30
0.81
-10.31
-18.10
-19.47
-14.94
-8.32
-4.44
-6.12
-12.62
-19.96
-23.35
-20.09
-11.10
-0.41
7.25
9.11
5.92
1.26
-0.70
2.33
9.26
16.50
19.95
17.41
9.90
0.92
-5.48
-6.93
-3.98
0.36
2.54
0.59
-4.70
-10.15
-12.11
-8.75
-1.07
7.41
12.67
12.61
8.17
2.78
0.29
2.63
8.44
13.97
15.22
10.49
1.62
-7.05
-11.09
-8.61
-1.60
5.17
6.96
1.78
-8.34
-18.44
-23.56
-21.44
-13.88
-5.42
-0.69
-1.61
-6.51
-11.26
-11.87
-7.08
1.06
8.47
11.47
9.01
3.37
-1.29
-1.32
4.34
13.34
21.25
23.91
19.80
10.82
1.48
-3.74
-2.74
3.06
9.51
12.26
9.20
1.66
-6.42
-10.92
-9.87
-4.74
0.62
2.17
-1.76
-9.54
-17.16
-20.54
-17.99
-11.03
-3.41
1.14
1.11
-1.91
-4.34
-3.01
2.76
10.46
15.72
15.02
7.95
-2.47
-11.23
-14.41
-11.39
-5.09
-0.29
-0.59
-6.11
-13.40
-17.39
-14.49
-4.83
7.55
17.05
19.50
14.52
5.62
-1.86
-3.82
0.29
7.30
12.20
11.17
3.89
-6.26
-13.96
-15.09
-8.88
1.59
11.23
15.85
14.50
9.70
5.80
6.03
10.50
16.13
18.51
14.75
5.53
-5.24
-12.60
-13.42
-8.23
-0.87
3.74
2.49
-4.14
-12.53
-18.02
-17.58
-11.63
-3.36
3.04
4.97
2.89
-0.33
-1.22
1.89
7.76
12.78
13.15
7.19
-3.45
-14.39
-20.89
-20.35
-13.67
-4.67
2.11
3.97
1.42
-2.40
-3.82
-0.92
5.19
11.12
13.27
10.07
3.16
-3.53
-5.92
-2.14
6.25
15.12
19.85
17.85
10.02
0.14
-7.21
-9.24
-6.32
-1.72
0.60
-1.63
-7.71
-14.34
-17.78
-16.09
-10.29
-3.75
-0.13
-1.08
-5.25
-9.11
-9.05
-3.73
4.95
12.84
15.89
12.50
4.66
-3.18
-6.50
-3.44
4.16
11.74
14.59
10.52
1.20
-8.78
-14.39
-12.92
-5.44
3.81
9.93
10.20
5.54
-0.15
-2.38
1.07
8.88
16.97
21.03
19.28
13.44
7.55
5.36
7.84
12.47
14.88
11.65
2.48
-9.42
-19.21
-23.16
-20.76
-15.04
-10.60
-11.12
-17.14
-25.72
-32.13
-32.55
-26.17
-15.76
-6.05
-1.14
-2.08
-6.45
-9.71
-7.94
-0.30
10.48
19.61
23.00
19.68
12.34
5.56
3.14
5.91
11.37
15.37
14.68
8.99
1.07
-4.80
-5.43
-0.52
7.05
12.79
13.15
7.44
-1.71
-9.80
-12.98
-10.12
-3.48
2.71
4.65
1.41
-4.66
-9.21
-8.57
-1.98
7.78
16.03
18.80
15.06
7.27
-0.21
-3.72
-2.40
1.43
3.81
1.69
-5.11
-13.58
-19.23
-18.74
-11.93
-1.95
6.48
9.79
7.53
2.51
-0.99
0.04
5.42
11.79
14.65
11.05
1.61
-9.70
-17.68
-18.82
-13.21
-4.49
2.34
3.90
0.23
-5.27
-8.01
-5.09
2.84
12.00
17.65
17.10
11.20
3.95
-0.03
1.73
8.08
14.85
17.35
13.10
3.26
-7.86
-15.31
-16.16
-11.18
-4.35
-0.56
-2.79
-10.37
-19.42
-25.10
-24.51
-18.40
-10.59
-5.63
-5.91
-10.18
-14.34
-14.04
-7.33
3.93
15.17
21.62
21.01
14.83
7.33
3.12
4.53
10.49
17.25
20.59
18.28
11.29
3.21
-1.96
-2.15
1.54
5.56
6.13
1.67
-6.18
-13.37
-15.78
-11.78
-3.16
5.71
10.53
9.60
4.72
-0.10
-1.22
2.22
7.74
10.95
8.49
0.10
-11.00
-19.80
-22.40
-18.29
-10.53
-4.15
-3.05
-7.92
-15.73
-21.58
-21.39
-14.35
-3.40
6.40
10.73
8.41
2.08
-3.37
-3.73
2.14
11.53
19.57
22.00
17.70
9.27
1.30
-2.31
-0.79
3.34
5.83
3.66
-2.93
-10.54
-14.59
-12.22
-4.13
5.74
12.31
12.32
6.20
-2.21
-7.80
-7.02
0.20
10.43
18.59
20.83
16.44
8.34
1.19
-1.20
1.96
7.86
11.92
10.43
2.89
-7.65
-16.28
-19.17
-15.84
-9.30
-4.16
-3.79
-8.16
-13.85
-16.26
-12.47
-3.14
7.80
15.41
16.58
11.86
4.98
0.62
1.69
7.58
14.58
18.09
15.24
6.64
-4.03
-12.10
-14.61
-11.95
-7.50
-5.56
-8.67
-16.01
-23.74
-27.27
-23.84
-14.28
-2.59
6.27
9.11
6.25
1.15
-1.77
0.33
7.04
15.10
20.45
20.70
16.59
11.43
9.01
11.31
17.06
22.51
23.69
18.79
9.36
-0.39
-6.06
-5.39
0.40
7.34
11.01
8.97
2.12
-5.99
-11.33
-11.69
-8.05
-3.76
-2.54
-6.15
-13.19
-20.04
-22.92
-20.28
-13.94
-8.01
-6.58
-11.20
-19.76
-27.57
-29.98
-25.01
-14.35
-2.51
5.84
8.44
6.41
3.47
3.41
7.86
15.21
21.69
23.47
19.05
10.14
0.73
-5.07
-5.23
-0.99
3.96
5.61
2.06
-5.42
-12.95
-16.40
-13.84
-6.86
0.38
3.55
0.92
-5.58
-11.43
-12.30
-6.79
2.71
11.28
14.49
11.09
3.63
-2.97
-4.42
0.52
9.34
17.45
20.94
18.80
13.46
9.02
8.85
13.43
20.11
24.63
23.64
16.83
7.11
-0.79
-3.09
0.96
8.62
15.09
16.29
11.04
1.77
-6.94
-10.97
-9.10
-3.58
1.23
1.56
-3.50
-11.42
-17.84
-19.27
-15.20
-8.40
-3.30
-3.36
-8.93
-17.06
-23.21
-23.78
-18.21
-9.32
-1.64
1.08
-2.03
-8.59
-14.49
-16.38
-13.67
-8.83
-5.91
-7.85
-14.60
-22.86
-27.97
-26.59
-18.61
-7.39
2.22
6.59
5.23
1.03
-1.59
0.66
8.00
17.41
24.42
25.78
21.48
14.76
10.28
11.27
17.55
25.56
30.41
28.79
21.01
10.75
2.97
0.96
4.57
10.47
14.21
12.92
6.86
-0.73
-5.75
-5.68
-1.06
4.94
8.33
6.86
1.28
-4.99
-7.92
-5.39
1.47
8.66
11.56
7.68
-1.81
-12.58
-19.63
-20.03
-14.66
-7.49
-3.22
-4.48
-10.38
-17.16
-20.44
-17.91
-10.61
-2.28
2.91
2.84
-1.33
-5.81
-6.59
-1.76
7.02
15.54
19.22
15.84
6.90
-3.18
-9.42
-9.25
-3.88
2.45
5.03
1.57
-6.42
-14.50
-18.10
-15.16
-7.58
0.10
3.28
0.08
-7.56
-15.13
-18.19
-15.06
-7.65
-0.21
3.32
1.73
-2.77
-5.89
-4.01
3.62
14.20
22.99
26.11
22.63
15.24
8.50
6.31
9.68
16.35
22.29
24.06
20.64
13.85
7.13
3.40
3.62
6.14
7.96
6.51
1.21
-6.05
-11.87
-13.33
-9.74
-3.37
1.77
2.04
-3.53
-12.58
-20.60
-23.47
-19.94
-12.35
-5.37
-3.22
-7.19
-14.97
-21.98
-24.16
-20.28
-12.72
-5.88
-3.56
-6.59
-12.41
-16.54
-15.41
-8.51
1.15
8.77
10.57
6.11
-1.47
-7.09
-6.83
-0.03
10.14
18.69
21.54
18.09
11.34
6.17
6.36
12.31
20.74
26.58
25.91
18.27
7.05
-2.45
-5.89
-2.19
5.94
13.75
17.13
14.75
8.50
2.10
-1.35
-1.24
0.37
0.20
-3.91
-11.38
-19.01
-22.76
-20.31
-12.68
-3.84
1.38
0.00
-7.18
-16.04
-21.35
-19.61
-10.99
0.69
10.24
13.90
11.26
5.41
0.80
0.59
4.83
10.34
12.79
9.43
0.83
-9.30
-16.13
-16.53
-10.80
-2.43
4.02
5.66
2.81
-1.26
-2.49
1.50
9.80
18.74
24.01
23.16
17.03
9.40
4.65
5.29
10.53
16.56
18.90
15.03
5.85
-4.63
-11.74
-12.74
-8.45
-2.62
0.28
-2.14
-8.83
-16.00
-19.49
-17.33
-10.91
-4.14
-1.09
-3.44
-9.66
-15.71
-17.66
-13.90
-6.20
1.19
4.03
0.62
-7.23
-15.03
-18.21
-14.84
-6.66
1.67
5.42
2.61
-4.83
-12.06
-14.36
-9.95
-1.27
6.61
8.94
4.18
-4.99
-13.32
-15.93
-11.17
-1.30
8.80
14.59
14.24
9.50
4.52
3.32
7.43
15.19
22.76
26.44
24.83
19.65
14.55
12.88
15.52
20.21
22.83
19.94
11.17
-0.40
-9.72
-12.75
-8.81
-1.07
5.23
5.81
-0.29
-10.17
-18.85
-22.12
-18.89
-11.85
-5.67
-4.15
-8.05
-14.71
-19.64
-19.37
-13.48
-4.81
2.13
3.94
0.32
-5.78
-9.90
-8.74
-2.22
6.55
13.03
13.98
9.47
2.80
-1.30
0.45
8.02
18.01
25.52
27.02
22.26
14.34
7.73
5.54
7.86
11.70
12.93
8.80
-0.42
-11.49
-20.02
-22.94
-20.29
-15.10
-11.70
-13.13
-19.27
-26.86
-31.24
-29.02
-20.18
-8.14
2.03
6.58
5.07
0.62
-2.05
0.46
8.13
17.69
24.56
25.64
21.17
14.51
10.01
10.32
14.82
19.87
21.14
16.19
6.00
-5.35
-13.10
-14.35
-9.79
-3.31
0.27
-1.98
-9.35
-17.86
-22.61
-20.61
-12.53
-2.43
4.66
5.76
1.56
-3.99
-6.13
-2.16
6.74
16.22
21.23
18.92
10.37
-0.12
-7.36
-8.34
-3.75
2.50
5.88
3.99
-2.03
-8.10
-9.85
-5.22
4.27
14.19
19.69
18.16
10.57
0.92
-6.09
-7.69
-4.47
0.11
1.90
-1.30
-8.32
-15.31
-17.96
-14.16
-5.43
3.99
9.50
9.02
4.07
-1.23
-2.81
0.68
7.09
12.08
11.90
5.75
-3.73
-11.99
-15.24
-12.69
-6.88
-2.16
-1.93
-6.60
-13.28
-17.48
-15.78
-7.88
3.15
12.44
15.95
12.59
4.68
-3.42
-7.80
-7.08
-3.06
0.45
0.04
-5.20
-13.07
-19.39
-20.43
-15.13
-5.75
3.40
8.43
8.11
4.46
1.52
2.77
9.07
18.03
25.45
27.65
23.63
15.59
7.53
2.97
2.95
5.41
6.59
3.28
-4.98
-15.37
-23.34
-25.08
-19.97
-11.04
-3.36
-1.03
-4.79
-11.61
-16.40
-15.19
-7.48
3.40
12.32
15.43
12.40
6.42
2.17
2.92
8.62
16.04
20.80
19.95
13.74
5.36
-0.96
-2.47
0.51
4.86
6.61
3.38
-4.12
-12.29
-16.81
-15.11
-7.91
1.03
7.09
7.44
2.67
-3.65
-7.13
-5.31
0.94
7.69
10.50
7.03
-1.43
-10.61
-15.72
-14.34
-7.88
-0.82
1.90
-2.12
-11.27
-20.72
-25.06
-21.40
-10.90
1.91
11.73
15.46
13.71
10.17
9.10
12.70
19.62
25.92
27.35
22.11
12.06
1.80
-3.96
-3.15
2.45
8.15
9.19
3.53
-6.90
-17.34
-22.97
-21.71
-15.34
-8.30
-5.05
-7.28
-13.03
-17.92
-17.90
-11.72
-1.72
7.45
11.46
8.85
1.79
-5.12
-7.50
-3.60
4.74
13.19
17.48
15.79
9.65
2.95
-0.48
0.85
5.30
9.10
8.78
3.29
-5.25
-12.80
-15.65
-12.61
-5.65
1.37
4.97
4.07
0.50
-2.14
-0.87
4.87
12.67
18.56
19.38
14.61
6.80
0.17
-1.91
1.25
7.17
11.66
11.24
5.14
-4.21
-12.55
-16.19
-14.10
-8.40
-3.13
-1.82
-5.54
-12.18
-17.85
-19.11
-14.98
-7.57
-0.81
1.94
0.01
-4.28
-6.95
-4.86
2.20
11.12
17.21
16.89
9.91
-0.33
-8.61
-10.82
-6.17
2.37
10.02
12.99
10.63
5.58
2.00
2.83
7.83
13.71
15.94
11.71
1.56
-10.52
-19.22
-20.77
-14.99
-5.24
3.40
7.02
4.99
0.00
-3.73
-3.07
1.99
8.29
11.40
8.32
-0.66
-11.85
-20.26
-22.28
-17.81
-10.32
-4.79
-4.79
-10.35
-17.91
-22.34
-20.07
-11.16
0.65
10.04
13.39
10.58
5.08
1.63
3.40
10.16
18.60
24.34
24.50
19.31
11.74
5.64
3.39
4.66
6.64
5.84
0.48
-8.34
-17.01
-21.43
-19.54
-12.62
-4.92
-1.20
-3.95
-11.80
-20.22
-23.93
-20.03
-9.56
3.01
12.29
15.12
11.94
6.47
3.25
4.98
10.99
17.81
21.45
19.95
14.58
8.97
6.97
9.98
16.15
21.23
21.16
14.60
3.82
-6.39
-11.50
-9.85
-3.55
2.58
3.91
-1.52
-11.70
-21.91
-27.43
-26.13
-19.60
-12.07
-7.87
-8.74
-13.06
-16.85
-16.36
-10.46
-1.37
6.62
9.69
6.93
0.85
-4.03
-3.90
2.04
11.10
18.55
20.35
15.49
6.60
-1.53
-4.61
-1.16
6.66
14.38
17.77
15.00
7.65
-0.34
-5.04
-4.61
-0.35
4.15
5.19
1.18
-6.36
-13.69
-17.00
-14.74
-8.51
-2.02
0.99
-0.79
-5.58
-9.61
-9.55
-4.60
2.97
9.03
10.12
5.52
-2.28
-8.93
-10.80
-6.97
0.18
6.48
8.48
5.46
-0.18
-4.39
-4.04
1.26
8.72
14.04
13.96
8.14
-0.36
-6.97
-8.07
-3.15
4.86
11.40
12.83
8.57
1.42
-4.07
-4.34
1.03
9.01
14.78
14.72
8.57
-0.30
-6.80
-7.22
-1.34
7.39
13.99
14.80
9.65
1.77
-4.15
-4.91
-0.56
5.61
9.19
7.44
0.83
-7.12
-12.00
-11.10
-5.07
2.41
6.77
5.17
-1.71
-10.14
-15.43
-14.66
-8.44
-0.55
4.25
3.03
-3.60
-11.77
-16.68
-15.34
-8.43
0.06
5.07
3.32
-4.74
-15.27
-23.20
-25.02
-20.68
-13.48
-7.99
-7.30
-11.11
-16.07
-17.77
-13.59
-4.52
5.32
10.98
9.63
2.51
-5.67
-9.52
-5.97
3.71
14.70
21.32
20.30
12.64
2.85
-3.68
-3.67
2.29
10.55
16.66
17.94
14.91
10.60
8.49
10.47
15.59
20.75
22.53
19.25
12.08
4.41
0.04
0.92
6.06
12.08
15.21
13.52
8.15
2.55
0.41
3.30
9.50
15.00
15.90
10.83
1.95
-6.29
-9.70
-6.88
-0.07
6.17
7.57
2.66
-6.47
-15.33
-19.61
-17.52
-10.73
-3.26
0.89
-0.08
-4.83
-9.92
-11.95
-9.84
-5.32
-2.02
-3.09
-9.15
-17.51
-23.71
-23.91
-17.25
-6.64
2.82
6.59
3.09
-5.30
-13.83
-18.01
-16.20
-10.39
-4.91
-3.70
-7.93
-15.33
-21.56
-22.84
-18.30
-10.48
-3.75
-1.71
-5.06
-11.13
-15.61
-15.06
-9.09
-0.47
6.55
8.79
5.99
1.06
-1.68
0.84
8.69
18.50
25.52
26.17
20.16
10.71
2.68
-0.04
3.22
9.73
14.95
15.36
10.45
2.92
-2.83
-3.43
1.51
9.07
14.81
15.28
10.04
1.85
-4.91
-6.67
-2.73
4.49
10.85
12.95
9.88
3.78
-1.71
-3.62
-1.48
2.43
4.59
2.57
-3.23
-9.68
-12.54
-9.13
-0.06
10.87
18.58
19.58
13.94
5.19
-1.81
-3.61
-0.10
5.55
9.03
7.45
1.12
-6.68
-11.71
-11.18
-5.52
2.00
7.22
7.49
3.24
-2.32
-5.18
-3.01
3.42
10.63
14.40
12.28
5.13
-3.40
-8.76
-8.10
-1.91
6.30
11.91
11.84
6.26
-1.54
-7.19
-7.66
-3.16
3.06
6.64
4.78
-2.02
-10.20
-15.24
-14.37
-8.24
-0.58
4.24
3.79
-0.99
-6.37
-8.27
-4.75
2.71
10.11
13.16
9.91
1.88
-6.75
-11.55
-10.32
-4.31
2.68
6.48
5.10
-0.18
-5.53
-7.12
-3.33
4.05
10.84
13.00
8.98
0.73
-7.49
-11.61
-10.15
-4.93
-0.03
0.79
-3.81
-11.88
-19.26
-22.10
-18.94
-11.72
-4.60
-1.66
-4.60
-11.73
-18.97
-22.25
-19.83
-13.21
-6.13
-2.18
-2.46
-5.07
-6.24
-2.94
5.07
14.87
21.93
22.71
16.84
7.33
-0.98
-4.00
-0.54
7.15
14.63
17.80
14.93
7.54
-0.65
-5.85
-6.39
-3.54
-0.63
-0.80
-4.97
-11.23
-15.91
-15.96
-10.99
-3.60
2.05
2.79
-1.53
-7.79
-11.52
-9.40
-1.34
9.37
17.98
20.88
17.66
11.26
6.22
6.14
11.54
19.75
26.42
28.05
24.05
17.01
11.03
9.35
12.27
16.97
19.14
15.69
6.69
-4.44
-12.70
-14.48
-9.56
-1.44
4.62
4.60
-2.07
-12.16
-20.58
-23.22
-19.29
-11.56
-4.71
-2.46
-5.55
-11.36
-15.62
-14.87
-8.63
0.44
8.14
11.16
9.19
4.97
2.48
4.41
10.26
16.55
18.90
14.76
5.16
-5.70
-12.82
-13.30
-7.98
-1.07
2.28
-1.10
-10.48
-21.70
-29.36
-29.83
-23.23
-13.26
-5.09
-2.38
-5.12
-9.87
-11.91
-8.35
-0.03
8.74
12.75
9.14
-0.72
-11.79
-18.21
-16.61
-8.01
2.88
10.48
11.51
6.83
0.69
-1.96
1.58
10.15
19.59
25.22
24.64
19.13
12.70
9.62
11.82
17.68
22.98
23.58
17.81
7.66
-2.31
-7.63
-6.36
-0.23
6.44
9.18
5.92
-1.99
-10.58
-15.72
-15.47
-11.10
-6.36
-5.12
-9.03
-16.51
-23.55
-26.08
-22.40
-14.25
-5.86
-1.43
-2.70
-7.78
-12.37
-12.28
-5.96
4.47
14.39
19.41
17.85
11.59
4.97
1.98
4.03
9.13
13.13
12.31
5.62
-4.64
-13.98
-18.23
-15.97
-9.06
-1.77
1.73
-0.20
-5.85
-11.28
-12.63
-8.50
-0.82
6.29
8.96
5.88
-0.72
-6.39
-6.99
-1.12
8.89
18.27
22.54
20.00
12.68
5.20
2.06
5.11
12.70
20.73
25.07
23.94
18.60
12.42
8.61
8.14
9.26
8.76
4.19
-4.34
-13.90
-20.41
-20.98
-15.89
-8.68
-4.36
-6.49
-15.14
-26.59
-35.29
-36.95
-30.77
-19.90
-9.53
-3.93
-4.21
-7.99
-11.04
-10.00
-4.46
2.93
8.05
7.92
2.66
-4.58
-9.24
-8.03
-0.77
9.31
17.48
20.14
16.77
10.26
5.00
4.47
9.16
16.56
22.68
24.46
21.41
15.76
10.87
9.17
10.77
13.33
13.67
9.71
1.89
-6.94
-13.09
-14.20
-10.76
-5.90
-3.72
-6.75
-14.30
-22.70
-27.34
-25.40
-17.49
-7.49
-0.36
0.73
-3.80
-10.25
-13.87
-11.66
-4.08
5.32
11.97
13.13
9.35
4.23
2.04
5.15
12.60
20.38
23.95
20.91
12.60
3.43
-1.62
0.14
7.42
15.71
19.72
16.52
7.09
-4.20
-12.15
-13.74
-9.71
-3.97
-1.03
-3.34
-9.84
-16.65
-19.54
-16.41
-8.57
0.16
5.60
5.74
1.77
-2.67
-3.87
-0.25
6.57
12.65
14.05
9.27
0.26
-8.57
-12.82
-10.67
-3.99
2.75
4.99
1.00
-7.21
-14.76
-16.70
-10.98
0.48
12.44
19.35
18.19
9.95
-1.00
-9.48
-12.33
-9.81
-5.06
-1.87
-2.17
-4.90
-6.75
-4.63
2.09
10.86
17.23
17.54
11.22
1.45
-6.65
-8.88
-4.41
3.55
9.56
9.15
1.37
-10.51
-20.86
-24.69
-20.56
-11.08
-1.52
3.40
1.98
-3.50
-8.43
-8.48
-2.23
8.10
18.02
23.28
22.19
16.26
9.24
4.65
3.83
5.37
6.08
3.17
-3.93
-12.91
-19.90
-21.63
-17.33
-9.31
-1.67
2.05
0.89
-3.07
-5.99
-4.68
1.40
9.70
16.00
16.95
12.00
3.91
-2.90
-4.83
-1.28
4.96
9.39
8.36
1.32
-8.81
-17.21
-19.94
-16.21
-8.64
-1.79
0.68
-1.93
-6.94
-10.07
-7.99
-0.47
9.46
17.17
19.18
15.27
8.59
3.81
4.25
9.92
17.36
21.72
19.70
11.54
0.95
-6.86
-8.29
-3.39
4.24
9.51
8.86
2.25
-6.88
-13.72
-14.95
-10.66
-4.22
-0.31
-2.05
-9.18
-18.11
-24.01
-23.69
-17.48
-9.04
-3.13
-2.92
-8.02
-14.72
-18.22
-15.44
-6.90
3.54
10.90
12.01
7.26
0.39
-3.82
-2.21
4.89
14.09
21.05
23.00
20.30
15.96
13.69
15.40
20.06
24.25
24.41
19.11
10.15
1.61
-2.35
0.01
6.88
13.88
16.53
12.75
4.05
-5.37
-11.12
-11.05
-6.37
-0.94
1.20
-1.79
-8.51
-15.10
-17.66
-14.57
-7.64
-1.09
0.78
-3.81
-13.05
-22.43
-27.29
-25.34
-17.89
-9.08
-3.34
-2.92
-6.69
-11.01
-12.00
-7.86
0.04
8.11
12.71
12.28
8.24
4.07
3.09
6.47
12.46
17.42
17.88
12.70
3.87
-4.63
-8.95
-7.56
-2.27
2.80
3.52
-1.76
-11.11
-19.88
-23.33
-19.35
-9.79
0.44
6.24
5.26
-0.83
-7.39
-9.73
-5.83
2.39
10.53
14.46
12.79
7.73
3.37
3.10
7.46
13.55
16.97
14.36
5.49
-6.34
-16.11
-19.73
-16.24
-8.32
-0.74
2.45
0.24
-4.80
-8.07
-5.90
2.21
13.10
21.59
23.54
18.19
8.58
-0.16
-3.81
-1.36
4.36
8.64
7.65
0.72
-9.11
-17.01
-19.05
-14.56
-6.47
0.34
1.82
-2.93
-11.21
-18.39
-20.74
-17.54
-11.52
-7.05
-7.43
-12.74
-19.60
-23.19
-20.09
-10.51
1.69
11.02
13.62
9.41
2.17
-2.78
-1.79
5.07
14.01
20.01
19.80
13.92
6.28
1.80
3.43
10.32
18.41
22.73
20.40
12.28
2.45
-4.04
-4.09
1.95
10.53
17.05
18.44
14.81
9.15
5.35
5.83
10.02
14.80
16.42
12.83
4.96
-3.64
-8.83
-8.18
-2.37
5.29
10.61
10.96
6.63
0.56
-3.59
-3.53
0.15
4.45
5.67
1.72
-6.50
-15.56
-21.41
-21.81
-17.68
-12.48
-10.29
-13.20
-19.95
-26.54
-28.44
-23.22
-12.10
0.60
9.80
12.30
8.46
1.92
-2.59
-1.88
3.98
11.86
17.53
18.16
13.97
7.91
3.79
3.86
7.32
10.92
10.96
5.65
-3.50
-12.58
-17.37
-16.03
-10.20
-4.20
-2.46
-6.94
-15.83
-24.46
-28.02
-24.11
-14.09
-2.29
6.63
10.14
8.95
6.43
6.24
10.13
16.92
23.26
25.81
23.30
17.32
11.32
8.59
10.21
14.25
16.89
14.63
6.60
-4.60
-14.23
-17.96
-14.55
-6.63
0.48
1.83
-4.40
-15.75
-26.81
-32.18
-29.53
-20.74
-10.75
-4.59
-4.48
-8.72
-12.88
-12.65
-6.47
3.53
12.88
17.37
15.61
9.75
4.03
2.23
5.42
11.37
15.98
15.74
9.89
0.94
-6.78
-9.68
-7.04
-1.49
2.48
1.21
-5.82
-15.49
-22.76
-23.40
-16.57
-5.38
4.88
9.75
8.11
2.78
-1.28
-0.03
7.14
16.93
24.02
24.11
16.47
4.49
-6.28
-11.19
-8.95
-2.15
4.42
6.65
3.46
-2.64
-7.35
-7.08
-1.12
7.91
15.69
18.65
15.97
10.12
5.11
4.14
7.55
12.56
14.88
11.44
2.45
-8.70
-17.05
-19.18
-15.07
-8.34
-4.01
-5.62
-13.05
-22.45
-28.57
-27.74
-20.03
-9.10
-0.05
3.47
1.31
-3.32
-5.98
-3.76
3.05
10.99
15.66
14.41
8.03
0.37
-3.83
-1.67
6.04
15.32
21.12
20.23
13.21
4.04
-2.12
-1.94
4.25
12.69
18.58
18.84
13.91
7.34
3.41
4.49
9.48
14.46
15.09
9.41
-0.85
-11.10
-16.52
-14.82
-7.62
0.43
4.32
1.48
-6.62
-15.56
-20.47
-18.86
-12.11
-4.51
-0.70
-2.94
-9.83
-17.22
-20.80
-18.56
-12.13
-5.66
-3.33
-6.74
-13.80
-19.95
-20.78
-14.70
-3.91
6.79
12.76
12.18
7.08
2.06
1.53
7.09
16.65
25.63
29.74
27.33
20.24
12.53
8.01
7.99
10.60
12.01
8.84
0.37
-10.82
-20.22
-23.90
-20.87
-13.75
-7.42
-6.16
-11.19
-19.59
-26.03
-25.63
-16.95
-2.90
10.67
18.34
17.90
11.59
4.66
2.05
5.77
13.83
21.63
24.76
21.59
14.08
6.44
2.53
3.67
7.98
11.50
10.74
4.62
-4.74
-13.25
-17.27
-15.68
-10.57
-5.95
-5.26
-9.26
-15.39
-19.29
-17.44
-9.49
1.41
10.19
12.84
8.60
0.51
-6.44
-8.17
-3.91
3.35
8.78
8.40
1.58
-8.63
-17.16
-19.81
-15.75
-7.93
-1.32
0.16
-4.04
-10.70
-14.80
-12.68
-4.33
6.45
14.27
15.27
9.55
1.01
-4.84
-4.06
3.35
13.58
21.25
22.53
17.25
8.94
2.66
2.19
7.93
16.81
24.21
26.64
23.65
17.78
12.83
11.33
12.94
14.68
12.76
5.19
-6.75
-18.98
-26.83
-27.62
-22.28
-14.84
-10.15
-11.15
-17.12
-24.35
-28.20
-26.00
-18.51
-9.55
-3.69
-3.59
-8.36
-14.13
-16.27
-12.16
-2.76
7.93
15.17
16.22
11.86
5.80
2.39
3.99
9.58
15.53
17.83
14.59
7.33
-0.07
-3.64
-1.73
4.04
9.77
11.56
7.94
0.67
-6.28
-8.96
-5.73
1.86
9.93
14.49
13.51
8.02
1.50
-2.10
-0.46
5.68
13.04
17.48
16.32
9.82
1.05
-5.89
-8.21
-6.08
-2.29
-0.73
-3.95
-11.41
-19.99
-25.70
-26.27
-22.56
-18.20
-17.24
-21.37
-28.56
-33.89
-32.49
-22.63
-7.18
7.67
15.70
14.28
5.63
-4.37
-9.71
-7.60
0.36
9.63
15.73
16.87
14.57
12.37
13.24
17.93
24.34
29.04
29.14
24.09
16.21
9.50
7.57
11.74
20.18
28.61
32.61
29.88
21.59
11.64
4.48
2.57
4.95
7.86
7.17
0.90
-9.57
-20.09
-26.23
-25.95
-20.77
-14.86
-12.58
-15.82
-22.89
-29.46
-31.27
-26.69
-17.76
-9.12
-5.12
-7.30
-13.41
-18.71
-18.99
-13.06
-3.57
4.58
7.25
3.61
-3.41
-8.75
-8.36
-1.67
7.99
15.32
16.31
10.57
1.61
-5.32
-6.22
-0.83
7.43
13.42
13.42
7.23
-1.64
-8.11
-8.36
-2.10
7.25
14.46
15.56
10.04
1.12
-6.03
-7.24
-1.63
8.02
16.86
20.79
18.76
13.12
8.06
7.04
10.65
16.25
19.68
17.70
10.01
-0.30
-8.65
-11.39
-8.06
-1.68
2.87
1.71
-5.61
-15.66
-23.15
-24.02
-18.03
-9.02
-2.67
-3.16
-10.56
-20.80
-28.11
-28.50
-22.21
-13.40
-7.64
-8.36
-14.79
-22.26
-25.16
-20.21
-8.46
5.14
14.66
16.40
11.02
3.10
-1.54
0.89
10.01
21.57
30.04
31.65
26.53
18.36
12.18
11.39
15.74
21.66
24.51
21.43
13.12
3.57
-2.38
-1.83
4.51
12.72
18.01
17.54
11.98
4.98
0.72
1.45
5.95
10.42
10.77
5.13
-4.84
-14.99
-20.92
-20.52
-15.08
-8.53
-5.13
-7.11
-13.40
-20.41
-24.10
-22.32
-16.08
-8.95
-4.92
-6.09
-11.27
-16.73
-18.32
-14.12
-5.70
2.64
6.31
3.27
-4.61
-12.49
-15.43
-11.08
-1.24
9.34
15.67
15.37
9.96
3.79
1.47
5.18
13.50
22.22
26.87
25.31
18.86
11.45
7.11
7.61
11.16
13.66
11.17
2.55
-9.50
-19.92
-24.11
-20.76
-12.78
-5.71
-4.50
-10.66
-21.31
-30.73
-33.65
-28.08
-16.42
-3.86
4.49
6.39
3.38
-0.53
-1.40
2.18
8.61
14.34
16.29
13.83
9.16
6.09
7.59
13.97
22.37
28.36
28.32
21.65
11.26
2.05
-1.70
1.40
9.14
16.96
20.65
18.48
12.05
5.14
1.30
1.83
5.06
7.62
6.55
1.21
-6.25
-12.20
-13.64
-10.27
-4.59
-0.74
-1.95
-8.57
-17.72
-24.79
-26.08
-20.87
-11.85
-3.54
0.36
-0.96
-5.14
-8.24
-7.29
-2.22
4.11
7.61
5.51
-1.85
-11.07
-17.60
-18.31
-13.30
-5.94
-0.76
-0.91
-6.25
-13.45
-18.06
-17.05
-10.90
-3.25
1.15
-0.73
-8.35
-17.70
-23.59
-22.45
-14.38
-3.00
6.56
10.54
8.59
3.67
0.28
1.76
8.33
17.08
23.72
25.15
21.30
15.10
10.61
10.68
15.13
20.90
23.94
21.61
14.41
5.61
-0.59
-1.61
1.96
6.62
7.96
3.40
-6.27
-16.99
-23.76
-23.31
-16.01
-5.67
2.57
5.12
1.93
-3.77
-7.42
-6.02
0.07
7.30
11.06
8.52
0.46
-9.01
-14.76
-13.54
-6.03
3.69
10.42
11.00
6.13
-0.14
-2.87
0.65
9.27
18.70
24.10
22.78
15.76
6.93
0.64
-0.73
1.96
5.35
5.61
0.80
-8.02
-17.40
-23.33
-23.60
-18.96
-12.79
-9.06
-10.08
-15.04
-20.58
-22.72
-19.41
-11.76
-3.37
1.76
1.77
-2.11
-6.30
-7.15
-3.26
3.62
9.64
11.16
6.96
-0.83
-7.87
-10.02
-5.77
2.91
11.44
15.32
12.49
4.59
-3.94
-8.50
-6.91
-0.61
6.33
9.80
8.15
3.10
-1.46
-1.99
2.39
9.36
14.73
14.99
9.40
0.58
-7.09
-9.87
-6.70
0.17
6.66
9.26
7.06
2.25
-1.32
-0.43
5.36
13.30
18.94
18.91
12.95
4.27
-2.18
-2.54
3.81
13.75
22.29
25.32
21.76
14.08
6.69
3.36
5.03
9.46
12.60
11.22
4.68
-4.51
-12.17
-14.86
-11.82
-5.34
0.56
2.42
-0.72
-6.92
-12.63
-14.74
-12.37
-7.39
-3.14
-2.40
-5.65
-10.71
-14.13
-13.30
-8.26
-1.93
1.49
-0.95
-9.05
-19.38
-26.99
-28.29
-22.92
-14.07
-6.55
-4.08
-7.24
-13.26
-17.90
-17.84
-12.76
-5.32
0.50
1.81
-1.38
-6.16
-8.47
-5.49
2.55
12.32
19.19
19.95
14.63
6.61
0.65
0.19
5.38
13.02
18.59
18.99
14.44
8.34
5.10
7.27
13.89
20.80
23.24
18.68
8.48
-2.74
-9.77
-9.61
-3.26
5.04
10.18
9.11
2.45
-6.09
-11.97
-12.46
-8.05
-2.04
1.65
0.75
-4.07
-9.63
-12.39
-10.51
-5.06
0.61
2.82
-0.13
-6.84
-13.48
-15.92
-12.17
-3.45
6.28
12.53
12.78
7.80
1.17
-2.89
-1.88
3.68
10.68
15.36
15.65
12.29
8.19
6.53
8.69
13.34
17.25
17.30
12.40
4.35
-3.12
-6.49
-4.47
1.15
6.45
7.63
3.10
-5.60
-14.47
-19.39
-18.26
-12.20
-4.93
-0.62
-1.57
-6.82
-12.84
-15.65
-13.48
-7.86
-2.87
-2.54
-8.17
-17.31
-24.89
-26.23
-19.86
-8.51
2.44
8.09
6.67
0.55
-5.49
-7.15
-2.96
4.95
12.42
15.78
13.93
8.84
4.25
3.31
6.85
12.77
17.28
17.13
11.43
2.39
-5.89
-9.54
-7.10
-0.28
6.96
10.72
9.39
4.38
-0.76
-2.54
0.32
6.08
11.13
12.06
7.74
0.09
-7.04
-9.99
-7.41
-1.05
5.32
8.14
6.11
0.98
-3.62
-4.47
-0.77
5.33
10.03
10.16
5.25
-2.10
-7.67
-8.16
-3.12
4.55
10.27
10.31
3.97
-5.99
-14.82
-18.46
-15.70
-8.89
-2.48
-0.39
-3.78
-10.41
-16.09
-17.27
-13.23
-6.53
-1.47
-1.49
-6.96
-14.89
-20.49
-19.92
-12.60
-1.58
8.22
12.71
10.95
5.65
1.39
1.99
8.15
17.23
24.86
27.62
24.99
19.48
15.04
14.46
17.60
21.54
22.37
17.68
8.33
-1.90
-8.38
-8.30
-2.42
5.21
9.55
7.45
-0.51
-10.29
-16.83
-16.96
-11.26
-3.67
1.05
0.23
-5.15
-11.17
-13.49
-10.09
-2.80
3.89
5.41
-0.12
-10.70
-21.49
-27.49
-26.20
-19.04
-10.19
-4.34
-4.16
-8.95
-15.28
-19.08
-18.04
-12.75
-6.43
-2.82
-3.96
-8.99
-14.45
-16.39
-12.70
-4.46
4.61
10.20
10.02
5.12
-0.78
-3.46
-0.80
5.92
12.83
15.81
13.00
6.03
-0.83
-3.29
0.61
9.11
17.87
22.40
20.74
14.47
7.81
5.10
8.19
15.45
22.72
25.75
22.69
15.03
6.59
1.30
0.86
3.96
7.17
6.97
1.95
-6.27
-14.02
-17.61
-15.55
-9.58
-3.68
-1.79
-5.43
-12.66
-19.08
-20.38
-14.94
-4.88
5.05
10.21
8.79
2.71
-3.55
-5.68
-2.04
5.51
13.03
16.80
15.59
11.22
7.20
6.54
9.82
14.89
18.10
16.60
9.97
0.72
-7.08
-10.02
-7.31
-1.19
4.26
5.45
1.37
-5.86
-12.22
-14.17
-10.90
-4.96
-0.73
-1.81
-8.67
-18.05
-24.93
-25.31
-18.79
-8.94
-1.27
-0.05
-5.84
-15.15
-22.45
-23.44
-17.44
-7.63
0.86
4.15
1.69
-3.59
-7.21
-5.88
0.46
8.72
14.48
14.76
9.78
2.89
-1.33
0.21
7.32
16.44
22.74
22.80
16.56
7.57
0.86
0.27
6.15
15.24
22.56
24.29
19.90
12.23
5.67
3.38
5.47
8.96
9.78
5.40
-3.52
-13.40
-19.78
-19.95
-14.62
-7.49
-3.24
-4.80
-11.69
-20.30
-25.93
-25.44
-19.01
-10.10
-3.37
-1.92
-5.64
-11.21
-14.32
-12.18
-5.41
2.47
7.15
6.22
0.68
-5.65
-8.43
-5.47
2.03
10.04
14.14
12.10
5.15
-2.77
-7.30
-6.11
-0.17
6.90
10.97
9.86
4.47
-1.79
-5.19
-3.87
0.95
5.69
6.50
1.70
-7.22
-16.41
-22.00
-22.33
-18.90
-15.43
-15.66
-21.10
-30.26
-39.53
-45.39
-46.68
-45.13
-44.35
-47.61
-55.71
-66.57
-76.23
-81.22
-80.70
-76.90
-73.93
-75.31
-81.81
-90.80
-97.70
-97.80
-87.97
-67.35
-37.01
1.01
44.28
90.35
136.92
181.50
222.64
260.55
296.57
332.25
367.70
400.27
424.52
435.01
425.73
392.01
332.02
247.60
144.95
34.01
-73.71
-168.13
-242.50
-295.82
-331.88
-356.35
-373.49
-384.65
-386.77
-374.59
-343.73
-292.76
-226.28
-154.73
-91.06
-47.37
-30.90
-41.45
-71.37
-108.36
-140.50
-161.01
-169.77
-171.66
-172.77
-176.74
-183.33
-189.69
-192.94
-192.09
-188.18
-182.43
-174.32
-161.17
-139.16
-105.62
-61.22
-10.30
40.13
82.69
112.32
127.87
132.29
131.49
132.36
140.68
159.35
187.28
219.52
248.64
267.14
270.12
257.16
232.50
203.39
177.09
158.19
147.39
142.36
139.92
138.29
138.01
141.13
149.46
162.92
178.92
193.22
201.38
199.93
186.85
161.33
124.15
78.32
30.09
-11.42
-36.55
-39.32
-20.98
9.14
36.52
47.30
33.74
-2.98
-54.06
-107.31
-151.45
-178.44
-183.63
-164.92
-122.73
-61.12
11.01
80.70
134.00
160.19
155.29
122.94
72.36
14.96
-39.09
-82.73
-112.55
-128.45
-132.88
-129.94
-123.81
-116.94
-108.50
-94.35
-69.19
-30.04
20.76
75.13
121.31
147.92
147.80
120.09
70.11
7.68
-55.16
-106.44
-136.24
-138.74
-114.01
-68.83
-15.64
30.40
55.78
53.05
23.39
-23.65
-73.08
-108.91
-119.02
-98.77
-52.35
8.57
68.36
112.18
130.18
119.96
86.52
39.70
-9.38
-51.50
-81.06
-96.00
-96.65
-84.71
-62.64
-33.72
-2.00
27.93
51.79
66.49
70.67
64.87
51.40
33.79
16.03
1.36
-8.91
-16.17
-24.00
-36.02
-53.26
-72.17
-84.91
-82.37
-58.36
-13.23
45.11
103.73
149.16
171.85
168.43
141.43
97.19
43.51
-11.71
-60.85
-96.59
-112.39
-103.75
-70.12
-16.18
48.73
112.76
164.74
197.01
206.53
194.24
163.39
118.12
63.04
3.71
-53.10
-100.40
-132.94
-149.58
-154.13
-153.82
-155.89
-164.42
-178.15
-191.02
-195.09
-183.96
-156.54
-118.69
-81.51
-57.40
-54.76
-74.12
-107.30
-140.17
-158.62
-154.26
-126.62
-81.53
-27.30
28.85
81.48
125.98
157.63
172.58
170.34
155.99
139.56
132.23
141.45
167.59
204.01
240.27
266.33
275.14
263.24
229.79
175.84
104.67
22.67
-60.95
-135.90
-194.28
-233.33
-256.20
-270.62
-285.08
-304.58
-328.01
-348.36
-356.83
-347.16
-320.05
-282.80
-246.18
-219.31
-205.90
-203.39
-205.46
-205.32
-198.27
-182.18
-155.68
-117.22
-65.11
0.41
74.85
149.48
213.95
260.82
288.39
301.72
309.13
317.54
328.68
338.89
342.50
336.18
321.64
304.19
290.78
286.07
290.20
299.46
308.52
313.45
312.65
306.09
293.65
274.48
246.94
209.67
164.38
113.37
60.14
8.45
-38.63
-79.51
-113.96
-142.63
-166.21
-184.81
-197.99
-204.73
-204.29
-196.54
-182.82
-165.40
-146.74
-128.64
-111.69
-95.79
-79.99
-63.29
-45.21
-26.35
-7.79
9.67
25.86
41.05
55.46
68.96
80.60
88.80
91.48
86.01
69.70
40.40
-2.40
-56.47
-116.20
-173.29
-217.09
-239.82
-239.56
-221.03
-193.52
-166.80
-147.59
-137.65
-134.60
-134.45
-134.36
-133.67
-133.35
-134.84
-138.65
-144.24
-150.20
-154.67
-155.87
-152.72
-144.17
-128.55
-104.41
-70.16
-26.13
24.15
74.25
116.82
146.35
161.41
165.40
164.92
166.54
174.00
187.24
203.57
219.67
232.84
241.32
243.80
238.56
223.21
195.83
155.22
102.79
43.46
-14.71
-62.75
-93.90
-105.63
-101.51
-89.76
-79.65
-77.39
-84.15
-96.76
-110.37
-121.26
-128.37
-132.97
-136.87
-140.83
-143.87
-144.11
-140.12
-131.88
-121.08
-110.00
-100.63
-94.02
-89.96
-87.19
-84.19
-79.75
-73.49
-65.96
-58.32
-51.97
-47.96
-46.60
-47.12
-47.90
-46.83
-41.93
-32.08
-17.52
0.15
18.47
35.10
48.78
59.79
69.65
80.18
92.27
105.31
117.51
126.93
132.40
133.83
131.68
126.16
117.00
103.89
87.69
71.23
59.02
55.64
63.50
81.19
103.55
124.08
138.16
145.47
150.02
157.37
170.51
186.94
199.57
200.74
187.21
162.49
134.84
111.48
93.01
72.26
39.02
-12.08
-75.83
-137.09
-178.30
-189.16
-172.75
-143.91
-121.13
-116.89
-132.15
-157.65
-180.45
-191.22
-188.04
-175.35
-159.49
-144.35
-129.46
-111.46
-87.15
-56.06
-20.95
13.28
41.94
62.49
75.40
83.40
89.78
96.84
104.82
112.03
115.97
114.65
107.68
96.43
83.40
71.11
61.10
53.53
47.42
41.33
34.20
25.83
16.89
8.45
1.51
-3.53
-6.88
-9.18
-11.20
-13.41
-15.92
-18.50
-20.77
-22.48
-23.53
-24.02
-24.15
-24.12
-24.03
-23.92
-23.76
-23.50
-23.13
-22.65
-22.07
-21.43
-20.72
-19.98
-19.20
-18.40
-17.58
-16.75
-15.91
-15.07
-14.24
-13.43
-12.58
-11.72
-10.89
-10.10
-9.34
-8.63
-7.97
-7.35
-6.78
-6.25
-5.77
-5.34
-4.95
-4.59
-4.26
-3.96
-3.69
-3.44
-3.20
-3.00
-2.81
-2.65
-2.49
-2.35
-2.22
-2.09
-1.98
-1.87
-1.78
-1.69
-1.62
-1.54
-1.47
-1.40
-1.34
-1.29
-1.25
-1.20
-1.14
-1.06
-0.99
-0.94
-0.94
-1.03
-1.17
-1.36
-1.52
-1.61
-1.62
-1.56
-1.49
-1.47
-1.54
-1.70
-1.91
-2.08
-2.17
-2.12
-2.02
-1.93
-1.96
-2.22
-2.66
-3.19
-3.64
-3.86
-3.78
-3.52
-3.33
-3.49
-4.20
-5.43
-6.89
-8.17
-8.86
-8.83
-8.32
-7.88
-8.14
-9.53
-11.99
-14.96
-17.59
-19.10
-19.18
-18.25
-17.28
-17.38
-19.30
-23.00
-27.59
-31.75
-34.42
-35.11
-34.27
-32.99
-32.42
-33.49
-36.78
-42.64
-50.80
-59.79
-66.60
-67.12
-57.70
-37.14
-7.95
24.07
52.08
70.99
79.46
79.83
76.25
72.25
69.24
66.62
63.18
58.45
53.36
49.58
48.45
50.00
53.04
55.76
56.49
54.66
50.88
46.65
43.70
43.19
45.33
49.25
53.42
56.35
57.31
56.26
53.88
51.22
49.02
47.68
47.74
49.23
52.13
55.38
56.41
51.66
37.90
14.17
-17.13
-50.71
-80.38
-101.14
-111.08
-111.49
-105.55
-96.76
-88.02
-81.43
-78.16
-78.18
-79.47
-78.17
-69.88
-51.62
-23.58
10.64
45.39
74.49
92.88
97.79
88.70
67.47
38.26
6.94
-19.94
-36.67
-40.92
-34.42
-21.61
-7.48
4.55
13.36
19.18
22.97
25.21
25.86
24.90
22.68
19.79
16.55
13.25
9.38
4.50
-1.64
-8.98
-16.81
-24.00
-29.27
-31.60
-30.54
-26.53
-20.09
-11.98
-3.01
6.22
15.27
23.71
31.07
36.77
39.78
39.75
36.58
30.50
22.09
12.05
1.06
-10.34
-19.52
-27.31
-33.79
-38.75
-41.89
-42.99
-42.18
-40.02
-37.35
-35.02
-33.97
-34.05
-34.60
-34.64
-33.34
-30.50
-26.68
-22.97
-20.62
-20.61
-22.69
-25.72
-28.19
-28.71
-26.71
-22.62
-17.66
-13.57
-12.36
-15.20
-22.20
-31.49
-39.05
-39.84
-29.42
-5.93
28.60
68.39
105.49
131.98
142.33
134.90
112.02
79.23
43.54
11.41
-12.74
-27.27
-33.04
-32.88
-29.30
-24.69
-20.62
-18.04
-17.73
-19.87
-24.00
-28.88
-32.77
-34.36
-33.62
-31.57
-30.00
-30.47
-33.45
-38.15
-43.10
-46.66
-48.00
-47.36
-45.84
-44.99
-46.40
-51.30
-59.87
-70.59
-79.92
-83.01
-75.61
-56.07
-26.80
6.16
35.56
55.74
64.90
65.13
60.70
55.51
51.46
48.30
44.91
40.67
36.08
32.42
30.64
30.73
31.57
31.80
30.21
26.59
21.72
16.84
13.17
11.26
10.93
11.30
11.31
10.08
7.35
3.44
-0.94
-4.97
-8.04
-9.94
-10.90
-11.53
-12.54
-14.52
-17.74
-22.10
-27.02
-31.74
-35.46
-37.76
-38.85
-39.52
-40.90
-43.96
-49.14
-56.01
-63.36
-69.60
-73.49
-74.75
-74.10
-72.91
-72.31
-72.70
-73.12
-71.59
-65.81
-53.72
-34.24
-7.43
25.34
61.10
95.10
121.49
134.25
130.99
113.79
88.68
63.36
43.93
32.60
27.58
25.23
22.55
19.10
16.31
15.96
18.32
21.66
23.35
21.23
14.66
4.42
-7.48
-18.19
-24.34
-22.36
-9.55
14.46
46.81
81.84
112.99
135.44
147.69
151.49
150.16
146.44
141.19
134.09
123.67
109.78
93.75
77.57
62.62
48.91
35.30
20.40
3.02
-15.82
-34.31
-50.26
-61.92
-68.62
-70.94
-70.36
-68.62
-67.13
-66.35
-66.00
-65.41
-63.92
-61.26
-57.65
-53.68
-50.00
-47.01
-44.64
-42.58
-40.26
-37.18
-33.08
-27.91
-21.84
-15.21
-8.37
-1.68
4.49
9.80
13.97
16.80
18.24
18.33
17.23
15.11
12.14
8.42
4.08
-0.68
-5.52
-9.93
-13.41
-15.60
-16.54
-16.65
-16.73
-17.57
-19.64
-22.85
-26.44
-29.45
-31.05
-31.05
-30.10
-29.51
-30.64
-34.28
-40.13
-46.79
-52.42
-55.51
-55.80
-54.36
-53.17
-53.98
-57.47
-62.54
-66.59
-66.59
-59.99
-45.49
-23.16
6.05
39.84
74.40
104.60
125.10
132.09
125.20
107.90
86.34
66.76
52.91
44.61
38.34
29.67
16.14
-0.78
-16.49
-25.50
-24.41
-13.78
2.37
19.18
33.84
46.81
60.91
77.67
94.95
106.62
105.37
86.80
52.25
8.73
-33.66
-65.82
-82.48
-82.94
-70.15
-49.39
-26.61
-6.96
4.75
5.97
-3.25
-20.87
-43.95
-69.84
-96.54
-122.00
-143.94
-160.01
-168.32
-168.68
-163.00
-154.35
-145.42
-137.29
-129.35
-118.51
-100.99
-73.43
-34.20
15.97
73.47
131.94
183.22
219.35
235.27
229.68
207.42
177.14
147.49
123.65
106.07
91.51
76.23
57.47
34.79
9.57
-16.79
-43.77
-71.63
-100.28
-128.34
-152.97
-170.61
-178.13
-173.77
-157.94
-132.33
-100.59
-66.56
-33.33
-2.70
24.51
48.05
67.78
83.28
93.99
99.43
99.79
96.00
89.56
82.01
74.68
68.35
63.11
58.61
54.22
49.53
44.47
39.27
34.28
29.82
26.07
22.99
20.37
17.92
15.47
12.97
10.49
8.13
5.94
3.98
2.27
0.75
-0.62
-1.89
-3.07
-4.14
-4.92
-5.54
-6.03
-6.42
-6.73
-6.98
-7.18
-7.32
-7.41
-7.44
-7.44
-7.38
-7.27
-7.10
-6.87
-6.61
-6.32
-6.01
-5.70
-5.41
-5.12
-4.83
-4.55
-4.31
-4.13
-4.05
-4.03
-4.06
-4.08
-4.05
-3.95
-3.80
-3.67
-3.60
-3.59
-3.63
-3.64
-3.56
-3.38
-3.10
-2.81
-2.64
-2.66
-2.91
-3.30
-3.70
-3.92
-3.88
-3.57
-3.17
-2.97
-3.18
-3.93
-5.06
-6.22
-6.99
-7.10
-6.58
-5.82
-5.42
-5.92
-7.46
-9.70
-11.90
-13.25
-13.27
-12.12
-10.61
-9.83
-10.61
-13.10
-16.56
-19.73
-21.35
-21.01
-19.14
-16.98
-15.88
-16.48
-18.68
-21.87
-25.66
-29.91
-34.19
-36.95
-35.19
-25.74
-6.78
20.38
51.30
80.04
102.00
115.89
123.49
127.36
128.18
123.70
110.22
85.76
52.44
16.56
-14.13
-34.04
-42.21
-42.04
-38.68
-36.32
-36.14
-36.80
-36.26
-33.61
-29.81
-26.93
-26.69
-29.29
-33.37
-36.75
-37.56
-35.41
-31.43
-27.72
-26.24
-27.85
-31.83
-36.32
-39.33
-39.53
-37.01
-33.09
-29.52
-27.92
-29.29
-33.89
-41.06
-48.82
-53.82
-52.09
-40.41
-18.16
11.78
43.71
71.22
89.81
98.58
99.93
97.74
95.16
93.32
91.51
88.55
84.01
78.69
73.58
69.19
65.11
60.11
52.92
42.79
30.16
16.39
2.91
-8.48
-17.09
-23.07
-27.22
-30.48
-33.50
-36.36
-38.68
-39.93
-39.65
-37.92
-35.14
-32.03
-29.23
-27.15
-25.80
-24.85
-23.92
-22.63
-20.93
-18.97
-16.98
-15.16
-13.58
-12.16
-10.75
-9.25
-7.61
-5.97
-4.41
-3.01
-1.74
-0.54
0.69
1.97
3.27
4.59
5.87
7.11
8.34
9.54
10.67
11.61
12.29
12.75
13.21
14.04
15.55
17.71
20.02
21.63
21.72
20.22
18.40
18.47
22.17
29.11
35.97
37.18
27.42
4.65
-28.85
-66.88
-101.95
-127.94
-141.29
-140.46
-124.97
-95.66
-54.86
-8.67
33.69
62.71
72.71
64.76
46.39
27.74
16.90
16.16
22.28
29.79
34.71
36.27
35.85
35.03
33.50
29.20
19.72
3.92
-17.15
-40.91
-63.92
-83.26
-96.29
-100.71
-95.13
-79.83
-57.25
-31.63
-7.68
10.99
23.24
29.86
32.50
32.57
30.37
25.82
19.10
11.67
6.03
5.02
10.55
22.39
37.22
48.82
49.92
35.92
8.28
-24.91
-51.43
-60.46
-47.76
-17.79
18.87
51.08
71.93
79.89
76.70
64.13
42.52
12.50
-22.12
-53.57
-72.60
-73.27
-56.77
-30.23
-3.84
14.42
21.79
20.68
15.76
10.84
7.31
4.70
2.26
0.02
-1.22
-0.78
1.48
4.61
7.22
8.07
6.83
4.14
1.21
-0.69
-0.75
1.01
3.77
6.34
7.66
7.32
5.66
3.57
2.02
1.68
2.62
4.36
6.10
7.13
7.12
6.24
5.03
4.12
3.97
4.66
5.93
7.26
8.17
8.35
7.86
7.05
6.40
6.33
7.02
8.33
9.86
11.10
11.70
11.60
11.15
10.89
11.38
12.86
15.15
17.69
19.72
20.70
20.52
19.65
18.90
19.11
20.65
23.43
26.74
29.70
31.44
31.50
29.84
26.90
23.62
21.44
22.40
28.26
38.97
51.61
59.95
56.91
37.53
2.01
-43.91
-90.51
-128.73
-154.01
-167.35
-173.48
-177.29
-181.00
-182.58
-180.63
-175.34
-169.10
-166.40
-169.24
-176.62
-185.16
-190.94
-191.62
-187.71
-180.60
-170.11
-152.98
-123.76
-78.73
-19.93
43.51
98.06
131.38
138.04
122.40
96.30
73.22
62.94
67.54
82.45
100.60
116.74
129.39
139.86
149.45
157.66
162.23
160.39
151.06
135.75
118.00
101.96
90.57
84.42
81.86
79.78
75.11
66.24
53.68
39.92
27.70
19.28
15.54
15.71
17.87
19.77
19.84
17.79
14.58
11.86
11.28
13.69
18.75
25.03
30.58
33.67
33.66
31.16
27.84
25.74
26.18
29.36
34.00
37.88
38.91
35.61
27.32
13.84
-4.21
-25.65
-47.85
-67.03
-79.22
-82.06
-76.10
-64.77
-53.76
-47.92
-49.42
-57.30
-68.85
-81.16
-92.81
-103.33
-112.38
-119.05
-121.34
-116.76
-103.35
-81.11
-52.21
-21.39
5.02
21.23
24.38
16.14
2.01
-10.09
-13.99
-7.84
5.54
20.76
33.07
40.58
44.28
46.49
48.89
51.38
52.48
50.69
45.74
38.86
32.06
27.35
25.54
26.07
27.39
27.79
26.18
22.56
17.88
13.51
10.52
9.25
9.24
9.54
9.23
7.87
5.62
3.12
1.01
-0.37
-1.14
-1.73
-2.60
-3.97
-5.68
-7.29
-8.39
-8.88
-9.08
-9.56
-10.86
-13.13
-15.97
-18.65
-20.36
-20.76
-20.15
-19.46
-19.79
-21.86
-25.61
-30.18
-34.23
-36.73
-37.25
-36.30
-34.97
-34.45
-35.57
-38.92
-44.79
-52.98
-62.14
-69.34
-70.46
-61.70
-41.58
-12.38
20.21
49.24
69.23
78.39
78.66
74.04
68.27
63.25
58.97
54.68
50.09
45.83
42.98
42.07
42.66
43.49
43.39
41.63
38.56
35.24
32.77
31.82
32.27
33.41
34.31
34.45
33.84
32.99
32.60
33.06
34.30
35.78
37.10
37.98
38.54
39.09
39.87
40.99
42.74
45.73
50.59
57.11
63.16
65.05
58.66
41.68
15.27
-15.96
-46.07
-70.56
-88.00
-99.42
-106.17
-107.91
-102.59
-88.29
-65.79
-39.60
-16.59
-2.97
-0.99
-8.19
-19.13
-28.52
-33.40
-34.02
-32.68
-31.72
-32.25
-33.82
-35.12
-34.92
-32.72
-28.91
-24.72
-21.35
-19.66
-19.66
-20.65
-21.38
-20.41
-16.77
-10.28
-1.74
7.76
17.00
25.51
33.40
41.50
50.88
62.17
75.38
89.96
105.56
121.11
135.60
146.48
150.06
142.91
123.68
94.80
60.50
26.91
-1.03
-21.23
-34.78
-44.34
-52.33
-59.74
-65.88
-70.79
-74.80
-79.10
-84.78
-91.87
-99.06
-104.34
-106.02
-103.62
-98.51
-92.75
-88.69
-88.47
-92.74
-101.01
-110.99
-118.65
-119.11
-108.55
-85.89
-54.14
-19.58
10.49
30.70
39.68
39.98
36.14
32.13
29.77
28.51
26.85
23.77
19.46
15.13
12.07
10.84
11.16
12.20
12.93
12.81
11.76
10.15
8.64
8.00
8.93
12.00
17.20
23.99
31.41
38.10
43.04
45.74
46.59
46.68
47.69
51.10
58.22
69.86
85.70
103.76
120.07
129.29
125.71
107.90
78.57
44.07
12.07
-11.88
-26.93
-35.82
-43.30
-53.74
-69.18
-89.04
-110.42
-128.38
-138.67
-137.96
-125.27
-102.79
-75.53
-49.52
-29.71
-18.25
-14.18
-14.77
-17.20
-19.91
-22.77
-26.16
-29.97
-33.41
-35.29
-34.70
-31.65
-26.72
-20.55
-13.77
-6.38
1.98
11.91
23.85
37.97
53.90
70.78
87.63
103.19
117.73
131.78
144.94
154.97
157.90
149.53
127.82
94.82
56.78
21.27
-5.24
-19.95
-24.28
-22.24
-17.98
-13.84
-10.11
-6.04
-1.26
3.63
7.39
9.12
8.97
8.09
7.87
9.44
12.78
16.84
20.11
21.17
19.37
15.05
9.34
3.62
-0.95
-3.96
-5.76
-7.18
-9.12
-12.14
-16.31
-21.32
-26.62
-31.67
-36.26
-40.58
-45.01
-50.05
-55.91
-61.62
-67.11
-71.98
-75.54
-77.38
-77.53
-76.44
-74.96
-73.75
-74.04
-74.97
-75.50
-74.11
-69.53
-61.07
-48.95
-34.36
-18.80
-3.70
10.77
23.73
35.41
46.01
55.33
62.44
65.68
63.81
55.97
41.84
21.49
-4.09
-32.63
-60.27
-81.07
-90.31
-85.56
-68.47
-44.52
-21.20
-4.72
2.31
1.21
-4.34
-10.86
-16.44
-21.20
-26.09
-31.52
-36.69
-39.94
-39.91
-36.26
-29.90
-22.03
-13.59
-4.64
5.57
17.88
33.04
50.86
70.20
88.45
103.72
114.46
119.97
121.27
118.47
112.23
103.12
91.40
77.07
60.25
41.25
20.19
-1.23
-21.84
-40.53
-56.56
-69.55
-79.60
-86.82
-91.39
-93.36
-92.65
-89.46
-83.78
-75.76
-65.59
-53.78
-40.85
-27.45
-14.10
-1.23
10.62
21.06
29.84
36.93
42.19
45.64
47.35
47.67
47.02
45.65
43.93
42.13
40.68
39.58
38.84
38.36
38.34
38.96
40.28
42.34
43.55
44.59
45.53
46.22
46.41
46.34
46.15
46.02
46.00
45.89
45.57
44.46
43.10
40.31
36.08
30.72
24.70
18.46
12.11
5.69
-1.17
-8.76
-18.13
-27.95
-37.01
-44.20
-47.97
-47.87
-43.59
-35.92
-26.50
-17.72
-11.55
-9.46
-11.79
-17.55
-24.79
-30.97
-33.98
-32.62
-27.08
-19.11
-10.94
-4.88
-2.47
-4.10
-8.93
-15.50
-22.31
-28.23
-32.36
-34.33
-34.11
-31.92
-28.61
-25.21
-22.64
-21.11
-19.74
-17.10
-11.65
-2.59
9.77
24.04
38.56
51.86
63.33
72.28
79.76
86.88
94.55
103.48
113.72
124.11
131.56
131.59
119.85
94.62
58.25
17.07
-20.78
-48.64
-63.77
-67.88
-65.27
-60.21
-54.97
-49.80
-44.09
-37.72
-31.72
-27.49
-25.86
-26.18
-26.68
-25.42
-21.36
-15.09
-8.40
-3.56
-2.15
-4.41
-8.95
-13.80
-17.38
-19.41
-21.12
-24.45
-31.23
-41.43
-53.96
-66.21
-75.61
-80.52
-81.23
-79.63
-78.16
-79.30
-83.90
-91.78
-101.42
-110.20
-114.51
-110.47
-95.60
-69.05
-33.60
5.40
41.80
71.18
92.47
108.08
122.10
137.05
152.89
165.39
168.40
157.22
131.59
96.46
60.08
30.43
11.85
3.66
1.09
-1.32
-6.64
-14.35
-21.34
-24.44
-23.03
-19.48
-17.84
-21.46
-31.36
-45.27
-59.86
-72.11
-80.80
-85.98
-87.55
-84.50
-75.00
-59.85
-42.11
-26.67
-17.68
-16.02
-18.48
-19.50
-14.65
-3.45
10.44
22.16
28.74
30.92
32.44
37.01
45.80
56.73
66.36
71.89
72.83
71.15
69.66
70.64
74.59
81.05
88.42
94.49
96.21
90.09
73.40
45.43
8.63
-31.46
-67.71
-94.00
-107.51
-109.29
-103.16
-93.35
-83.06
-74.38
-69.09
-69.50
-77.85
-94.41
-114.84
-132.10
-137.48
-125.08
-95.11
-54.14
-12.37
20.78
41.50
50.67
52.46
51.91
52.86
57.03
64.54
74.02
82.06
84.99
79.16
63.18
39.77
15.97
-1.74
-8.87
-5.50
3.87
12.97
16.64
13.19
4.56
-4.72
-9.82
-7.24
3.24
18.47
33.27
42.16
42.09
33.75
22.06
14.21
16.62
31.93
57.75
88.45
117.57
140.32
154.43
160.36
159.71
153.47
141.01
120.55
91.35
54.61
13.01
-30.83
-74.14
-113.66
-146.26
-168.75
-178.21
-171.70
-147.87
-102.96
-41.51
25.17
86.36
137.29
181.31
220.67
254.54
277.39
282.85
267.70
233.35
186.51
136.39
90.88
53.64
24.58
6.14
-9.85
-24.08
-35.82
-43.39
-46.33
-46.68
-48.98
-57.77
-75.43
-101.24
-129.71
-153.84
-166.94
-165.50
-150.69
-127.76
-103.13
-81.57
-65.12
-52.14
-40.41
-28.67
-17.69
-9.92
-8.33
-15.07
-31.14
-57.17
-92.76
-137.15
-187.93
-240.38
-287.90
-323.76
-343.19
-344.98
-332.02
-309.45
-283.23
-257.92
-235.64
-216.06
-197.20
-176.87
-153.82
-128.36
-101.89
-76.28
-52.86
-32.15
-14.68
-2.08
2.20
-5.99
-29.06
-64.92
-105.94
-140.89
-159.09
-154.91
-130.28
-93.59
-55.60
-24.75
-4.01
9.27
20.73
35.59
56.16
81.53
109.14
137.29
166.66
200.11
240.86
289.61
342.70
392.09
427.99
442.70
434.07
406.27
367.33
325.51
285.47
246.82
205.46
156.70
98.04
30.63
-42.20
-116.39
-187.96
-252.79
-306.04
-342.50
-358.10
-351.56
-324.49
-282.18
-231.83
-180.17
-131.83
-88.75
-51.10
-18.13
11.63
41.75
75.87
117.19
168.11
229.74
301.16
378.46
454.09
518.21
562.94
582.47
574.78
542.36
491.24
428.97
362.04
294.51
217.04
129.19
38.72
-41.94
-102.26
-138.71
-154.35
-155.86
-150.24
-142.29
-132.22
-118.65
-101.17
-80.84
-59.52
-38.89
-20.49
-5.71
4.95
13.67
23.04
33.84
45.33
56.25
65.82
73.09
77.00
77.26
75.10
72.52
69.79
65.66
58.51
47.29
37.23
30.76
28.83
23.60
13.41
-2.76
-27.20
-62.32
-101.23
-138.75
-171.03
-195.16
-209.39
-212.77
-206.50
-195.06
-181.95
-168.06
-153.11
-136.83
-119.93
-103.91
-91.25
-85.00
-91.25
-113.02
-148.37
-192.22
-238.61
-283.17
-323.06
-358.09
-389.24
-422.79
-463.58
-512.67
-567.37
-622.37
-671.28
-706.26
-721.86
-682.88
-575.83
-415.43
-238.50
-81.76
35.96
106.79
147.63
172.91
191.58
203.71
209.19
212.83
221.85
243.45
279.60
326.25
373.24
410.61
429.22
426.31
405.54
374.63
341.60
311.62
287.33
267.66
250.23
231.19
208.91
184.60
161.58
143.24
131.07
124.75
124.92
126.75
125.45
119.12
108.41
95.81
84.16
75.04
68.81
65.12
61.82
57.06
51.16
45.81
43.79
48.04
60.95
83.96
117.53
158.47
196.02
220.37
223.08
200.10
153.40
90.65
18.12
-48.96
-96.21
-117.67
-116.62
-102.18
-82.11
-60.31
-37.91
-16.77
3.01
18.79
27.38
27.86
19.86
5.02
-14.08
-35.29
-54.76
-70.28
-82.40
-92.82
-102.46
-113.47
-126.72
-141.68
-157.00
-171.71
-186.07
-202.48
-224.18
-239.47
-240.78
-227.40
-205.26
-181.09
-158.30
-137.32
-117.93
-100.26
-84.64
-73.39
-68.14
-69.08
-74.83
-82.93
-90.03
-91.86
-83.77
-62.42
-29.31
10.24
48.87
79.93
99.44
107.01
105.34
98.52
90.01
80.60
69.93
58.22
47.01
38.23
33.17
31.87
33.57
37.39
42.32
48.18
55.72
65.97
78.59
91.77
103.01
109.81
110.90
106.24
96.98
85.28
74.12
65.73
61.55
61.65
64.23
65.69
61.52
48.03
22.90
-9.50
-42.23
-68.74
-86.25
-96.24
-102.17
-107.64
-114.95
-124.45
-135.10
-147.35
-162.94
-184.61
-214.43
-251.96
-293.44
-332.35
-361.13
-369.94
-355.16
-319.60
-271.51
-221.22
-177.12
-143.00
-117.86
-97.87
-79.24
-61.40
-46.07
-35.88
-32.12
-33.65
-37.12
-38.55
-34.81
-24.67
-9.67
7.65
25.01
41.60
58.55
78.33
103.40
135.25
174.21
219.86
271.82
329.33
389.75
446.94
491.62
514.22
509.64
480.97
439.37
400.00
375.53
371.29
384.25
406.20
428.31
444.43
451.38
447.01
428.64
393.58
341.95
279.17
215.62
163.03
129.37
115.05
112.90
111.51
100.21
73.64
33.33
-13.89
-59.79
-98.27
-127.07
-147.38
-162.43
-175.93
-190.82
-208.51
-229.29
-253.04
-279.59
-308.35
-335.87
-355.04
-359.12
-346.08
-319.18
-284.24
-246.77
-210.92
-179.11
-152.16
-129.85
-111.58
-96.37
-82.78
-69.13
-54.16
-37.51
-19.49
-0.92
17.01
32.80
45.36
54.22
59.48
61.40
59.90
54.43
44.23
28.57
7.74
-16.79
-42.66
-66.97
-87.25
-102.02
-111.13
-115.52
-116.61
-115.99
-115.28
-116.07
-119.31
-124.57
-129.27
-128.81
-118.10
-94.07
-57.76
-14.83
26.40
58.28
76.70
82.26
79.15
72.65
66.90
63.61
62.54
62.71
63.24
63.63
63.49
62.30
59.67
55.66
50.81
46.59
45.13
48.44
56.53
66.77
73.78
71.43
55.50
25.82
-12.53
-50.47
-77.69
-88.35
-82.96
-68.39
-54.28
-48.49
-54.12
-68.98
-87.80
-105.51
-119.14
-127.31
-128.95
-122.68
-105.91
-77.70
-40.65
-1.12
32.45
52.89
57.38
48.03
30.06
9.83
-7.94
-20.58
-27.19
-27.32
-20.70
-7.59
10.18
28.77
43.18
48.72
43.57
30.14
14.26
2.45
-1.07
3.84
13.78
24.16
31.60
35.29
36.52
37.14
38.02
38.75
38.20
35.61
31.30
26.47
22.59
20.72
21.00
22.57
24.16
24.62
23.48
21.11
18.42
16.48
15.96
16.89
18.69
20.49
21.58
21.71
21.13
20.42
20.23
20.99
22.78
25.34
28.36
31.58
34.97
38.61
42.58
46.76
50.76
53.89
55.07
53.19
47.42
37.31
22.93
4.89
-15.62
-37.01
-57.37
-74.87
-87.86
-95.12
-96.09
-90.87
-80.30
-65.64
-48.58
-30.85
-14.12
0.17
11.00
17.87
20.77
20.23
17.14
12.55
7.47
2.67
-1.49
-4.98
-7.99
-10.75
-13.31
-15.57
-17.25
-18.10
-18.08
-17.48
-16.83
-16.74
-17.73
-19.84
-22.78
-25.97
-28.79
-30.81
-32.08
-32.88
-33.79
-35.63
-39.24
-45.24
-53.47
-62.58
-70.09
-72.91
-68.45
-55.75
-36.16
-12.96
9.68
28.26
40.99
48.04
50.13
48.70
45.27
41.02
36.80
33.34
31.31
31.33
33.45
37.15
41.50
45.31
47.49
47.48
45.27
41.43
36.82
31.96
26.80
20.87
13.64
4.96
-4.76
-14.58
-23.13
-29.12
-32.09
-32.61
-31.86
-31.05
-30.93
-31.74
-33.46
-35.56
-37.03
-36.84
-33.83
-26.59
-13.85
4.86
28.49
51.85
67.57
70.47
59.97
39.65
14.75
-10.21
-32.61
-51.84
-68.53
-83.12
-95.19
-104.46
-111.11
-115.96
-120.16
-124.75
-130.10
-135.78
-141.30
-143.66
-140.23
-129.45
-111.03
-85.72
-55.09
-20.81
14.39
47.75
77.69
103.11
123.23
137.55
145.97
148.56
146.12
139.66
130.52
120.35
110.27
100.95
92.55
84.94
77.80
71.12
64.91
59.22
54.29
50.03
46.18
42.24
39.33
35.86
31.20
25.10
17.47
8.46
-1.89
-13.55
-26.39
-40.24
-54.71
-69.00
-82.35
-94.09
-103.73
-111.01
-115.85
-118.29
-118.41
-115.98
-110.73
-102.74
-92.64
-81.69
-71.61
-64.25
-60.99
-62.52
-67.89
-75.39
-83.04
-89.09
-92.59
-93.44
-91.76
-86.93
-82.26
-77.38
-70.57
-59.98
-44.50
-24.55
-1.93
20.86
41.61
59.08
74.16
88.68
105.18
126.45
154.58
190.08
230.80
271.20
302.22
314.27
300.14
259.02
198.47
132.28
76.45
44.37
42.70
69.89
118.70
179.69
244.58
307.94
364.51
409.01
436.66
444.17
430.50
398.09
352.71
301.90
253.09
208.61
166.83
124.70
79.25
28.34
-28.70
-90.76
-155.16
-217.38
-275.55
-329.02
-376.15
-407.38
-411.26
-383.11
-329.49
-272.71
-219.50
-172.11
-132.25
-98.19
-70.82
-52.35
-45.53
-52.36
-71.12
-96.34
-123.72
-151.71
-178.13
-199.96
-212.30
-209.62
-187.94
-146.77
-89.89
-27.57
23.27
54.21
60.35
41.87
3.86
-44.85
-93.40
-131.42
-145.07
-131.75
-96.47
-49.36
-0.33
43.98
80.58
109.10
130.32
145.71
153.67
153.40
144.58
127.82
104.48
75.79
42.85
6.10
-30.95
-66.05
-97.02
-122.72
-142.75
-157.46
-168.27
-176.87
-184.14
-188.66
-187.74
-177.23
-154.25
-119.49
-77.66
-36.58
-3.78
16.38
24.05
21.96
13.98
3.09
-9.13
-20.91
-30.80
-35.91
-33.68
-23.25
-6.51
12.73
30.35
43.29
51.80
58.02
64.97
74.76
87.54
101.33
113.19
120.52
122.23
120.79
119.92
123.67
135.13
155.91
185.96
223.81
266.65
301.11
316.42
305.51
268.84
215.09
157.85
110.04
79.20
65.62
63.96
68.42
74.87
81.87
89.55
97.90
105.57
110.65
111.80
109.25
106.09
106.04
112.33
126.10
148.36
177.24
209.57
242.00
271.70
297.34
318.09
333.09
341.06
340.30
328.91
305.86
271.48
227.58
177.43
124.83
73.29
25.44
-17.22
-54.29
-85.80
-111.95
-132.81
-148.43
-159.10
-165.50
-168.72
-170.17
-171.28
-173.04
-175.88
-179.84
-184.86
-191.07
-198.86
-208.63
-220.60
-234.51
-249.63
-264.98
-279.83
-294.11
-308.41
-323.71
-340.78
-359.76
-380.04
-400.82
-421.60
-442.35
-462.94
-482.08
-496.32
-499.95
-486.69
-451.93
-394.93
-319.37
-231.94
-140.49
-52.67
24.42
83.81
119.48
128.51
113.85
85.71
59.99
53.52
78.06
135.56
217.40
307.43
387.77
444.73
472.11
471.48
449.69
415.45
375.97
335.18
293.69
250.31
203.91
154.56
103.77
53.23
4.09
-43.49
-89.87
-135.02
-178.21
-218.69
-256.68
-294.03
-333.62
-377.40
-424.54
-470.55
-508.64
-532.59
-539.57
-531.57
-514.17
-493.84
-475.26
-459.88
-446.31
-432.25
-416.00
-397.06
-375.72
-352.23
-326.52
-298.53
-268.85
-238.80
-210.33
-185.56
-165.84
-151.44
-141.25
-133.53
-126.54
-119.32
-111.97
-105.34
-100.63
-98.64
-99.52
-102.27
-105.25
-106.67
-105.12
-99.95
-91.13
-79.01
-63.93
-46.32
-26.47
-4.91
17.28
38.32
55.86
67.49
71.40
67.03
54.89
36.54
13.96
-11.07
-37.14
-63.46
-89.27
-113.45
-134.03
-148.54
-154.68
-150.93
-137.33
-115.36
-87.75
-57.02
-24.83
8.61
44.31
83.52
127.09
175.09
226.92
281.02
334.37
381.75
416.03
430.32
420.98
390.21
345.92
299.08
259.08
229.94
209.41
191.11
168.46
137.89
99.87
57.22
13.05
-30.90
-74.10
-116.01
-154.97
-188.29
-213.27
-228.19
-233.12
-229.88
-221.00
-208.64
-193.66
-175.21
-151.33
-120.00
-80.17
-32.61
20.11
74.07
125.00
169.23
204.41
229.64
245.32
252.67
253.19
248.42
239.62
227.91
214.25
199.50
184.32
169.21
154.42
139.89
125.44
110.83
95.96
81.04
66.60
53.47
42.63
35.07
31.56
32.54
37.97
47.41
60.19
75.60
93.02
112.02
132.33
153.77
176.43
200.61
226.81
255.35
285.62
315.74
342.57
362.66
373.53
374.73
367.73
355.01
338.78
320.26
299.78
277.61
254.68
232.55
212.61
195.07
178.77
161.88
143.22
123.20
103.60
86.50
72.98
62.75
54.64
47.80
42.62
40.54
42.91
49.81
59.50
69.07
75.81
78.47
77.44
74.09
69.69
64.78
59.49
54.24
50.27
49.23
52.24
58.65
65.94
70.68
70.17
63.68
52.29
38.02
22.18
4.78
-15.12
-38.30
-64.39
-91.72
-117.94
-141.11
-159.89
-173.57
-181.49
-182.95
-177.73
-166.52
-151.04
-133.24
-114.25
-93.67
-69.75
-40.43
-4.69
36.52
80.14
121.64
156.26
180.23
191.78
191.48
181.90
166.80
149.71
133.13
118.11
104.52
91.79
79.34
66.57
52.72
36.80
17.75
-4.89
-30.73
-58.46
-86.07
-111.28
-132.02
-146.94
-155.59
-158.60
-157.41
-153.79
-149.11
-143.75
-137.10
-128.07
-116.09
-101.75
-86.87
-73.63
-63.63
-57.20
-53.49
-51.21
-49.40
-47.63
-45.85
-43.95
-41.58
-38.49
-34.86
-31.55
-29.80
-30.48
-33.38
-37.05
-39.38
-38.42
-33.14
-23.87
-12.11
-0.25
9.02
13.47
11.95
5.02
-5.14
-15.14
-21.48
-21.72
-15.11
-2.61
13.75
31.73
49.44
65.40
78.40
87.42
91.90
92.20
89.71
86.38
83.87
82.66
81.71
78.95
72.30
60.72
44.95
27.34
11.24
-0.06
-4.33
-1.19
7.75
19.44
30.42
38.20
42.11
43.51
44.92
48.74
55.95
65.70
75.74
83.49
87.25
86.81
83.23
78.17
73.00
68.36
64.00
59.14
52.71
43.43
29.62
9.53
-17.61
-50.31
-84.00
-112.06
-128.20
-129.56
-118.19
-100.27
-82.95
-70.76
-63.78
-58.44
-50.34
-37.11
-19.63
-0.80
16.49
31.07
43.68
55.94
69.04
83.14
97.43
110.32
119.60
122.46
115.57
96.19
63.58
20.42
-27.05
-70.35
-101.27
-114.70
-110.48
-93.55
-72.39
-56.15
-51.62
-60.99
-81.36
-105.95
-126.77
-137.43
-135.08
-120.74
-98.33
-72.73
-47.86
-25.74
-6.50
10.98
27.97
45.21
62.79
80.15
96.43
110.55
120.95
125.63
122.39
109.50
86.72
56.11
22.13
-9.16
-31.76
-41.89
-39.29
-27.50
-12.76
-1.94
-0.45
-10.70
-31.54
-58.70
-86.08
-107.47
-118.29
-116.82
-104.64
-85.80
-65.35
-47.41
-33.80
-23.70
-14.55
-3.68
10.08
25.69
40.50
51.53
56.78
55.90
50.00
40.64
29.20
16.44
3.04
-9.83
-20.33
-26.29
-26.06
-19.47
-8.26
4.52
15.46
21.92
22.75
18.60
11.60
4.76
0.78
1.18
5.93
13.66
22.36
30.46
37.54
44.59
53.44
65.58
81.42
100.52
121.93
144.68
168.40
193.06
218.62
244.80
270.54
294.10
314.09
329.21
337.72
337.24
325.45
301.42
267.50
228.32
188.95
154.45
127.68
108.29
93.58
80.43
66.97
54.21
43.44
34.04
25.26
16.19
5.58
-7.55
-23.58
-42.17
-61.62
-81.80
-105.68
-135.57
-172.23
-215.00
-261.23
-306.33
-353.39
-398.22
-425.11
-431.68
-423.95
-408.07
-390.57
-377.30
-372.38
-377.02
-387.97
-400.04
-408.96
-409.72
-398.82
-376.43
-346.19
-313.56
-283.71
-258.84
-239.09
-223.90
-210.51
-195.52
-177.02
-155.00
-130.73
-105.51
-78.99
-49.97
-17.84
17.45
53.89
86.98
111.61
124.73
127.23
124.08
121.65
124.40
133.55
147.25
161.94
175.03
186.41
198.44
214.45
236.99
266.61
301.64
338.28
370.70
391.78
394.41
373.70
328.88
264.57
189.73
114.60
47.27
-8.81
-55.12
-96.44
-137.86
-182.11
-228.01
-270.49
-302.78
-318.74
-314.93
-291.76
-253.57
-207.34
-160.54
-119.00
-85.20
-59.11
-39.54
-25.14
-14.94
-8.21
-3.62
0.69
6.97
17.66
33.37
52.13
70.32
84.37
92.40
95.21
95.10
94.53
95.79
98.63
99.83
95.09
80.17
52.39
11.73
-40.12
-102.99
-168.50
-221.92
-248.30
-239.12
-196.67
-132.58
-56.34
24.31
103.07
176.62
243.15
294.32
324.57
330.91
313.59
276.28
224.75
165.82
107.34
54.67
8.22
-35.04
-79.71
-127.45
-174.22
-211.43
-230.17
-224.67
-196.01
-152.20
-104.06
-61.55
-30.62
-13.07
-8.32
-16.26
-34.92
-57.92
-75.75
-80.38
-70.04
-48.95
-26.33
-6.39
9.89
24.44
40.49
59.93
82.16
102.79
115.21
112.42
90.19
49.05
-4.50
-60.08
-107.99
-142.62
-163.76
-174.61
-178.81
-177.78
-171.26
-158.49
-140.14
-119.35
-100.67
-88.09
-83.09
-84.56
-89.68
-96.27
-103.43
-111.55
-121.39
-133.02
-145.19
-155.43
-161.01
-159.57
-149.93
-132.43
-109.02
-83.17
-59.39
-42.06
-34.14
-36.16
-45.89
-59.14
-71.00
-77.45
-76.80
-70.24
-61.13
-53.07
-47.73
-44.02
-39.03
-30.23
-17.77
-4.86
3.86
5.32
0.56
-5.19
-5.03
5.78
27.44
55.87
85.16
110.63
130.39
144.95
155.67
163.69
169.60
174.22
179.33
187.19
199.54
215.96
233.19
245.98
249.16
239.41
215.93
179.92
134.16
82.89
31.96
-11.26
-39.29
-46.85
-33.03
-1.98
38.50
80.08
116.89
146.56
169.37
185.79
194.54
192.20
175.06
142.04
97.32
50.52
13.94
-2.40
4.81
30.38
62.87
89.97
103.58
102.07
88.34
66.14
37.14
1.17
-41.07
-85.49
-124.40
-149.49
-155.96
-145.34
-124.88
-104.01
-89.92
-84.60
-84.63
-83.38
-74.39
-54.25
-24.78
7.46
33.74
46.40
41.78
21.19
-10.37
-46.56
-81.17
-108.49
-123.33
-121.07
-99.74
-62.00
-16.15
25.40
50.22
50.91
27.79
-11.46
-54.68
-89.23
-105.16
-97.62
-68.01
-23.65
24.57
65.79
93.01
105.14
105.80
100.76
94.40
88.16
81.59
74.61
68.63
66.23
69.28
76.72
84.82
89.22
87.07
78.91
67.99
58.11
51.62
48.03
44.42
37.21
24.36
6.30
-14.34
-34.23
-50.74
-62.98
-71.40
-76.80
-79.36
-78.23
-72.21
-60.82
-45.18
-28.21
-13.79
-5.56
-5.39
-12.25
-22.18
-29.91
-31.26
-25.94
-18.12
-14.54
-21.48
-41.71
-73.04
-108.98
-141.26
-162.35
-167.31
-155.09
-128.61
-94.34
-61.49
-39.33
-33.72
-44.25
-63.21
-78.42
-78.84
-59.93
-25.75
13.35
46.42
66.78
73.99
72.11
66.39
60.75
57.37
57.30
61.03
67.57
72.99
70.98
55.73
26.33
-10.88
-44.07
-62.21
-61.68
-48.74
-36.32
-36.75
-54.29
-83.17
-110.84
-124.84
-119.55
-98.36
-71.05
-48.15
-35.78
-33.32
-35.30
-35.10
-28.59
-15.92
-0.40
13.95
24.67
32.04
38.19
45.23
53.41
60.87
64.63
62.37
54.05
42.16
30.75
23.72
23.24
28.85
37.92
46.73
52.05
52.26
47.78
40.54
33.07
27.38
24.16
22.99
22.66
21.97
20.28
17.60
14.43
11.38
8.92
7.14
5.92
5.03
4.11
2.84
0.89
-1.87
-5.25
-8.62
-11.10
-11.83
-10.27
-6.49
-1.11
4.85
10.33
14.47
16.74
16.80
14.46
9.55
2.18
-7.00
-16.73
-25.20
-30.64
-32.01
-29.44
-24.20
-18.09
-12.66
-8.52
-5.24
-1.85
2.53
8.16
14.57
20.84
26.00
29.35
30.66
30.18
28.55
26.62
25.36
25.45
27.23
30.49
34.59
38.65
41.80
43.38
43.01
40.69
36.78
32.14
27.84
24.93
24.02
25.05
27.24
29.45
30.47
29.40
25.84
19.78
11.56
1.75
-8.89
-19.55
-29.45
-38.12
-45.53
-51.87
-57.32
-61.67
-64.03
-63.19
-57.98
-47.94
-33.54
-16.24
1.94
18.96
33.13
43.35
49.19
50.88
49.23
45.53
41.21
37.41
34.65
32.75
31.07
28.90
25.84
22.10
18.25
14.95
12.52
10.83
9.36
7.54
4.98
1.69
-1.87
-4.94
-6.58
-5.92
-2.33
4.28
13.48
24.39
35.96
47.38
58.42
69.48
81.07
93.27
105.13
114.64
119.22
116.76
106.55
89.75
69.11
48.05
29.44
14.86
4.35
-3.00
-8.40
-12.78
-16.60
-20.15
-23.79
-28.13
-33.68
-40.63
-48.49
-56.12
-62.02
-64.74
-63.26
-57.09
-46.53
-32.46
-16.45
-0.29
14.37
26.40
35.36
41.27
44.36
44.83
42.87
38.78
33.09
26.45
19.33
11.76
3.29
-6.58
-17.95
-30.17
-42.00
-52.01
-59.26
-63.58
-65.54
-66.20
-66.57
-67.45
-69.43
-73.01
-78.61
-86.49
-96.48
-107.75
-118.92
-128.27
-134.41
-136.41
-134.03
-127.41
-116.83
-102.59
-85.10
-65.23
-44.38
-24.29
-6.61
7.77
18.89
27.60
35.03
41.91
48.14
52.97
55.41
54.83
51.28
45.40
38.05
29.90
21.34
12.38
3.21
-5.71
-13.55
-19.39
-22.60
-22.98
-20.73
-16.05
-9.04
0.40
12.15
25.64
39.72
52.92
63.96
72.25
77.96
81.78
84.34
85.76
85.69
83.68
79.57
73.76
67.17
60.74
55.06
50.14
45.46
40.25
33.91
26.25
17.49
8.19
-1.07
-9.83
-17.98
-25.76
-33.72
-42.49
-52.40
-63.32
-74.38
-84.20
-91.22
-94.29
-93.11
-88.53
-82.21
-76.05
-71.48
-69.01
-68.18
-67.85
-66.80
-64.02
-59.05
-51.85
-42.67
-31.97
-20.37
-8.59
2.57
12.32
20.06
25.35
28.06
28.25
26.23
22.56
17.98
13.29
9.20
6.04
3.62
1.25
-1.96
-6.68
-12.93
-19.96
-26.47
-31.15
-33.21
-32.76
-30.76
-28.61
-27.56
-28.31
-30.85
-34.65
-38.98
-43.16
-46.75
-49.49
-51.19
-51.66
-50.66
-47.93
-43.26
-36.58
-28.05
-18.22
-8.02
1.20
8.06
11.44
10.92
6.94
0.79
-5.77
-10.92
-13.28
-12.33
-8.54
-3.34
1.44
4.18
4.43
3.41
3.82
8.89
20.94
40.00
63.48
86.71
104.52
112.73
109.34
94.63
70.68
40.64
8.08
-23.38
-50.53
-70.97
-83.60
-88.85
-88.53
-85.16
-81.04
-77.43
-74.11
-69.51
-61.46
-48.13
-28.96
-5.19
20.41
44.35
63.62
76.65
83.65
86.06
85.67
83.74
80.73
76.31
69.73
60.15
46.98
30.08
10.18
-10.91
-30.48
-45.39
-53.15
-52.58
-44.20
-29.90
-12.50
4.81
18.94
27.33
28.60
22.90
12.11
-0.75
-12.62
-21.40
-26.44
-28.15
-27.22
-23.71
-17.27
-7.62
4.46
16.66
25.64
28.30
23.03
10.63
-6.04
-23.30
-38.16
-49.13
-56.32
-60.55
-62.38
-61.68
-57.89
-50.70
-40.50
-28.22
-14.72
-0.20
15.79
33.58
52.61
70.97
85.76
94.07
94.16
86.17
72.15
55.58
40.31
29.45
24.55
25.18
29.19
33.66
35.81
34.02
28.11
19.05
8.21
-3.25
-14.60
-25.22
-34.33
-40.97
-44.22
-43.87
-40.69
-36.31
-32.54
-30.72
-31.03
-32.62
-34.08
-34.03
-31.52
-26.30
-18.69
-9.35
0.79
10.73
19.53
26.50
31.53
35.32
39.03
43.86
50.47
58.44
66.32
72.29
74.99
74.32
71.75
69.56
69.83
73.15
78.16
82.11
82.19
76.90
66.74
53.73
40.38
28.66
19.36
12.17
6.28
1.01
-4.05
-8.94
-13.36
-16.75
-18.32
-17.23
-13.05
-5.92
3.52
14.43
26.39
39.38
53.41
67.93
81.45
91.88
97.37
97.10
91.53
81.85
69.11
53.59
34.91
12.72
-12.47
-39.14
-65.12
-88.42
-107.55
-121.48
-129.27
-129.76
-121.92
-105.63
-82.30
-54.75
-26.55
-0.84
20.36
36.21
46.48
50.98
49.31
41.22
27.15
8.53
-12.56
-33.79
-53.12
-68.83
-79.45
-83.79
-81.09
-71.58
-56.72
-38.96
-20.74
-3.48
13.04
29.91
47.65
65.01
78.92
85.96
84.20
74.26
58.82
41.07
23.13
5.46
-12.28
-29.88
-45.63
-56.54
-59.95
-55.03
-43.48
-28.92
-15.57
-6.62
-3.41
-5.07
-9.02
-11.97
-11.25
-6.09
1.87
8.96
11.03
5.07
-9.40
-30.18
-53.08
-73.47
-87.78
-94.55
-94.79
-91.40
-88.16
-88.29
-93.18
-101.89
-111.46
-118.15
-118.90
-112.56
-100.15
-84.28
-67.68
-51.90
-36.84
-21.07
-3.20
16.90
37.45
55.31
67.24
71.45
68.37
60.30
50.20
40.16
30.68
20.83
9.18
-5.33
-22.76
-41.99
-60.99
-77.28
-88.45
-92.79
-89.78
-80.25
-66.24
-50.40
-34.96
-20.96
-7.76
6.48
23.75
44.79
68.12
90.14
106.42
113.65
111.28
101.92
90.13
80.35
74.84
73.21
73.24
72.60
70.12
66.00
60.85
54.70
46.46
34.59
18.21
-1.76
-22.45
-39.65
-49.17
-48.33
-36.88
-17.13
6.89
30.52
49.89
62.54
67.79
66.42
60.11
50.97
41.11
32.37
26.06
22.89
22.93
25.75
30.47
35.79
40.14
41.92
39.96
34.02
25.02
14.81
5.32
-2.32
-8.19
-13.23
-18.42
-24.12
-29.87
-34.78
-38.07
-39.70
-40.13
-40.06
-39.89
-39.74
-39.58
-39.55
-39.95
-40.96
-42.43
-43.73
-44.10
-42.99
-40.47
-37.00
-33.11
-28.88
-23.65
-16.19
-4.99
10.94
31.40
54.50
76.70
93.55
100.95
96.47
80.25
55.01
25.19
-4.51
-30.27
-49.85
-62.36
-67.77
-66.46
-59.25
-47.49
-33.19
-18.76
-6.29
2.94
8.91
12.45
14.65
16.15
16.78
15.70
11.94
5.13
-4.31
-15.08
-25.52
-34.36
-41.38
-47.53
-54.51
-63.66
-75.07
-87.39
-98.36
-105.79
-108.51
-106.48
-100.50
-91.60
-80.64
-68.64
-56.94
-47.18
-40.91
-38.90
-40.65
-44.84
-50.21
-56.32
-63.57
-72.29
-81.62
-89.42
-93.21
-91.20
-83.10
-69.84
-52.58
-32.19
-9.23
15.35
39.51
60.46
75.71
84.34
87.45
87.43
86.47
85.44
83.59
79.48
72.24
62.31
51.07
40.22
31.16
24.66
21.12
20.56
22.83
27.53
34.04
41.34
48.21
53.55
56.56
57.03
55.36
52.49
49.52
47.29
46.13
45.79
45.80
45.62
44.84
43.21
40.51
36.51
31.04
23.87
14.56
2.46
-13.30
-33.55
-58.57
-87.95
-120.38
-153.72
-185.19
-211.77
-230.43
-238.74
-235.33
-220.10
-194.22
-159.64
-118.58
-73.35
-26.55
18.71
58.80
90.53
112.22
124.42
129.71
131.38
131.90
131.65
128.82
120.19
102.93
76.31
42.72
7.54
-22.31
-40.53
-43.42
-30.91
-6.30
25.12
57.64
86.27
107.23
117.91
116.81
103.68
79.85
48.29
13.39
-19.90
-46.90
-64.07
-69.68
-64.23
-50.40
-32.48
-15.21
-2.36
4.39
5.57
3.49
0.76
-0.69
-0.23
1.57
3.66
5.08
5.46
4.90
3.87
2.70
1.44
-0.24
-2.90
-7.03
-12.70
-19.42
-26.24
-31.99
-35.75
-36.94
-35.46
-31.57
-25.78
-18.77
-11.39
-4.50
1.06
4.63
5.95
5.24
3.03
0.26
-2.12
-3.17
-2.21
1.07
6.54
13.72
21.85
30.09
37.82
44.64
50.39
55.06
58.64
61.05
62.23
62.13
60.71
58.01
53.98
48.63
42.05
34.62
27.02
20.16
14.89
11.61
10.22
10.08
10.29
10.10
9.07
7.21
4.73
1.89
-1.13
-4.21
-7.19
-9.79
-11.57
-12.27
-11.82
-10.51
-8.78
-7.01
-5.21
-3.12
-0.31
3.47
7.97
12.51
16.13
18.02
17.88
15.98
13.17
10.62
9.65
11.40
16.69
25.80
38.34
53.25
68.87
83.34
94.94
102.51
105.58
104.36
99.54
92.00
82.65
72.27
61.48
50.66
40.00
29.51
19.06
8.50
-2.25
-13.12
-23.88
-34.22
-43.81
-52.37
-59.64
-65.41
-69.58
-72.11
-73.00
-72.31
-70.02
-66.02
-60.21
-52.66
-43.64
-33.81
-24.03
-15.13
-7.71
-2.01
2.18
5.28
7.72
9.87
11.92
13.97
16.24
19.03
22.66
27.37
33.10
39.40
45.60
50.92
54.81
57.03
57.65
56.97
55.29
52.79
49.53
45.56
40.93
35.97
31.23
27.49
25.58
26.16
29.39
34.77
41.19
47.12
51.06
52.01
49.65
44.35
36.97
28.43
19.57
10.95
3.05
-3.75
-9.04
-12.44
-13.88
-13.62
-12.27
-10.63
-9.44
-9.16
-9.95
-11.81
-14.53
-17.89
-21.69
-25.63
-29.48
-33.20
-37.00
-41.26
-46.18
-51.47
-56.22
-59.19
-59.24
-55.97
-49.85
-42.08
-34.05
-26.78
-20.74
-16.00
-12.49
-10.20
-9.22
-9.51
-10.80
-12.51
-13.89
-14.32
-13.49
-11.38
-8.10
-3.77
1.66
8.38
16.44
25.56
34.96
43.43
49.56
52.04
50.00
43.27
32.55
19.17
4.94
-8.45
-19.71
-28.24
-34.15
-37.90
-39.85
-40.08
-38.40
-34.74
-29.45
-23.44
-17.79
-13.40
-10.61
-8.95
-7.51
-5.30
-1.60
3.77
10.50
18.07
25.81
33.14
39.58
44.79
48.51
50.47
50.41
47.91
42.61
34.28
23.13
9.94
-3.99
-17.10
-27.94
-35.60
-39.79
-40.71
-38.82
-34.51
-28.00
-19.55
-9.71
0.65
10.42
18.59
24.71
28.96
32.01
34.73
37.69
41.00
44.45
47.61
50.11
51.89
53.06
53.73
53.86
53.04
50.61
45.73
37.60
25.68
9.99
-8.77
-29.12
-49.08
-66.57
-79.83
-87.89
-90.73
-89.16
-84.50
-78.22
-71.49
-64.92
-58.59
-52.14
-45.09
-37.23
-28.77
-20.36
-12.90
-7.12
-3.39
-1.74
-1.93
-3.48
-5.72
-7.84
-8.97
-8.62
-7.01
-5.18
-4.75
-7.17
-12.99
-21.56
-31.20
-39.80
-45.53
-47.44
-45.61
-40.89
-34.54
-27.67
-21.01
-14.67
-8.30
-1.31
6.80
16.19
26.50
36.93
46.56
54.48
60.01
62.74
62.54
59.59
54.42
47.85
40.82
34.31
29.00
25.14
22.55
20.66
18.77
16.22
12.60
7.84
2.34
-3.21
-8.02
-11.32
-12.76
-12.29
-10.24
-7.07
-3.28
0.67
4.37
7.37
9.37
10.07
9.45
7.82
5.69
3.70
2.38
1.87
1.95
2.10
1.68
0.28
-2.12
-5.12
-8.06
-10.17
-10.86
-9.84
-7.30
-4.07
-1.47
-0.95
-3.58
-9.35
-16.88
-23.73
-27.26
-25.85
-19.66
-10.66
-1.89
3.72
4.39
-0.17
-8.97
-20.50
-33.31
-46.42
-59.13
-70.82
-80.69
-87.74
-91.06
-90.18
-85.37
-77.53
-67.95
-57.87
-48.05
-38.76
-29.95
-21.61
-14.07
-8.01
-4.17
-3.11
-4.90
-9.06
-14.70
-20.83
-26.59
-31.44
-35.23
-38.12
-40.51
-42.86
-45.51
-48.58
-51.94
-55.25
-58.12
-60.10
-60.82
-59.90
-57.00
-51.87
-44.52
-35.29
-24.92
-14.32
-4.36
4.41
11.80
18.00
23.30
27.95
32.04
35.52
38.19
39.80
40.13
39.19
37.35
35.24
33.71
33.46
34.77
37.36
40.57
43.56
45.71
46.72
46.59
45.42
43.30
40.31
36.55
32.35
28.15
24.58
22.08
20.82
20.52
20.64
20.50
19.52
17.48
14.50
10.99
7.44
4.16
1.28
-1.33
-3.94
-6.83
-10.11
-13.78
-17.57
-21.05
-23.66
-24.77
-23.92
-20.97
-16.18
-10.19
-3.86
1.97
6.71
10.07
12.03
12.72
12.38
11.21
9.52
7.65
6.04
5.05
4.81
5.23
5.92
6.48
6.54
5.94
4.76
3.25
1.67
0.23
-1.03
-2.20
-3.41
-4.86
-6.65
-8.87
-11.48
-14.31
-16.95
-18.86
-19.43
-18.18
-14.92
-9.87
-3.66
2.86
8.87
13.75
17.17
19.07
19.59
18.96
17.44
15.39
13.17
11.23
9.93
9.47
9.78
10.56
11.35
11.68
11.25
10.01
8.16
6.07
4.08
2.43
1.16
0.14
-0.89
-2.16
-3.81
-5.77
-7.68
-9.03
-9.24
-7.83
-4.64
0.13
5.95
12.14
18.06
23.27
27.46
30.48
32.20
32.56
31.64
29.78
27.45
25.27
23.71
22.91
22.68
22.46
21.61
19.68
16.56
12.50
8.09
3.96
0.58
-1.91
-3.75
-5.45
-7.59
-10.60
-14.82
-20.34
-27.04
-34.56
-42.23
-49.12
-54.27
-57.00
-57.18
-55.38
-52.59
-49.93
-48.32
-48.23
-49.84
-53.11
-57.94
-64.15
-71.37
-78.89
-85.86
-91.33
-94.50
-94.79
-91.91
-85.75
-76.31
-63.61
-47.54
-27.84
-4.26
23.16
53.57
84.90
113.83
136.41
148.96
149.26
137.30
115.35
87.23
57.38
29.77
7.26
-8.54
-17.27
-19.53
-16.74
-10.81
-3.87
2.08
5.68
6.34
4.39
0.79
-3.16
-6.29
-7.79
-7.39
-5.38
-2.33
1.07
4.37
7.35
10.06
12.59
15.00
17.28
19.28
20.97
22.37
23.63
24.77
25.64
25.86
25.05
23.09
20.21
17.25
15.32
15.58
18.64
24.22
31.09
37.49
41.48
41.48
37.00
28.42
16.58
2.19
-14.60
-34.01
-55.92
-80.01
-105.59
-131.37
-155.81
-177.26
-193.89
-203.55
-203.67
-191.27
-164.93
-125.70
-76.59
-21.73
35.16
91.61
146.01
196.62
240.90
273.71
288.50
280.45
248.65
197.23
134.22
68.96
7.01
-43.43
-74.86
-83.67
-71.37
-44.24
-9.81
26.71
61.55
91.96
116.86
135.66
145.28
144.75
134.52
116.29
92.49
65.51
37.72
11.83
-10.33
-27.97
-40.80
-49.39
-55.09
-59.74
-65.63
-74.67
-87.55
-104.15
-123.53
-143.60
-161.73
-175.18
-181.66
-179.84
-169.56
-151.77
-128.54
-102.55
-76.04
-50.65
-27.14
-5.71
13.67
31.07
46.52
59.95
71.34
80.92
88.97
95.78
101.54
106.43
110.49
113.79
116.19
117.54
117.80
117.07
115.70
114.12
112.80
111.89
111.26
110.31
108.16
103.63
95.57
83.18
66.24
45.36
21.76
-3.13
-28.21
-52.93
-77.20
-100.88
-123.28
-143.01
-158.24
-167.54
-170.37
-167.30
-159.61
-148.58
-135.05
-119.06
-100.46
-79.19
-55.85
-31.60
-7.75
14.80
35.89
55.82
74.97
93.12
109.30
122.17
130.64
134.26
133.13
127.41
116.94
101.29
80.32
54.96
27.41
0.75
-22.18
-39.87
-52.42
-61.18
-67.60
-72.44
-75.49
-75.95
-73.13
-66.93
-57.98
-47.25
-35.61
-23.48
-10.98
2.04
15.52
29.09
41.92
52.96
61.30
66.44
68.56
68.35
66.88
65.03
63.32
61.71
59.82
57.34
54.27
51.06
48.28
46.32
45.16
44.61
44.87
46.69
51.18
58.96
69.35
80.08
88.02
90.40
86.02
75.47
60.47
42.67
22.78
0.78
-23.22
-47.89
-70.52
-87.76
-97.02
-97.44
-90.30
-78.19
-63.95
-49.77
-36.79
-25.34
-15.39
-7.01
-0.42
3.82
5.02
2.43
-4.46
-15.46
-29.42
-44.17
-56.99
-65.55
-68.69
-66.86
-61.78
-55.69
-50.41
-46.99
-45.83
-47.14
-51.36
-59.14
-70.97
-86.50
-104.40
-122.36
-137.76
-148.27
-152.34
-149.37
-139.83
-125.03
-106.73
-87.00
-67.59
-49.78
-34.23
-21.05
-10.09
-1.30
5.34
9.86
12.49
13.70
14.08
14.13
13.92
13.22
11.56
8.70
4.65
-0.24
-5.42
-10.29
-14.40
-17.59
-19.97
-21.83
-23.34
-24.45
-24.99
-24.69
-23.34
-20.99
-17.72
-13.67
-8.93
-3.48
2.71
9.61
17.14
25.08
32.96
40.20
46.22
50.65
53.58
55.61
57.52
59.97
62.87
65.31
65.82
62.91
55.60
43.75
27.98
9.56
-9.91
-28.92
-46.11
-60.61
-72.21
-81.26
-88.33
-93.72
-96.69
-95.38
-87.22
-69.92
-42.70
-7.17
32.61
71.03
102.25
121.83
127.88
121.18
104.89
83.25
60.38
39.43
22.15
8.99
-0.44
-6.88
-11.21
-14.16
-16.42
-18.58
-21.00
-23.89
-27.34
-31.44
-36.31
-41.92
-47.79
-52.86
-55.69
-55.22
-51.57
-46.25
-41.69
-39.96
-41.58
-45.17
-48.11
-48.09
-44.41
-38.26
-31.83
-27.03
-24.34
-22.89
-21.23
-18.33
-14.08
-8.99
-3.50
2.64
10.28
20.51
33.96
50.44
68.84
87.46
104.33
117.83
126.91
131.22
131.16
127.43
120.55
110.61
97.37
80.66
61.19
40.74
21.75
6.61
-3.46
-8.92
-11.57
-13.67
-16.86
-21.48
-26.65
-31.05
-33.78
-34.73
-34.62
-34.25
-34.15
-34.32
-34.51
-34.47
-34.18
-33.29
-30.91
-25.59
-15.89
-1.38
16.58
34.85
49.37
56.43
54.14
42.90
25.33
5.32
-13.06
-26.63
-33.56
-33.49
-27.39
-16.83
-3.62
10.67
24.87
38.11
49.73
59.27
66.64
72.11
76.34
80.01
83.54
86.98
89.96
91.96
92.47
91.16
87.95
83.10
77.04
70.31
63.43
56.70
50.25
44.10
38.28
32.95
28.43
25.02
22.89
22.09
22.48
23.83
25.93
28.49
31.08
33.22
34.44
34.53
33.72
32.55
31.70
31.63
32.38
33.53
34.41
34.38
33.30
31.64
30.36
30.60
33.10
37.85
44.01
50.19
54.99
57.57
58.06
57.55
57.65
59.86
64.74
71.66
78.83
83.81
84.19
78.36
65.98
48.39
28.67
11.31
1.22
1.94
13.70
32.19
49.36
56.07
46.19
19.49
-17.83
-55.75
-84.69
-99.29
-99.74
-90.50
-77.53
-65.73
-57.98
-55.58
-59.18
-69.10
-84.97
-105.10
-126.38
-145.00
-157.67
-162.64
-160.11
-151.74
-139.92
-126.98
-114.79
-104.47
-96.63
-91.27
-88.05
-86.36
-85.54
-85.00
-84.49
-84.00
-83.78
-84.17
-85.36
-87.42
-90.24
-93.59
-97.27
-101.21
-105.50
-110.48
-116.71
-124.65
-134.39
-145.46
-156.81
-167.34
-176.28
-183.40
-188.66
-191.67
-191.18
-185.21
-171.94
-150.57
-121.94
-88.31
-52.66
-17.93
13.30
38.77
56.47
65.06
64.66
57.73
48.80
43.00
43.78
51.24
61.92
70.37
71.89
64.61
50.15
32.53
16.12
3.78
-3.72
-7.39
-8.82
-9.23
-9.09
-8.18
-6.10
-2.63
2.08
7.48
12.66
16.73
19.16
19.80
19.04
17.30
14.81
11.46
7.05
1.75
-3.47
-6.95
-7.00
-2.69
5.57
16.04
26.31
34.26
38.69
39.56
37.65
33.93
29.30
24.44
20.06
17.11
16.82
20.34
28.27
40.20
54.42
68.39
79.16
84.36
83.03
76.01
65.81
55.63
48.21
44.78
44.91
47.02
49.39
51.04
51.95
52.67
53.74
55.33
57.09
58.57
59.49
59.85
59.82
59.67
59.64
60.02
61.21
63.52
66.99
71.31
75.85
80.01
83.49
86.53
89.90
94.96
103.33
116.35
134.35
155.91
177.74
195.23
203.79
200.43
184.74
158.74
125.65
88.20
47.46
2.85
-46.62
-100.74
-156.79
-209.49
-252.53
-280.56
-290.96
-284.56
-265.01
-237.24
-205.71
-173.45
-141.92
-111.71
-83.45
-58.13
-36.90
-20.36
-7.92
2.31
12.89
26.03
42.59
61.74
81.30
98.78
112.38
121.52
126.69
128.58
127.42
122.73
113.89
100.87
84.79
67.64
51.43
37.15
24.32
11.26
-3.79
-21.61
-41.57
-61.85
-80.30
-95.10
-105.16
-109.99
-109.70
-104.89
-96.70
-86.67
-76.02
-65.13
-53.20
-38.79
-21.17
-1.37
17.74
32.53
40.32
40.77
35.57
27.23
17.27
5.28
-10.40
-31.17
-56.52
-83.32
-106.49
-120.87
-122.95
-112.04
-90.30
-61.86
-31.72
-4.74
15.27
26.07
27.20
19.89
6.60
-9.75
-26.28
-40.79
-51.93
-59.07
-62.10
-61.23
-56.99
-50.31
-42.69
-35.68
-30.38
-26.84
-23.74
-18.72
-9.28
6.32
28.20
54.52
82.25
107.97
129.02
144.08
153.07
156.68
155.69
150.70
142.23
131.18
118.96
107.30
97.73
90.82
85.99
81.79
76.78
70.24
62.59
55.20
49.54
46.47
45.66
45.74
44.95
41.82
35.68
26.86
16.48
5.97
-3.29
-10.31
-14.58
-15.89
-14.38
-10.37
-4.49
2.44
9.39
15.58
20.82
25.58
30.61
36.06
40.92
42.70
38.31
25.30
3.21
-25.88
-58.01
-88.69
-114.47
-133.61
-146.12
-153.09
-156.05
-156.71
-156.86
-158.18
-161.70
-167.39
-173.86
-178.64
-178.86
-172.05
-156.84
-133.29
-103.15
-69.56
-36.63
-8.41
12.08
23.74
27.53
25.91
21.81
17.56
14.57
13.48
14.75
18.89
26.35
36.96
49.39
61.19
69.34
71.32
66.02
54.11
37.86
20.43
4.99
-6.03
-11.50
-11.72
-8.17
-3.00
1.77
5.14
7.72
11.42
18.41
29.81
44.76
60.51
73.55
81.03
81.74
76.24
65.87
51.94
35.00
15.07
-7.66
-32.22
-56.60
-78.21
-94.66
-104.66
-108.25
-106.77
-102.30
-96.88
-91.89
-87.75
-84.02
-79.84
-74.44
-67.49
-59.00
-49.26
-38.47
-26.79
-14.24
-0.93
12.85
26.64
39.96
52.42
63.66
73.27
80.53
84.62
84.77
80.67
72.72
62.11
50.57
39.75
30.79
24.07
19.24
15.67
12.87
10.68
9.13
8.34
8.14
8.28
8.52
8.90
9.82
11.90
15.64
21.15
28.21
36.35
45.19
54.51
64.07
73.57
82.51
90.21
96.06
99.73
101.24
100.99
99.34
96.41
92.01
85.75
77.28
66.67
54.40
41.13
27.47
13.80
0.31
-12.65
-24.32
-33.61
-39.31
-40.73
-38.23
-33.18
-27.60
-23.50
-22.17
-23.98
-28.57
-35.37
-43.89
-53.90
-65.00
-76.43
-87.14
-96.29
-103.79
-110.55
-118.03
-127.46
-139.03
-151.68
-163.77
-173.87
-181.39
-186.46
-189.16
-188.65
-182.94
-169.71
-147.37
-116.35
-79.26
-39.91
-1.89
32.86
64.09
92.38
117.54
137.91
150.78
153.75
146.38
130.67
110.27
88.61
67.35
46.12
23.59
-0.84
-26.03
-49.38
-68.11
-80.62
-87.15
-89.37
-89.24
-88.04
-85.93
-82.15
-75.68
-65.87
-52.78
-37.13
-20.12
-3.13
12.39
25.37
35.29
42.29
47.07
50.41
52.81
54.38
54.94
54.34
52.63
50.21
47.52
44.85
42.14
38.92
34.74
29.38
23.08
16.43
10.17
4.85
0.69
-2.42
-5.01
-7.65
-10.96
-15.29
-20.57
-26.12
-30.77
-33.17
-32.20
-27.41
-19.13
-8.52
2.90
13.64
22.65
29.35
33.54
35.16
34.15
30.70
25.22
18.57
12.00
6.83
4.14
4.57
8.29
14.91
23.54
32.85
41.22
47.27
50.17
50.07
47.92
44.98
42.00
38.76
34.06
26.42
14.95
0.08
-16.48
-32.42
-45.76
-55.47
-61.37
-63.38
-60.82
-52.36
-36.71
-13.79
14.59
45.02
73.78
98.42
118.58
135.62
151.10
165.46
177.35
184.28
183.97
175.57
159.97
139.22
115.66
91.09
66.52
42.54
19.59
-1.68
-20.53
-36.33
-48.86
-58.43
-65.85
-71.91
-76.84
-79.90
-79.42
-73.56
-61.55
-44.62
-26.02
-10.07
-0.27
2.14
-1.51
-8.05
-14.34
-18.67
-21.32
-23.78
-27.60
-33.33
-40.20
-46.98
-52.57
-56.80
-60.28
-63.83
-67.74
-71.49
-73.90
-73.81
-70.82
-65.50
-59.34
-54.10
-51.02
-50.23
-50.68
-50.38
-47.09
-39.00
-25.20
-5.83
17.87
43.92
69.81
92.86
110.64
121.32
124.05
119.03
107.58
91.53
72.87
53.38
34.69
18.45
6.66
1.49
4.60
16.47
35.60
58.54
80.54
97.05
105.02
103.72
94.57
80.09
62.76
44.29
25.56
7.17
-9.94
-24.26
-34.14
-38.56
-37.70
-33.00
-26.55
-20.30
-15.24
-11.34
-7.84
-3.79
1.33
7.35
13.45
18.40
20.98
20.42
16.62
10.26
2.72
-4.29
-9.11
-10.44
-7.62
-0.67
9.75
22.75
37.24
52.16
66.54
79.45
90.06
97.71
101.86
102.29
99.25
93.39
85.68
77.07
68.22
59.37
50.44
40.98
30.44
18.13
3.30
-14.62
-35.44
-57.87
-79.20
-95.86
-104.59
-103.94
-95.06
-81.69
-68.81
-60.77
-59.94
-66.11
-77.18
-90.31
-103.17
-114.34
-123.43
-130.51
-135.82
-139.68
-142.37
-144.19
-145.33
-145.89
-145.64
-144.36
-142.06
-139.76
-139.60
-144.24
-155.67
-173.74
-195.45
-215.61
-228.63
-230.83
-221.64
-203.37
-179.22
-151.25
-119.37
-82.06
-38.08
12.05
65.41
117.66
164.39
202.67
231.60
252.33
267.24
279.12
290.45
302.78
316.71
332.03
348.07
363.77
377.85
388.52
393.59
391.04
379.28
357.74
326.77
287.50
241.72
191.77
140.63
91.46
47.08
9.28
-21.45
-45.73
-64.87
-80.37
-93.50
-105.15
-115.67
-124.75
-131.57
-134.99
-134.25
-129.33
-120.87
-109.73
-96.62
-82.23
-67.57
-54.40
-44.85
-40.65
-42.22
-48.29
-56.36
-64.00
-69.83
-73.88
-76.96
-79.68
-81.82
-82.33
-79.98
-74.05
-64.76
-53.05
-40.10
-26.82
-13.61
-0.42
13.09
27.27
42.21
57.53
72.07
83.83
90.30
89.15
79.23
61.27
37.96
13.01
-10.22
-29.97
-46.60
-61.96
-78.00
-95.32
-112.49
-126.46
-133.79
-132.34
-122.36
-106.58
-89.55
-76.20
-70.44
-74.06
-86.18
-103.42
-120.65
-132.33
-134.31
-125.20
-107.15
-85.15
-65.30
-52.42
