1564751931.00
64.000000
-0.00
-0.00
-0.00
-0.00
-0.00
-0.00
-0.00
-0.00
-0.00
-0.00
0.00
0.01
0.01
-0.00
-0.03
-0.05
-0.05
0.00
0.13
0.36
0.66
1.01
1.37
1.72
2.06
2.40
2.79
3.24
3.80
4.42
5.07
5.68
6.24
6.74
7.26
7.87
8.63
9.62
10.78
11.99
13.14
14.17
15.14
16.19
17.55
19.36
21.86
24.84
28.03
31.14
34.01
36.70
39.54
42.98
47.34
53.02
59.66
66.75
73.70
80.17
86.23
92.39
99.38
107.76
118.08
129.87
142.32
154.53
165.94
176.59
187.14
198.97
210.85
225.07
242.25
262.49
284.55
305.49
320.98
326.41
318.48
296.36
262.51
220.78
175.48
129.79
85.17
41.88
-0.22
-40.80
-79.01
-113.43
-143.35
-168.49
-188.84
-204.76
-216.29
-223.18
-225.10
-221.99
-214.15
-202.75
-189.29
-175.24
-161.75
-149.37
-138.09
-127.60
-117.63
-107.66
-97.71
-88.12
-79.27
-71.49
-64.79
-58.93
-53.56
-48.32
-43.01
-37.69
-32.60
-28.01
-24.13
-21.02
-18.61
-16.73
-15.19
-13.84
-12.62
-11.51
-10.53
-9.66
-8.88
-8.15
-7.42
-6.70
-6.00
-5.39
-4.94
-4.73
-4.82
-5.23
-5.96
-6.97
-8.20
-9.55
-10.94
-12.28
-13.49
-14.47
-15.19
-15.62
-15.76
-15.64
-15.32
-14.90
-14.44
-14.04
-13.76
-13.65
-13.70
-13.92
-14.26
-14.67
-15.10
-15.52
-15.89
-16.16
-16.33
-16.37
-16.29
-16.12
-15.92
-15.75
-15.69
-15.76
-15.98
-16.30
-16.65
-16.99
-17.26
-17.48
-17.68
-17.94
-18.30
-18.82
-19.49
-20.25
-21.04
-21.81
-22.56
-23.36
-24.30
-25.44
-26.81
-28.31
-29.79
-31.13
-32.29
-33.43
-34.85
-36.90
-39.85
-43.77
-48.48
-53.62
-58.85
-63.99
-69.14
-74.61
-80.80
-87.95
-96.05
-104.84
-113.95
-123.20
-132.65
-142.57
-153.29
-164.99
-177.69
-191.58
-207.25
-225.54
-246.78
-269.86
-291.83
-308.44
-315.67
-311.54
-296.94
-275.20
-250.32
-225.37
-201.66
-179.25
-158.20
-139.28
-123.84
-112.63
-104.83
-97.98
-89.10
-76.41
-60.41
-43.89
-30.50
-22.91
-21.40
-23.59
-25.65
-24.07
-17.31
-6.35
6.04
16.91
24.64
29.70
33.98
39.37
46.47
54.22
60.68
64.49
65.95
67.02
70.14
76.74
86.17
96.03
103.32
106.30
105.42
103.20
102.75
106.11
113.06
121.35
127.95
130.83
130.06
127.78
126.94
129.58
135.54
142.46
146.87
146.14
139.85
130.09
120.36
113.67
110.97
110.89
110.67
108.01
102.47
95.64
89.91
86.87
86.03
85.05
81.16
73.02
61.71
50.32
42.40
39.93
42.37
46.83
49.60
48.04
41.79
32.77
24.15
18.66
17.30
19.06
21.63
22.86
21.90
19.64
17.95
18.34
20.84
23.83
24.90
22.23
16.03
8.54
2.93
1.66
4.96
10.69
15.44
16.50
13.23
7.41
2.12
-0.06
1.58
5.51
9.00
9.66
6.84
1.87
-2.72
-4.68
-3.30
0.24
3.66
4.97
3.66
1.03
-0.59
0.70
5.03
10.57
14.37
14.05
9.28
2.07
-4.27
-6.96
-5.16
-0.34
4.63
7.27
6.75
4.27
2.10
2.05
4.31
7.24
8.37
5.90
0.04
-7.00
-11.96
-12.30
-7.59
0.22
7.85
12.31
12.52
9.70
6.47
5.20
6.54
9.14
10.45
8.49
3.17
-3.41
-8.05
-8.31
-3.94
2.80
8.45
10.17
7.49
2.42
-1.80
-2.69
-0.05
3.92
5.99
3.88
-2.27
-9.87
-15.26
-15.80
-11.29
-4.08
2.47
5.74
5.33
3.09
1.78
3.31
7.38
11.64
13.00
9.66
2.37
-5.68
-10.43
-9.24
-2.28
7.33
15.18
17.78
14.48
7.54
0.77
-2.67
-2.03
0.96
3.39
3.19
0.46
-2.69
-3.64
-1.09
3.86
8.19
8.78
4.25
-3.99
-12.29
-16.65
-14.86
-7.61
1.72
8.86
10.74
6.97
-0.14
-6.93
-10.35
-9.47
-5.72
-1.79
0.03
-0.70
-2.51
-3.06
-0.74
4.13
9.32
11.94
10.24
4.68
-2.03
-6.43
-6.11
-1.13
5.99
11.72
13.38
10.55
5.13
0.16
-2.04
-1.10
1.23
2.41
0.77
-3.34
-7.64
-9.36
-6.97
-1.31
4.75
7.86
6.15
0.40
-6.32
-10.29
-9.22
-3.53
4.01
9.68
10.89
7.41
1.36
-4.05
-6.22
-4.48
-0.29
3.77
5.51
4.40
1.76
-0.21
0.06
2.42
5.03
5.56
2.95
-1.76
-5.74
-6.16
-2.00
5.01
11.24
13.24
9.83
2.98
-3.30
-5.22
-1.45
6.00
12.92
15.24
11.35
2.95
-5.77
-10.58
-9.40
-3.38
3.84
8.24
7.50
2.22
-4.61
-9.45
-10.22
-7.28
-3.06
-0.57
-1.55
-5.53
-10.21
-12.76
-11.53
-6.98
-1.42
2.31
2.42
-0.75
-4.98
-7.40
-6.21
-1.75
3.69
7.13
6.65
2.58
-2.59
-5.65
-4.52
0.53
6.96
11.41
11.51
7.34
1.26
-3.39
-4.30
-1.43
3.06
6.12
5.73
2.10
-2.41
-4.76
-3.10
2.16
8.59
13.13
13.86
11.05
6.80
3.64
2.97
4.24
5.37
4.34
0.55
-4.57
-8.27
-8.19
-4.00
2.22
6.89
6.94
1.67
-6.70
-14.06
-16.62
-12.99
-5.08
3.06
7.30
5.73
-0.38
-7.37
-11.10
-9.29
-2.65
5.53
11.11
11.35
6.23
-1.51
-7.91
-9.94
-7.03
-1.28
3.85
5.50
3.14
-1.44
-5.19
-5.94
-3.53
0.07
2.22
1.36
-1.83
-4.83
-4.82
-0.47
6.97
14.23
17.69
15.48
8.64
0.64
-4.31
-3.59
2.41
10.45
16.17
16.54
11.35
3.24
-3.87
-7.18
-6.40
-3.64
-1.84
-2.74
-5.75
-8.47
-8.44
-4.99
0.08
3.42
2.29
-3.66
-11.81
-17.87
-18.22
-11.97
-1.51
8.66
14.21
13.19
6.89
-0.93
-6.11
-6.25
-1.80
4.28
8.33
7.96
3.33
-2.96
-7.35
-7.36
-2.96
3.44
8.22
8.58
4.07
-3.18
-9.54
-11.88
-9.24
-3.25
2.78
5.62
4.03
-0.76
-5.78
-8.23
-7.07
-3.57
-0.23
0.98
0.01
-1.25
-0.40
3.69
9.77
14.78
15.62
11.31
3.57
-3.76
-6.97
-4.45
2.43
10.10
14.70
14.02
8.46
0.64
-6.11
-9.43
-9.07
-6.65
-4.50
-4.17
-5.40
-6.38
-5.04
-0.60
5.61
10.57
11.22
6.25
-2.75
-11.94
-17.14
-16.05
-9.42
-0.67
5.97
7.69
4.31
-1.85
-7.52
-10.36
-10.15
-8.58
-7.85
-9.23
-12.06
-14.30
-13.92
-10.52
-5.87
-3.09
-4.79
-11.44
-20.89
-29.41
-33.79
-32.95
-28.53
-23.90
-22.21
-24.93
-31.27
-39.00
-45.93
-51.17
-55.50
-60.56
-67.66
-76.86
-86.79
-95.51
-101.60
-105.24
-108.24
-113.14
-121.81
-134.41
-149.24
-163.69
-175.62
-184.58
-192.00
-200.37
-211.61
-225.83
-240.80
-252.54
-256.71
-250.08
-231.63
-202.83
-166.82
-126.96
-85.40
-42.24
4.42
56.83
116.28
181.94
250.43
316.53
374.65
420.43
451.64
468.07
470.76
461.11
440.65
411.08
374.69
334.37
293.28
254.25
219.07
188.22
161.08
136.48
113.35
91.17
70.12
50.90
34.27
20.61
9.76
1.04
-6.40
-13.30
-20.01
-26.48
-32.35
-37.19
-40.76
-43.08
-44.45
-45.26
-45.84
-46.38
-46.88
-47.20
-47.16
-46.68
-45.72
-44.43
-42.90
-41.29
-39.66
-38.04
-36.41
-34.74
-33.00
-31.18
-29.33
-27.47
-25.61
-23.77
-21.99
-20.28
-18.64
-17.07
-15.37
-13.68
-12.03
-10.43
-8.88
-7.35
-5.84
-4.34
-2.83
-1.29
0.27
1.85
3.50
5.21
7.00
8.85
10.77
12.78
14.87
17.04
19.30
21.69
24.21
26.86
29.62
32.44
35.32
38.27
41.28
44.38
47.65
51.12
54.76
58.40
61.83
64.76
66.82
67.60
66.75
63.99
59.08
51.93
42.30
30.18
15.72
-0.68
-18.49
-36.95
-55.19
-72.38
-87.15
-99.42
-109.32
-117.10
-123.03
-127.35
-130.03
-130.78
-129.31
-125.94
-120.59
-113.74
-106.57
-99.34
-92.24
-85.08
-77.41
-68.72
-59.01
-49.08
-40.29
-34.13
-31.58
-32.72
-36.49
-41.03
-44.52
-45.66
-44.25
-41.02
-37.20
-34.06
-32.89
-34.81
-40.36
-48.77
-57.42
-62.06
-58.31
-43.80
-19.89
8.28
33.60
49.87
54.36
48.45
36.23
22.15
8.98
-2.58
-12.96
-22.43
-30.48
-35.97
-38.15
-37.47
-35.59
-34.73
-36.93
-42.84
-51.98
-63.03
-74.57
-85.78
-96.74
-108.28
-121.50
-137.05
-154.38
-172.03
-188.07
-200.69
-208.71
-211.83
-210.29
-204.33
-195.72
-184.85
-171.35
-154.54
-133.99
-110.12
-84.20
-58.12
-33.78
-12.49
5.90
22.47
38.77
56.07
74.75
94.11
112.81
129.52
143.58
155.67
167.32
180.49
197.08
218.58
245.76
278.08
313.02
345.73
370.04
380.18
373.20
350.60
318.18
283.73
253.89
231.60
215.66
202.30
187.75
170.18
150.22
130.03
111.79
96.58
84.18
73.43
62.89
51.38
38.58
25.03
11.92
0.61
-8.07
-14.00
-17.73
-20.08
-21.79
-23.45
-25.72
-29.42
-35.15
-42.58
-50.04
-54.72
-53.66
-45.16
-29.63
-9.80
10.13
25.67
33.30
31.36
20.50
3.69
-14.54
-29.47
-37.78
-38.59
-33.60
-26.13
-19.33
-15.08
-13.47
-13.64
-14.75
-16.73
-20.21
-25.70
-32.74
-39.69
-44.27
-44.73
-40.92
-34.47
-28.05
-24.01
-23.12
-24.23
-25.08
-23.87
-20.45
-16.52
-14.47
-15.61
-18.91
-21.37
-19.64
-12.35
-1.48
8.33
12.11
7.37
-4.31
-17.97
-27.84
-30.49
-26.46
-19.82
-15.48
-16.41
-21.81
-27.63
-28.87
-22.72
-10.08
4.73
16.42
21.89
21.51
18.50
16.72
18.23
21.88
24.80
24.43
20.67
17.09
18.50
28.14
45.49
66.14
83.24
91.52
89.34
79.62
69.40
65.61
71.62
85.75
102.36
114.71
120.09
120.69
121.54
128.13
141.01
154.98
162.26
157.30
139.51
115.15
92.61
67.89
37.22
-2.94
-52.81
-107.58
-153.49
-184.43
-196.78
-190.31
-168.47
-137.25
-104.42
-77.99
-63.71
-62.74
-72.12
-84.23
-91.30
-89.08
-77.43
-60.55
-44.16
-32.31
-25.81
-23.65
-23.70
-25.61
-31.17
-41.89
-57.40
-74.39
-87.47
-91.90
-86.77
-74.85
-61.73
-53.04
-51.42
-55.61
-61.71
-65.51
-64.68
-59.71
-52.47
-44.93
-37.81
-30.34
-21.07
-9.21
4.42
17.33
26.26
28.89
24.87
16.22
6.67
0.59
1.23
9.55
23.03
37.26
47.62
51.56
49.75
44.99
40.46
38.10
38.04
39.17
39.73
38.33
33.86
26.27
14.64
-1.15
-19.82
-38.93
-54.96
-63.95
-62.99
-52.04
-34.38
-15.77
-1.71
4.89
4.13
-1.30
-6.81
-7.13
0.33
13.07
24.36
28.01
22.99
13.55
5.95
5.58
14.79
31.89
52.53
70.70
79.54
75.25
59.10
36.63
14.16
-4.58
-19.33
-31.72
-43.01
-52.66
-58.50
-58.68
-53.15
-43.87
-34.00
-26.61
-23.32
-23.90
-26.51
-28.50
-27.87
-24.16
-18.39
-12.41
-7.96
-5.96
-6.23
-7.74
-8.99
-8.87
-7.08
-4.15
-1.05
1.33
2.53
2.63
2.10
1.62
1.69
2.45
3.69
5.02
6.10
6.77
7.03
7.04
7.03
7.17
7.46
7.88
8.30
8.61
8.77
8.75
8.58
8.31
7.95
7.48
6.92
6.24
5.48
4.64
3.71
2.39
0.84
-0.89
-2.77
-4.82
-7.04
-9.42
-11.99
-14.79
-17.85
-21.17
-24.80
-28.77
-33.06
-37.67
-42.56
-47.76
-53.33
-59.38
-65.91
-72.98
-80.49
-88.26
-95.98
-103.15
-109.32
-114.00
-116.75
-117.10
-114.70
-109.31
-100.87
-89.85
-76.59
-61.81
-46.59
-32.28
-20.31
-11.91
-7.93
-8.66
-13.86
-22.81
-34.68
-48.53
-63.45
-78.37
-92.03
-102.79
-108.70
-107.72
-98.07
-78.78
-49.90
-12.59
31.12
78.79
128.05
176.83
223.42
266.22
303.34
332.57
351.52
358.39
352.39
334.27
306.30
271.83
234.90
199.76
170.75
151.54
143.68
145.27
150.46
151.09
140.05
114.92
79.21
40.93
8.50
-12.93
-23.10
-25.54
-24.99
-25.22
-28.28
-34.91
-44.85
-56.75
-67.59
-73.00
-68.51
-51.79
-24.20
9.67
42.93
68.80
82.38
81.65
67.78
44.85
19.22
-2.26
-14.72
-17.23
-12.96
-7.31
-4.70
-6.17
-9.33
-10.55
-7.91
-2.75
1.17
0.27
-6.50
-17.27
-28.80
-38.81
-47.12
-54.93
-62.92
-69.94
-73.12
-69.63
-58.71
-42.73
-26.48
-14.98
-11.08
-14.29
-21.14
-27.11
-29.01
-26.44
-21.48
-16.85
-13.93
-11.79
-8.39
-3.02
2.09
2.23
-6.88
-25.78
-50.13
-72.34
-85.44
-86.43
-77.05
-62.22
-46.91
-34.02
-24.21
-17.00
-12.22
-10.76
-14.36
-24.26
-40.18
-59.46
-77.32
-88.61
-90.21
-83.08
-72.54
-65.74
-67.45
-76.76
-86.97
-89.56
-79.79
-60.49
-41.13
-32.82
-41.96
-66.67
-97.88
-123.97
-136.34
-132.68
-116.69
-95.27
-74.67
-57.96
-44.76
-32.69
-19.47
-4.36
11.20
24.63
33.50
36.69
34.95
30.26
24.76
19.57
14.41
8.17
0.19
-8.85
-16.78
-20.79
-18.92
-11.24
-0.21
10.12
15.86
15.26
9.53
2.37
-1.83
-0.13
7.50
18.18
27.59
32.06
30.06
22.55
12.06
1.28
-8.10
-15.67
-21.69
-26.22
-28.85
-29.00
-26.64
-22.82
-19.50
-18.34
-19.21
-19.49
-14.93
-2.19
18.17
40.08
53.40
48.33
20.61
-25.66
-79.08
-125.67
-154.70
-162.30
-151.45
-129.10
-102.22
-75.50
-51.54
-32.31
-20.31
-18.08
-26.54
-43.38
-63.10
-78.82
-85.36
-81.30
-69.12
-53.13
-36.93
-21.38
-5.09
13.52
33.63
50.89
58.98
52.81
31.50
-0.49
-34.75
-62.06
-75.43
-71.60
-51.37
-18.82
19.77
57.47
88.63
110.79
125.10
135.91
149.25
170.47
202.04
242.39
286.69
328.30
360.20
377.34
375.10
350.35
303.17
238.31
164.13
90.10
23.10
-33.68
-82.72
-130.54
-183.79
-245.69
-314.38
-384.66
-450.54
-507.51
-553.23
-587.45
-610.06
-619.97
-617.67
-601.50
-569.79
-521.73
-457.73
-378.92
-287.54
-186.13
-77.34
35.70
148.39
255.02
349.81
428.42
491.22
537.63
565.32
570.93
551.68
508.34
446.73
377.18
312.65
265.09
240.19
239.72
261.83
301.60
352.17
405.42
450.60
479.67
489.17
480.76
460.17
434.43
408.23
382.10
353.51
319.45
278.72
232.17
184.78
137.82
91.60
47.41
8.24
-22.84
-45.30
-61.91
-77.89
-97.85
-123.03
-149.54
-170.75
-181.08
-179.12
-169.11
-158.44
-153.71
-157.43
-167.93
-181.00
-193.27
-203.91
-213.98
-224.53
-235.29
-244.35
-249.36
-249.21
-244.25
-236.56
-229.09
-224.41
-223.91
-227.25
-232.93
-239.05
-244.43
-248.68
-252.53
-257.04
-262.94
-270.04
-276.89
-281.01
-279.51
-270.85
-253.22
-225.48
-187.25
-138.90
-81.52
-16.91
52.34
122.88
190.78
251.91
302.09
337.72
356.19
356.16
337.72
302.23
251.75
189.47
119.34
45.49
-28.00
-97.39
-159.73
-212.78
-255.22
-286.50
-306.78
-316.97
-318.58
-313.42
-303.39
-290.16
-275.05
-258.98
-242.49
-225.78
-208.83
-191.56
-173.86
-155.70
-137.12
-118.29
-99.55
-81.53
-64.98
-50.71
-39.40
-31.35
-26.34
-23.68
-22.36
-21.33
-19.87
-17.74
-15.16
-12.56
-10.25
-8.16
-5.75
-2.27
2.87
9.66
17.43
25.03
31.34
35.93
39.37
43.18
49.29
59.19
73.24
90.45
108.85
126.36
141.67
154.78
166.83
179.76
195.63
216.17
242.38
273.81
307.65
338.19
357.64
358.47
336.81
294.96
241.57
188.81
148.06
126.04
123.35
135.68
156.43
179.06
198.21
209.62
210.04
197.64
172.85
138.82
100.87
64.94
35.88
16.39
6.84
5.78
10.47
17.62
24.02
27.26
26.34
21.91
15.65
9.34
3.91
-0.95
-6.30
-13.07
-21.08
-28.84
-34.19
-35.33
-31.90
-25.22
-17.54
-10.76
-5.45
-0.47
5.86
14.64
25.06
34.35
38.57
34.06
18.97
-5.73
-35.94
-65.08
-85.77
-92.50
-84.13
-64.80
-42.81
-27.35
-24.80
-36.10
-56.87
-79.90
-98.49
-109.36
-112.97
-112.07
-109.21
-104.65
-96.17
-80.50
-55.36
-21.28
18.07
57.43
92.16
120.46
143.36
163.34
181.48
196.09
203.97
202.96
194.89
185.72
182.93
190.82
207.01
222.61
226.85
213.03
182.53
144.11
108.14
80.09
57.22
30.91
-6.75
-55.85
-106.60
-143.26
-152.62
-132.22
-92.68
-52.74
-29.89
-31.86
-53.85
-82.66
-105.07
-114.43
-112.87
-107.94
-106.44
-109.76
-113.18
-109.32
-92.76
-63.16
-24.91
15.31
52.36
84.70
114.08
144.04
177.22
213.89
251.26
284.79
310.47
325.16
327.24
316.43
293.01
256.78
206.92
143.14
67.46
-15.03
-95.70
-164.85
-215.51
-245.66
-259.12
-263.56
-266.90
-274.08
-285.79
-299.30
-311.07
-318.54
-320.54
-316.80
-306.90
-289.83
-264.40
-229.97
-186.86
-136.36
-80.56
-21.92
36.69
91.99
140.71
179.96
207.95
224.34
229.99
226.49
215.55
198.89
178.57
157.36
138.45
124.36
115.81
111.07
106.54
98.44
84.56
65.16
42.65
20.22
0.37
-15.98
-29.32
-40.73
-50.99
-60.11
-67.46
-72.08
-72.94
-68.94
-59.03
-42.42
-18.70
11.73
47.62
86.88
126.93
165.19
199.67
229.05
252.41
268.86
277.37
276.70
265.84
244.56
213.84
175.89
133.53
89.64
46.27
4.39
-36.04
-75.69
-115.15
-154.92
-195.23
-235.66
-274.51
-308.24
-331.76
-340.13
-331.08
-306.87
-274.53
-243.57
-222.33
-214.91
-220.14
-232.93
-247.47
-260.07
-270.14
-279.36
-289.36
-300.08
-309.76
-316.11
-318.04
-315.96
-311.32
-304.65
-294.62
-277.77
-250.25
-210.54
-160.96
-107.67
-58.47
-20.31
3.76
13.76
12.32
2.95
-11.22
-27.72
-45.53
-63.06
-78.09
-88.07
-91.33
-87.31
-76.56
-60.98
-42.59
-22.70
-0.82
24.71
55.55
91.92
131.87
171.77
207.46
236.04
256.46
269.26
275.20
274.52
266.73
251.52
229.69
203.25
174.92
146.74
119.42
92.81
67.21
44.72
29.31
25.30
34.31
53.74
76.72
94.79
101.72
96.21
82.37
67.21
56.74
52.44
50.97
46.44
34.26
14.79
-6.26
-20.18
-19.41
-1.55
29.32
64.49
94.39
112.69
117.72
111.31
95.83
71.75
37.65
-7.14
-58.98
-108.91
-144.87
-156.45
-140.15
-100.99
-50.26
-0.30
40.69
70.77
92.62
109.88
124.10
133.63
135.80
129.83
118.51
107.85
104.64
113.31
134.03
162.65
192.69
217.97
234.33
240.32
236.14
222.58
200.05
168.63
128.59
80.79
26.84
-31.65
-93.43
-157.64
-222.90
-286.37
-343.42
-388.38
-416.29
-424.23
-412.23
-382.86
-340.94
-293.04
-246.80
-209.91
-188.77
-186.91
-203.81
-234.67
-271.14
-303.20
-321.45
-319.20
-294.15
-248.91
-190.50
-127.84
-68.91
-17.90
25.89
67.20
111.82
162.84
218.56
272.34
314.56
335.61
329.16
294.74
238.64
172.92
111.78
67.47
46.44
47.59
63.31
82.86
96.25
97.40
85.31
63.00
35.64
8.65
-13.07
-25.48
-25.78
-13.62
8.04
33.14
54.26
65.60
65.05
54.98
40.44
26.49
15.73
7.50
-1.07
-12.44
-26.22
-38.35
-42.55
-33.76
-11.47
18.75
46.66
60.82
52.76
20.31
-32.11
-95.32
-158.50
-212.39
-251.07
-272.32
-277.14
-268.91
-252.26
-232.19
-212.96
-197.14
-185.15
-175.51
-165.36
-151.15
-129.76
-99.27
-59.46
-11.58
42.30
99.87
158.35
214.18
262.94
300.02
322.01
328.11
320.59
303.69
281.86
258.25
234.88
213.74
197.43
188.63
188.13
192.54
194.05
182.89
151.83
100.63
37.76
-22.09
-63.63
-77.60
-65.02
-36.44
-6.51
13.10
18.50
13.67
6.37
3.03
5.19
9.65
11.45
7.66
-0.89
-10.46
-17.02
-18.50
-15.06
-7.97
1.91
14.59
30.16
47.40
63.78
75.91
80.99
78.08
68.35
54.29
38.71
23.78
11.02
2.11
-0.70
4.92
19.93
42.40
67.50
89.32
103.37
108.15
105.13
96.59
82.98
62.37
32.18
-7.38
-50.96
-88.38
-108.18
-102.68
-71.93
-24.59
24.66
59.64
67.88
44.34
-7.68
-77.87
-152.25
-217.24
-262.87
-284.27
-280.89
-254.67
-208.81
-147.82
-78.63
-11.21
43.08
75.08
82.22
70.70
54.01
47.79
63.55
104.03
162.26
225.39
279.57
314.06
323.17
306.28
266.97
212.63
153.26
99.22
57.91
30.84
12.04
-9.73
-45.91
-102.42
-175.65
-252.67
-315.52
-347.91
-341.39
-298.31
-230.74
-155.60
-88.94
-41.16
-15.11
-7.55
-12.76
-26.64
-48.13
-78.31
-116.79
-159.30
-197.35
-221.00
-222.79
-200.36
-157.17
-100.58
-39.51
17.68
63.92
93.92
104.38
94.43
65.50
21.21
-33.06
-90.55
-143.30
-183.62
-206.56
-212.77
-210.28
-211.94
-229.53
-266.57
-314.79
-357.07
-375.80
-362.35
-321.59
-269.49
-224.86
-200.85
-200.71
-219.05
-246.40
-273.24
-291.23
-292.43
-269.16
-215.97
-133.46
-31.35
72.25
155.94
202.69
206.61
175.03
125.26
78.02
49.96
49.36
75.82
122.92
181.52
242.10
295.75
334.91
354.63
354.48
339.36
317.80
298.29
285.64
279.35
275.08
268.15
256.15
238.62
215.00
183.14
140.26
86.42
27.85
-23.52
-54.41
-56.98
-33.39
4.92
42.62
67.61
75.91
71.95
64.22
60.77
65.64
78.16
94.75
111.65
127.18
141.55
157.11
176.18
200.05
227.96
257.27
284.03
304.24
314.90
314.34
304.21
283.97
251.54
204.97
144.96
76.40
7.88
-50.98
-94.14
-119.94
-133.01
-141.66
-153.92
-174.15
-201.73
-232.33
-260.59
-282.82
-297.54
-305.33
-307.18
-303.79
-295.64
-283.68
-269.63
-255.81
-244.50
-236.82
-232.58
-230.21
-227.49
-222.41
-214.04
-202.83
-190.22
-177.81
-166.40
-155.92
-145.45
-133.90
-120.71
-106.21
-91.68
-78.55
-67.65
-58.57
-49.62
-38.04
-20.44
6.56
45.22
95.62
154.83
216.94
274.20
319.32
347.88
359.22
357.01
347.47
336.78
328.96
325.05
323.67
322.50
319.50
313.33
303.27
288.63
268.56
242.50
210.64
174.32
135.90
98.10
63.19
32.54
6.32
-16.18
-36.02
-54.02
-70.38
-84.69
-96.28
-104.61
-109.62
-111.80
-112.06
-111.35
-110.39
-109.42
-108.29
-106.63
-104.13
-100.65
-96.37
-91.66
-86.92
-82.44
-78.31
-74.46
-70.70
-66.87
-62.89
-58.79
-54.67
-50.67
-46.87
-43.34
-40.06
-37.01
-34.15
-31.46
-28.93
-26.56
-24.35
-22.29
-20.37
-18.60
-16.97
-15.47
-14.05
-12.73
-11.52
-10.44
-9.47
-8.60
-7.83
-7.14
-6.53
-5.98
-5.50
-5.08
-4.70
-4.37
-4.06
-3.78
-3.53
-3.30
-3.08
-2.89
-2.72
-2.57
-2.43
-2.29
-2.17
-2.06
-1.95
-1.85
-1.76
-1.68
-1.61
-1.54
-1.47
-1.41
-1.35
-1.30
-1.25
-1.20
-1.15
-1.12
-1.08
-1.04
-1.01
-0.97
-0.94
-0.91
-0.88
-0.86
-0.83
-0.81
-0.79
-0.76
-0.74
-0.73
-0.71
-0.69
-0.68
-0.67
-0.67
-0.66
-0.66
-0.65
-0.64
-0.61
-0.57
-0.51
-0.41
-0.30
-0.21
-0.14
-0.16
-0.24
-0.34
-0.43
-0.46
-0.40
-0.28
-0.15
-0.06
-0.05
-0.13
-0.24
-0.32
-0.30
-0.15
0.09
0.31
0.44
0.38
0.16
-0.11
-0.27
-0.15
0.30
0.97
1.62
1.97
1.84
1.26
0.53
0.05
0.20
1.14
2.60
4.04
4.84
4.61
3.40
1.79
0.56
0.45
1.74
4.02
6.40
7.86
7.88
6.67
5.29
4.95
6.60
10.45
15.69
20.79
24.13
24.30
20.25
11.34
-2.41
-19.66
-37.32
-51.01
-56.23
-50.93
-36.56
-17.81
-0.70
10.10
13.11
10.09
4.50
-0.69
-4.32
-6.81
-9.10
-11.52
-13.49
-14.11
-13.01
-10.94
-9.13
-8.75
-10.32
-13.21
-16.12
-17.84
-17.94
-16.92
-16.08
-16.78
-19.62
-24.26
-29.41
-33.51
-35.31
-34.48
-31.41
-26.77
-21.09
-14.28
-5.69
5.46
19.69
37.12
57.18
78.90
100.10
117.02
125.10
120.49
102.17
73.14
39.78
9.74
-11.56
-22.31
-24.56
-22.31
-19.17
-16.79
-14.86
-12.52
-9.42
-6.32
-4.43
-4.61
-6.55
-9.00
-10.47
-9.87
-7.21
-3.41
0.19
2.48
3.05
2.32
1.29
1.03
2.23
4.84
8.26
11.63
14.25
15.81
16.58
17.13
18.11
19.95
22.70
26.13
29.94
33.92
37.92
42.07
46.45
51.02
55.50
59.30
61.65
61.87
59.42
54.07
45.92
35.33
22.87
9.49
-4.05
-16.92
-28.36
-37.74
-44.72
-49.22
-51.44
-52.07
-51.40
-49.96
-48.16
-46.19
-44.10
-41.84
-39.43
-36.97
-34.73
-32.85
-31.60
-30.93
-30.59
-30.17
-29.27
-27.77
-25.88
-24.14
-23.14
-23.33
-24.68
-26.65
-28.41
-29.21
-28.77
-27.47
-26.24
-26.14
-27.92
-31.49
-36.02
-40.19
-42.99
-43.95
-43.51
-42.69
-42.61
-44.15
-47.89
-54.12
-62.62
-72.04
-79.49
-81.03
-73.03
-54.13
-26.66
3.89
30.73
48.74
56.21
55.09
49.28
42.34
36.19
30.86
25.78
20.93
17.44
16.98
20.49
27.82
37.43
47.32
55.52
60.99
63.66
63.97
62.44
59.28
54.37
47.28
37.75
26.02
12.97
-0.10
-11.94
-21.52
-28.53
-33.26
-36.53
-39.26
-42.16
-45.54
-49.28
-53.25
-57.17
-61.03
-64.73
-68.50
-72.61
-77.13
-82.00
-86.93
-91.48
-95.00
-96.76
-95.92
-91.52
-82.85
-69.65
-52.16
-31.24
-8.15
15.68
38.47
59.26
77.47
92.82
105.09
114.10
119.61
121.53
120.54
116.98
111.98
106.85
102.66
99.90
98.37
97.34
95.99
93.82
90.67
87.06
83.60
80.68
78.62
77.88
79.10
82.64
87.55
90.91
88.46
76.18
52.49
19.84
-15.74
-46.77
-67.36
-75.43
-72.81
-63.82
-52.88
-42.87
-35.12
-30.39
-29.61
-33.94
-43.22
-54.93
-64.20
-65.97
-57.59
-40.58
-20.78
-5.52
-0.15
-5.60
-18.49
-33.05
-44.52
-51.16
-54.04
-55.29
-56.32
-56.53
-53.82
-46.02
-32.04
-12.15
12.51
39.98
67.60
91.78
108.31
113.47
105.97
87.92
64.62
42.58
27.03
19.73
19.39
23.03
28.00
33.28
38.97
45.17
50.75
53.40
50.50
40.78
24.93
5.28
-15.05
-33.50
-48.92
-61.85
-73.96
-86.80
-100.69
-114.57
-126.99
-134.86
-136.31
-131.05
-120.46
-106.97
-93.00
-80.30
-69.99
-62.71
-58.23
-55.56
-52.41
-45.55
-32.10
-11.20
14.82
40.88
60.16
68.24
64.35
51.60
35.20
19.68
7.46
-1.10
-6.85
-10.35
-10.49
-5.89
4.28
19.66
38.33
57.33
73.54
84.64
89.63
88.78
83.29
74.10
63.16
51.43
39.20
26.31
12.51
-2.04
-16.49
-29.33
-39.22
-44.92
-46.45
-44.37
-39.42
-32.36
-23.40
-13.54
-4.98
-0.74
-2.87
-11.45
-23.46
-33.97
-38.56
-35.96
-29.00
-22.74
-21.65
-27.03
-37.16
-48.44
-57.70
-63.73
-67.19
-69.71
-72.05
-73.72
-73.14
-69.37
-62.60
-53.95
-45.24
-37.62
-31.56
-26.44
-20.87
-13.36
-3.09
9.87
24.51
38.69
51.27
61.40
68.85
73.94
77.18
79.03
79.67
78.96
76.70
73.01
68.18
62.70
57.11
51.86
47.33
43.94
41.16
38.61
36.14
33.61
31.02
28.46
26.08
23.99
22.17
20.55
19.11
17.86
16.68
15.53
14.42
13.41
12.64
12.21
12.23
12.84
14.07
15.76
17.74
19.81
21.85
24.11
26.21
27.88
28.83
28.68
26.98
23.50
18.31
11.97
5.37
-0.55
-5.08
-7.94
-9.38
-9.96
-10.27
-10.61
-10.61
-9.55
-6.68
-1.60
5.50
13.75
21.93
29.08
34.75
39.38
43.78
48.67
54.22
60.38
67.08
74.17
80.98
85.68
85.35
76.84
58.66
31.93
1.25
-26.84
-46.76
-56.04
-55.82
-48.93
-38.13
-24.33
-7.77
12.06
34.78
58.09
78.76
94.13
104.08
109.69
112.71
112.79
109.11
101.15
88.66
72.72
55.16
38.95
24.79
15.45
9.53
5.17
1.12
-4.00
-10.77
-19.73
-30.06
-42.57
-48.78
-44.84
-30.84
-10.40
11.24
31.38
40.26
41.12
37.08
27.61
9.35
-20.39
-53.30
-84.64
-111.38
-132.52
-146.94
-155.75
-163.95
-176.28
-193.46
-212.21
-229.45
-242.99
-252.89
-259.64
-265.68
-278.52
-304.14
-343.19
-390.92
-441.32
-488.71
-528.97
-558.48
-543.95
-469.70
-344.63
-197.22
-56.32
61.44
152.05
218.24
265.37
298.47
316.68
319.86
310.99
295.98
280.71
268.89
261.73
258.89
259.36
258.00
251.19
238.43
221.84
204.22
187.20
171.02
155.30
139.64
121.44
99.07
74.46
49.42
25.96
5.32
-11.92
-25.44
-34.83
-40.96
-44.69
-46.71
-47.86
-48.93
-50.85
-54.08
-58.23
-62.05
-64.52
-64.85
-62.95
-59.76
-56.68
-55.36
-57.17
-62.95
-72.30
-83.00
-90.89
-90.82
-78.71
-53.54
-18.75
18.87
51.30
72.83
82.09
81.98
77.58
73.54
72.47
74.24
76.84
76.81
70.49
55.08
29.89
-2.95
-38.61
-70.83
-95.22
-108.66
-111.27
-105.19
-92.95
-76.27
-55.98
-32.83
-7.74
16.39
37.24
53.36
64.89
73.14
79.75
86.02
92.19
97.69
101.68
103.59
103.24
101.12
97.96
94.59
91.52
88.87
86.34
83.16
78.73
72.08
62.43
49.34
32.88
13.78
-6.67
-26.92
-45.77
-61.88
-75.38
-86.90
-97.12
-106.63
-116.00
-125.80
-136.31
-146.70
-154.92
-156.89
-148.80
-129.05
-99.70
-66.33
-36.07
-14.67
-4.37
-3.53
-8.30
-14.83
-21.09
-26.98
-33.34
-40.55
-48.02
-54.46
-58.93
-61.51
-63.08
-64.76
-67.26
-70.15
-72.06
-71.33
-66.29
-56.22
-41.43
-23.09
-2.64
18.56
39.61
59.93
78.39
94.53
107.76
117.44
123.29
125.49
124.78
122.17
118.56
114.96
111.09
106.58
101.22
95.27
89.47
84.76
81.92
80.94
81.09
81.13
80.05
77.33
73.33
69.06
65.66
64.03
64.79
68.28
74.26
81.40
86.69
85.92
75.20
53.00
21.65
-13.07
-43.94
-65.33
-75.32
-75.92
-71.29
-65.28
-59.85
-54.85
-49.38
-43.06
-36.62
-31.41
-28.34
-27.17
-26.66
-25.28
-21.80
-16.19
-9.35
-2.68
2.63
6.05
7.99
9.44
11.56
15.12
20.13
26.00
31.86
36.92
40.73
43.38
45.25
46.75
47.99
48.62
47.98
45.37
40.27
32.52
22.43
10.66
-2.00
-14.37
-25.98
-36.37
-45.21
-52.35
-57.68
-61.23
-63.12
-63.88
-63.58
-62.64
-61.38
-60.05
-58.83
-57.77
-56.87
-56.13
-55.55
-55.07
-54.84
-54.90
-55.19
-55.75
-56.48
-57.23
-57.85
-58.18
-58.08
-57.43
-56.47
-54.62
-51.50
-46.85
-40.46
-32.44
-23.20
-13.49
-4.18
3.89
10.25
14.74
17.62
19.42
20.54
21.08
20.73
18.96
15.36
10.01
3.47
-3.20
-8.90
-12.93
-15.31
-16.59
-17.74
-19.53
-22.02
-24.48
-25.51
-24.02
-19.61
-13.14
-6.33
-1.20
0.43
-2.74
-11.21
-24.35
-40.26
-55.30
-64.56
-62.98
-47.75
-19.95
15.24
50.56
79.62
98.78
108.16
110.54
109.45
107.41
105.20
102.45
99.38
97.46
98.35
102.90
110.64
119.84
128.52
135.23
136.35
127.36
107.80
80.50
50.07
20.59
-5.86
-29.00
-49.44
-67.59
-83.05
-94.63
-101.55
-104.06
-103.29
-100.99
-98.75
-97.76
-98.37
-100.23
-102.30
-103.77
-104.36
-104.39
-104.53
-105.44
-107.56
-110.70
-114.49
-118.17
-120.98
-122.48
-122.38
-120.51
-116.56
-110.79
-102.00
-89.45
-72.74
-51.90
-27.49
-0.50
27.78
56.00
81.41
103.02
120.12
132.44
140.07
143.36
142.89
139.36
133.49
126.07
118.09
110.02
102.13
94.59
87.43
80.64
74.21
67.92
61.80
56.18
51.05
46.37
42.09
38.16
34.51
31.10
27.75
24.46
21.52
18.76
16.04
13.17
10.01
6.45
3.27
-0.27
-4.30
-8.42
-12.45
-16.10
-19.05
-20.98
-21.62
-20.78
-18.48
-15.66
-11.65
-6.70
-1.27
4.06
8.76
12.40
14.77
16.54
17.29
17.32
16.76
15.77
14.49
13.16
12.11
11.86
12.81
15.07
18.71
23.07
27.26
30.39
31.90
31.72
30.13
27.76
25.12
22.63
20.28
18.31
17.50
19.15
24.62
34.26
46.59
58.35
65.98
66.98
61.75
52.81
43.04
33.85
24.89
15.61
7.26
3.88
10.03
28.93
59.59
96.89
134.07
166.08
191.21
210.22
223.90
229.89
225.22
207.28
177.26
140.80
105.76
78.12
58.63
46.42
35.72
22.52
3.48
-21.54
-50.36
-80.56
-111.37
-143.97
-180.50
-224.96
-275.71
-331.59
-389.49
-444.79
-491.72
-524.05
-536.03
-524.10
-490.88
-437.10
-369.01
-292.86
-212.85
-130.17
-44.02
46.00
151.77
244.75
320.26
370.97
393.76
391.33
370.95
341.19
308.71
276.28
240.96
204.01
164.82
125.58
90.18
62.03
41.99
27.56
14.03
-5.06
-29.72
-58.93
-88.22
-111.32
-122.43
-118.53
-100.26
-71.89
-41.42
-15.11
0.59
2.66
-7.27
-22.96
-36.35
-38.95
-24.86
5.99
48.09
89.35
115.75
115.65
83.55
19.64
-67.53
-162.01
-244.47
-298.16
-314.80
-296.20
-252.94
-200.53
-158.26
-140.29
-151.81
-188.06
-237.96
-287.97
-324.61
-337.00
-319.24
-277.49
-223.81
-171.91
-132.22
-110.93
-110.33
-128.20
-158.87
-165.98
-127.06
-44.24
57.94
155.33
235.82
296.31
338.33
364.93
380.84
384.70
377.18
360.06
338.03
315.13
291.30
264.61
232.44
194.25
144.63
90.83
42.62
9.96
-3.01
-0.85
8.84
8.97
-1.20
-22.15
-52.97
-91.34
-133.79
-167.34
-187.92
-196.37
-196.91
-193.44
-191.70
-195.51
-203.63
-208.83
-202.24
-180.28
-144.95
-104.04
-67.66
-47.33
-52.29
-83.48
-132.41
-185.19
-229.65
-257.16
-264.26
-251.88
-211.04
-148.91
-85.06
-37.02
-9.79
0.16
-1.01
-8.54
-19.22
-29.84
-36.77
-34.91
-21.38
3.30
34.21
65.14
90.91
109.23
120.43
128.27
136.84
147.60
158.45
165.19
164.72
156.70
143.56
129.54
123.68
132.43
155.94
188.63
223.35
255.31
283.36
309.01
335.02
371.68
426.04
497.96
580.60
664.41
740.02
799.16
834.82
797.64
668.54
471.67
261.86
86.00
-38.14
-115.76
-160.52
-185.29
-198.77
-196.79
-178.76
-151.03
-124.21
-107.77
-105.71
-116.42
-136.29
-162.60
-187.61
-207.92
-227.59
-253.63
-281.68
-303.83
-312.16
-302.37
-288.49
-262.70
-221.36
-169.91
-109.92
-52.75
-10.88
8.15
2.78
-21.89
-53.09
-85.03
-117.90
-153.45
-193.41
-235.31
-270.56
-289.80
-285.81
-255.32
-209.26
-165.47
-138.17
-135.62
-156.75
-191.46
-229.39
-262.52
-265.50
-227.62
-158.59
-79.55
-10.21
34.40
65.27
89.58
107.51
114.95
105.02
72.52
21.25
-43.37
-115.91
-190.99
-257.43
-302.10
-314.76
-296.87
-273.46
-249.18
-225.15
-202.28
-174.56
-142.88
-108.71
-72.59
-36.05
-0.34
37.32
77.37
119.68
165.68
213.95
262.06
307.19
346.40
377.92
404.99
429.86
454.68
482.60
512.32
539.14
556.70
560.04
547.91
525.66
498.50
470.11
442.85
413.65
376.54
326.17
261.46
185.16
103.44
19.07
-77.35
-181.91
-282.70
-367.45
-428.70
-461.46
-471.12
-456.37
-418.13
-361.81
-295.07
-228.32
-169.34
-127.27
-105.14
-100.05
-101.59
-99.70
-89.84
-71.89
-48.05
-19.67
15.37
60.19
115.23
176.38
235.75
287.38
325.78
352.64
373.63
394.26
416.82
437.81
446.89
432.95
390.52
323.60
243.78
164.22
94.78
39.78
-2.05
-39.90
-82.82
-134.85
-193.52
-252.59
-306.90
-354.18
-394.44
-428.79
-464.67
-507.64
-558.25
-612.39
-665.03
-714.44
-762.05
-809.56
-816.11
-754.39
-623.55
-451.25
-273.45
-116.45
6.76
93.87
149.97
184.27
200.10
199.88
186.91
166.78
145.41
127.36
115.41
110.56
112.20
113.71
109.14
96.24
78.00
59.69
45.39
38.16
38.79
46.29
55.40
61.23
61.39
57.22
51.60
47.07
44.98
45.28
47.02
47.40
44.20
36.84
27.32
18.30
12.01
9.64
11.28
16.45
24.19
34.46
44.79
55.37
67.21
81.60
99.61
121.54
146.44
171.63
192.95
205.53
206.07
193.42
169.43
138.27
104.94
73.46
45.88
22.32
1.82
-16.10
-31.52
-44.25
-54.45
-62.97
-71.12
-79.92
-89.29
-98.02
-103.86
-104.83
-100.07
-90.03
-76.28
-60.75
-45.23
-30.93
-18.61
-8.43
-0.17
6.91
14.06
22.68
33.86
47.82
63.82
80.41
95.99
109.16
118.95
124.89
127.08
126.19
123.39
120.03
117.06
114.66
112.10
108.27
102.41
94.73
86.42
78.91
73.08
68.59
64.01
57.53
47.62
33.65
15.92
-4.53
-26.21
-47.33
-66.03
-80.77
-90.76
-96.56
-100.19
-104.61
-112.70
-125.89
-143.15
-160.98
-174.30
-178.35
-170.45
-151.09
-123.88
-94.27
-67.95
-49.21
-40.24
-40.90
-49.36
-62.80
-78.07
-92.26
-102.91
-108.17
-106.94
-98.96
-85.03
-67.03
-47.72
-30.02
-15.90
-5.29
4.40
17.88
40.53
76.65
127.58
190.81
260.08
326.56
380.84
415.05
424.49
408.14
368.44
310.25
239.87
164.28
90.62
25.63
-25.35
-59.50
-77.49
-83.42
-83.49
-83.98
-89.13
-100.09
-114.95
-129.81
-140.27
-142.88
-136.22
-121.51
-102.44
-84.11
-71.21
-65.98
-66.94
-69.21
-66.45
-53.45
-28.35
6.62
46.03
83.05
111.17
125.32
122.23
100.71
61.85
9.42
-50.27
-109.22
-159.39
-194.41
-210.93
-208.97
-191.45
-163.25
-129.87
-96.04
-64.56
-35.70
-7.60
22.51
56.38
93.49
130.71
163.23
186.17
196.19
192.13
174.83
146.54
110.18
69.03
26.45
-14.45
-51.37
-83.22
-110.09
-132.74
-151.81
-167.42
-179.13
-186.36
-188.85
-186.87
-180.94
-171.56
-158.91
-142.98
-123.93
-102.42
-79.64
-57.04
-35.75
-16.22
1.88
19.37
37.02
55.15
73.51
91.40
108.07
122.97
135.92
146.87
155.74
162.18
165.67
165.80
162.60
156.70
149.16
141.19
133.64
126.73
119.93
112.17
102.30
89.58
74.11
57.03
40.33
26.28
16.61
11.79
10.61
10.37
7.80
0.27
-13.15
-31.20
-50.90
-68.59
-81.30
-87.82
-88.93
-86.87
-84.29
-83.14
-83.81
-84.73
-82.63
-73.41
-53.41
-20.81
23.42
75.32
128.87
177.75
217.33
245.84
264.02
273.74
276.18
270.99
256.60
231.55
196.11
153.07
107.40
65.13
31.58
9.74
-0.75
-3.71
-5.46
-12.87
-31.12
-61.74
-101.99
-145.93
-186.69
-219.17
-241.48
-254.87
-262.19
-266.07
-267.60
-266.14
-260.26
-248.89
-231.97
-210.35
-185.05
-156.57
-125.00
-90.63
-54.76
-20.07
10.02
32.77
47.48
55.86
61.33
67.05
74.37
82.05
86.89
85.44
75.86
58.92
37.86
17.27
1.45
-6.96
-7.46
-1.45
8.51
19.47
28.69
33.91
33.68
27.51
16.16
1.56
-13.62
-26.69
-35.83
-40.59
-41.99
-41.91
-42.35
-44.70
-49.34
-55.83
-63.27
-70.77
-77.67
-83.63
-88.42
-91.88
-93.89
-94.53
-94.27
-93.95
-94.57
-96.88
-101.17
-107.03
-113.47
-119.16
-122.78
-123.32
-120.15
-112.74
-100.49
-82.59
-58.19
-27.00
10.13
50.86
91.72
129.02
159.94
183.36
199.97
211.70
220.85
229.22
237.78
246.66
255.45
263.50
270.19
275.03
277.90
278.90
278.18
275.71
270.87
262.43
248.71
228.03
199.52
163.65
122.45
79.17
37.54
0.72
-29.42
-52.56
-69.48
-81.31
-88.69
-91.26
-87.78
-76.78
-57.63
-31.39
-1.05
28.89
53.45
68.36
71.00
60.86
39.52
10.18
-22.94
-55.29
-82.76
-102.37
-112.93
-115.30
-112.18
-107.27
-104.23
-105.55
-112.13
-123.19
-136.65
-149.88
-160.29
-165.93
-165.83
-160.04
-149.48
-135.66
-120.22
-104.68
-90.16
-77.28
-66.29
-57.05
-49.25
-42.52
-36.58
-31.25
-26.51
-22.41
-18.96
-16.09
-13.61
-11.37
-9.40
-7.89
-7.20
-7.60
-9.17
-11.63
-14.51
-17.28
-19.56
-21.21
-22.24
-22.78
-22.92
-22.75
-22.36
-21.90
-21.52
-21.37
-21.55
-22.07
-22.92
-23.97
-25.09
-26.02
-26.50
-26.21
-24.95
-22.65
-19.46
-15.71
-11.75
-7.96
-4.62
-1.90
0.13
1.48
2.23
2.49
2.42
2.21
2.02
1.96
2.12
2.51
3.09
3.76
4.41
4.87
5.04
4.82
4.24
3.38
2.31
1.13
-0.16
-1.58
-3.16
-4.90
-6.81
-8.86
-11.04
-13.34
-15.64
-17.74
-19.32
-19.99
-19.43
-17.50
-14.27
-10.06
-5.39
-0.79
3.25
6.41
8.55
9.73
10.12
9.97
9.48
8.79
8.06
7.40
6.96
6.84
7.04
7.45
7.83
7.97
7.74
7.13
6.30
5.42
4.63
3.97
3.35
2.63
1.73
0.62
-0.70
-2.24
-4.04
-6.10
-8.28
-10.29
-11.63
-11.83
-10.55
-7.78
-3.79
0.93
5.87
10.59
14.76
18.16
20.63
22.10
22.59
22.29
21.43
20.31
19.18
18.24
17.60
17.28
17.19
17.14
16.90
16.24
15.10
13.58
11.91
10.32
8.93
7.67
6.41
5.00
3.36
1.49
-0.56
-2.79
-5.12
-7.34
-9.10
-9.93
-9.44
-7.48
-4.20
-0.01
4.61
9.18
13.32
16.73
19.18
20.50
20.68
19.89
18.50
16.96
15.65
14.72
14.17
13.85
13.60
13.34
13.09
12.86
12.64
12.35
11.85
11.07
10.05
8.90
7.79
6.81
5.87
4.83
3.50
1.81
-0.13
-2.04
-3.58
-4.40
-4.28
-3.12
-0.94
2.09
5.64
9.23
12.32
14.39
15.20
14.81
13.53
11.83
10.08
8.49
7.06
5.78
4.60
3.64
3.00
2.72
2.72
2.75
2.55
1.93
0.89
-0.42
-1.73
-2.79
-3.42
-3.62
-3.57
-3.57
-3.95
-4.91
-6.48
-8.42
-10.31
-11.69
-12.13
-11.42
-9.54
-6.71
-3.25
0.46
4.07
7.28
9.85
11.62
12.46
12.38
11.51
10.16
8.69
7.46
6.70
6.38
6.29
6.12
5.65
4.78
3.64
2.41
1.24
0.18
-0.85
-1.93
-3.14
-4.52
-6.14
-8.08
-10.37
-12.96
-15.59
-17.86
-19.36
-19.77
-19.04
-17.36
-15.02
-12.33
-9.54
-6.80
-4.22
-1.92
-0.00
1.43
2.31
2.64
2.41
1.68
0.58
-0.75
-2.14
-3.55
-5.06
-6.94
-9.52
-13.06
-17.65
-23.13
-29.20
-35.43
-41.41
-46.71
-50.99
-53.96
-55.52
-55.82
-55.32
-54.71
-54.73
-55.97
-58.68
-62.79
-67.99
-73.83
-79.98
-86.18
-92.17
-97.62
-102.04
-104.81
-105.39
-103.50
-99.34
-93.57
-87.06
-80.54
-74.14
-67.34
-59.26
-49.27
-37.66
-25.75
-15.37
-7.85
-3.22
0.04
4.12
10.63
19.60
29.62
38.92
46.61
53.31
60.49
69.19
78.86
87.45
92.57
93.04
89.66
84.80
80.86
78.86
77.93
76.03
71.36
63.53
53.66
43.56
34.62
27.09
20.30
13.56
7.03
2.14
1.07
5.75
17.02
34.42
56.50
81.48
107.69
133.57
157.41
177.29
191.43
198.89
200.16
197.22
192.81
189.40
188.09
188.13
187.21
182.23
170.34
149.71
120.14
83.17
41.75
-0.41
-39.60
-72.87
-98.37
-115.41
-124.21
-125.52
-120.43
-110.30
-96.79
-81.73
-66.77
-53.13
-41.25
-30.84
-21.15
-11.37
-0.93
10.35
22.28
34.41
46.09
56.63
65.53
72.67
78.55
84.13
90.45
97.98
106.26
113.88
119.02
120.37
117.85
112.87
107.90
105.49
107.21
112.87
120.06
124.64
121.88
108.02
82.00
46.45
7.30
-28.00
-53.34
-66.51
-70.29
-71.33
-77.13
-92.70
-118.38
-150.10
-181.41
-206.02
-219.71
-220.84
-209.91
-188.84
-160.34
-127.37
-92.38
-56.26
-17.91
25.03
74.16
127.68
179.29
219.47
239.08
233.33
203.96
158.42
106.62
57.03
14.25
-21.30
-51.96
-80.99
-111.40
-145.80
-186.67
-235.91
-293.46
-356.03
-416.88
-467.27
-499.21
-508.33
-495.31
-465.31
-425.95
-384.87
-347.85
-318.01
-295.87
-279.99
-267.80
-256.51
-243.94
-228.95
-211.45
-191.80
-169.82
-144.14
-112.33
-71.93
-21.75
37.08
100.95
164.54
222.36
270.35
306.85
332.89
351.42
366.29
380.83
396.98
415.08
433.98
451.43
464.53
470.41
467.17
454.82
435.49
412.60
389.12
365.71
340.26
309.08
269.43
221.83
170.73
123.05
85.23
60.38
47.04
39.94
32.22
17.81
-7.38
-45.32
-96.09
-157.84
-226.14
-293.86
-351.93
-391.67
-407.67
-399.67
-372.40
-333.27
-289.19
-243.99
-198.23
-151.22
-103.63
-58.83
-22.08
1.82
10.81
6.17
-8.71
-30.18
-55.48
-82.52
-108.74
-130.03
-141.18
-137.78
-118.59
-86.81
-49.24
-13.69
14.06
32.16
42.57
49.21
55.73
63.89
73.43
82.93
91.16
97.98
104.10
110.30
116.48
121.30
122.84
119.68
111.92
101.36
90.83
82.94
78.84
77.70
77.13
74.35
67.35
55.85
41.26
26.12
13.07
4.14
0.38
1.77
7.18
14.11
18.49
14.76
-3.04
-39.22
-93.83
-161.01
-229.39
-284.97
-315.76
-315.97
-287.90
-240.68
-186.52
-136.37
-97.02
-70.59
-55.79
-49.77
-49.39
-51.52
-52.98
-50.79
-43.09
-30.17
-14.87
-1.74
4.76
2.23
-8.44
-23.40
-37.33
-45.61
-45.94
-39.18
-29.00
-20.56
-18.71
-26.12
-42.10
-62.26
-79.57
-86.37
-77.14
-50.67
-11.14
33.07
72.10
98.07
107.60
102.39
87.76
69.97
53.59
40.05
28.06
15.25
0.29
-15.79
-29.94
-38.56
-39.48
-33.04
-21.81
-9.10
2.64
12.58
20.88
27.56
31.85
32.61
29.80
25.59
24.10
29.61
44.21
66.57
92.42
116.88
136.80
151.77
163.39
173.55
182.96
191.00
196.90
200.91
204.54
209.49
215.78
220.64
219.15
206.62
181.27
145.71
106.00
69.05
39.72
19.55
7.34
1.06
-0.30
3.90
15.38
35.43
63.85
98.76
137.09
175.38
210.41
239.76
262.30
278.47
290.09
299.32
307.39
313.82
316.88
315.10
308.46
298.75
288.42
278.76
268.44
253.67
229.55
192.07
139.88
75.26
4.13
-64.81
-121.71
-157.99
-168.87
-155.36
-124.27
-86.48
-53.52
-34.23
-32.59
-47.62
-74.52
-106.55
-136.65
-158.77
-168.85
-165.56
-150.28
-126.34
-97.51
-66.78
-35.95
-6.29
20.35
40.85
51.13
47.56
28.92
-2.46
-40.88
-79.11
-110.88
-133.17
-147.08
-156.67
-166.94
-181.50
-201.55
-226.28
-254.20
-284.19
-315.43
-346.47
-374.29
-394.64
-403.54
-399.17
-382.68
-357.56
-327.84
-296.55
-265.19
-234.45
-205.15
-178.51
-155.59
-136.33
-119.40
-102.91
-85.69
-68.09
-51.63
-37.89
-27.42
-19.59
-13.37
-8.37
-5.33
-5.65
-10.30
-18.93
-29.81
-40.45
-48.73
-53.57
-54.99
-53.57
-49.94
-44.62
-38.20
-31.70
-26.43
-23.63
-23.69
-25.89
-28.48
-29.28
-26.22
-17.72
-2.74
18.98
46.33
76.37
104.31
124.43
131.85
124.35
103.47
74.02
42.53
15.02
-4.65
-15.29
-17.96
-14.60
-7.09
3.41
16.36
31.50
48.16
65.14
80.63
92.68
99.99
102.20
100.02
94.73
87.63
79.39
69.99
58.88
45.57
30.23
14.04
-0.84
-11.84
-16.87
-15.30
-8.24
1.71
11.39
18.35
21.64
21.86
20.56
19.13
17.90
16.21
12.95
7.69
1.30
-4.32
-7.17
-6.41
-2.99
0.97
3.54
4.25
4.52
6.63
11.87
19.01
24.26
23.00
12.50
-6.04
-27.33
-44.14
-50.55
-44.70
-29.44
-10.52
6.35
18.24
25.73
31.71
38.98
48.43
58.39
65.85
68.21
64.82
57.44
49.70
45.90
49.73
63.26
86.12
115.48
146.76
174.84
195.52
206.35
206.67
196.68
176.65
146.43
105.89
55.72
-2.19
-65.45
-132.36
-202.54
-276.32
-352.70
-427.46
-492.72
-539.07
-559.20
-551.21
-519.61
-473.44
-422.56
-374.01
-330.53
-291.26
-254.03
-217.37
-181.07
-145.36
-109.83
-73.07
-33.37
9.88
55.66
101.90
146.75
190.10
233.19
277.24
321.49
362.25
393.73
410.32
408.83
389.41
354.82
308.79
255.09
197.67
141.55
93.08
58.76
42.92
45.53
61.96
84.51
105.26
118.58
122.31
117.22
105.96
91.71
77.47
65.71
58.02
54.85
55.25
57.14
58.02
55.64
48.69
36.92
21.37
4.00
-12.46
-25.23
-32.34
-33.60
-31.08
-28.54
-30.02
-37.88
-51.72
-68.42
-83.72
-94.01
-97.71
-95.20
-87.84
-76.83
-62.66
-45.63
-26.62
-7.63
8.52
19.18
23.05
20.75
14.42
6.79
0.02
-4.98
-8.47
-11.27
-14.04
-16.85
-19.14
-20.25
-19.68
-17.40
-13.57
-8.36
-2.09
4.53
9.98
12.14
9.09
0.47
-11.84
-24.02
-31.84
-32.52
-25.93
-14.41
-1.38
10.31
19.30
25.43
28.84
29.32
26.41
20.45
13.34
8.45
9.28
17.62
32.21
49.01
63.01
70.57
71.07
66.80
61.43
57.88
56.91
57.14
56.16
52.05
44.36
34.18
23.27
13.25
4.94
-1.68
-7.11
-11.94
-16.57
-21.18
-25.76
-30.22
-34.43
-38.36
-42.05
-45.59
-49.06
-52.39
-55.31
-57.39
-58.20
-57.59
-55.85
-53.64
-52.02
-52.23
-55.36
-61.98
-71.70
-83.14
-94.23
-103.01
-108.09
-108.96
-105.76
-98.96
-89.21
-77.46
-65.09
-53.88
-45.51
-40.94
-39.85
-40.56
-40.67
-37.80
-30.23
-17.14
1.53
25.14
52.41
81.34
109.50
134.55
154.69
169.11
177.85
181.66
181.57
178.55
173.48
167.08
160.02
152.92
146.25
140.30
135.06
130.21
125.24
119.52
112.34
103.11
91.45
77.56
62.21
46.68
32.34
20.16
10.43
2.84
-3.13
-7.88
-11.64
-14.65
-17.33
-20.00
-22.69
-24.65
-24.56
-21.20
-14.10
-3.92
7.82
19.30
28.97
35.69
38.71
37.52
32.14
23.30
12.44
1.31
-8.69
-16.87
-23.26
-28.10
-31.39
-32.74
-31.73
-28.33
-23.07
-16.80
-10.26
-3.88
2.19
7.66
11.85
13.78
12.40
7.30
-0.82
-9.96
-17.22
-19.54
-14.63
-1.69
18.27
42.47
66.96
87.59
101.10
105.90
102.61
93.52
81.59
69.21
57.44
45.96
33.79
20.30
5.81
-8.48
-21.31
-32.06
-41.11
-49.50
-58.26
-67.98
-78.64
-89.96
-101.43
-112.69
-123.59
-134.24
-144.76
-154.88
-163.40
-168.06
-166.16
-155.88
-137.59
-114.38
-91.35
-73.78
-64.92
-64.76
-70.08
-75.97
-77.65
-72.24
-59.37
-41.03
-20.68
-2.01
12.16
20.69
24.30
25.00
25.04
25.91
27.93
30.39
32.47
33.86
35.07
36.87
39.53
42.15
42.76
39.22
30.39
17.04
1.89
-11.43
-20.04
-23.27
-23.05
-22.89
-25.88
-33.19
-43.40
-53.54
-60.75
-63.88
-63.97
-63.49
-64.92
-69.50
-76.78
-85.14
-92.78
-98.65
-102.84
-106.35
-110.23
-114.76
-118.98
-120.89
-118.40
-110.49
-97.92
-82.86
-67.66
-53.51
-39.80
-24.79
-7.16
12.57
31.73
46.67
54.66
55.51
51.81
47.88
47.81
53.74
65.14
79.14
91.79
99.66
101.02
96.38
88.26
80.18
75.49
76.36
83.29
95.21
109.77
123.72
133.09
133.71
122.28
97.81
62.79
23.03
-13.97
-41.69
-56.83
-60.05
-54.82
-45.08
-33.39
-20.55
-6.58
7.79
20.52
29.09
32.08
30.20
26.13
23.16
23.59
27.65
33.68
38.96
41.03
38.65
32.08
22.97
13.63
6.23
1.86
-0.08
-1.77
-5.88
-13.87
-24.48
-33.44
-34.97
-24.34
-0.51
32.66
67.41
94.91
108.72
106.95
92.32
70.17
45.76
22.28
0.59
-19.59
-38.27
-54.41
-66.43
-73.41
-75.91
-75.84
-75.37
-75.77
-76.84
-77.58
-77.16
-75.78
-74.47
-74.27
-75.37
-76.76
-76.69
-73.55
-66.67
-56.33
-43.33
-28.23
-11.18
7.65
27.53
46.82
63.43
75.88
84.18
89.97
95.78
103.79
114.97
129.12
145.50
163.65
183.43
204.29
224.33
240.09
247.66
244.54
231.27
211.48
190.55
173.22
161.76
155.47
151.79
147.98
142.74
136.62
131.41
128.88
129.64
132.63
135.44
135.01
128.54
114.29
92.04
63.12
30.02
-4.37
-37.50
-67.59
-93.66
-115.36
-132.77
-146.46
-157.70
-168.36
-180.55
-195.76
-214.05
-233.76
-252.08
-266.11
-274.06
-275.89
-273.13
-268.05
-262.63
-257.83
-253.53
-248.93
-243.10
-235.49
-226.02
-214.95
-202.50
-188.70
-173.43
-156.75
-139.24
-122.26
-107.58
-96.87
-91.00
-89.71
-91.66
-94.77
-96.80
-95.84
-90.98
-82.57
-72.39
-63.26
-58.20
-59.20
-65.96
-75.36
-82.01
-80.10
-65.58
-38.06
-1.23
38.39
73.81
100.08
115.57
121.69
121.21
116.29
107.39
93.51
73.63
48.27
20.05
-7.15
-29.85
-46.58
-58.23
-67.28
-76.27
-86.54
-98.01
-109.52
-119.67
-127.22
-131.20
-130.90
-126.23
-118.25
-109.56
-103.82
-104.38
-112.76
-127.78
-145.91
-162.90
-175.23
-181.08
-180.38
-173.75
-161.84
-145.62
-127.18
-110.38
-100.29
-101.00
-113.12
-132.47
-150.98
-159.61
-152.15
-127.38
-89.02
-43.44
3.31
47.48
87.49
122.65
151.80
172.90
184.18
185.52
179.17
169.25
160.44
156.50
159.50
169.82
186.94
209.92
237.10
265.57
291.22
309.92
319.28
320.24
316.91
314.36
315.61
319.18
319.29
308.33
280.38
234.07
173.45
106.83
44.67
-2.45
-25.70
-20.01
13.98
68.71
130.71
184.46
217.71
225.41
210.77
182.64
150.70
121.75
98.30
79.53
63.41
48.14
32.51
15.80
-2.29
-21.22
-39.40
-54.97
-67.13
-77.25
-88.52
-104.15
-124.88
-147.72
-166.56
-174.47
-166.77
-143.01
-107.26
-66.36
-27.54
3.99
25.95
38.90
45.42
49.07
53.66
62.83
79.48
104.89
137.91
174.25
206.55
226.11
225.51
201.42
156.25
97.28
33.66
-27.22
-82.09
-131.50
-177.12
-218.64
-252.26
-272.18
-274.09
-258.55
-231.66
-202.51
-178.88
-164.10
-156.80
-153.33
-150.91
-148.96
-147.89
-146.70
-141.67
-127.49
-100.61
-62.50
-20.47
15.01
35.25
37.70
27.04
12.28
1.70
-1.53
-0.68
-3.01
-15.10
-38.67
-69.02
-96.83
-112.12
-108.19
-83.49
-41.10
13.23
72.92
131.21
181.30
216.97
234.37
234.22
223.14
211.98
211.50
227.15
255.72
286.17
304.72
301.14
273.26
227.35
174.43
125.29
86.74
60.75
45.99
39.74
38.95
39.82
37.31
25.63
0.20
-39.69
-89.48
-140.20
-181.42
-204.89
-207.08
-189.55
-157.63
-118.22
-78.10
-42.95
-16.73
-1.30
4.02
2.45
-1.14
-1.87
3.34
14.46
28.44
40.55
46.11
42.22
28.39
6.51
-19.95
-47.01
-71.08
-89.51
-100.78
-104.43
-100.97
-91.93
-79.68
-66.93
-56.00
-48.12
-43.16
-40.09
-38.26
-38.45
-43.16
-55.50
-76.99
-105.68
-135.73
-159.01
-168.19
-159.72
-135.05
-99.60
-60.18
-22.22
11.49
40.50
65.23
85.65
100.98
110.45
114.18
113.55
110.54
106.71
102.60
97.82
91.84
84.90
78.29
73.75
72.48
74.10
76.60
77.10
73.28
64.61
52.89
41.57
34.34
33.62
39.56
49.96
61.22
69.72
73.08
70.71
63.47
52.81
40.00
25.82
10.76
-4.41
-18.56
-30.49
-39.40
-45.38
-49.21
-51.78
-53.39
-53.44
-51.02
-45.82
-38.73
-31.60
-26.26
-23.48
-22.50
-21.69
-19.76
-16.66
-13.56
-11.75
-11.45
-11.29
-9.09
-3.22
6.07
16.58
25.24
29.82
30.06
27.62
24.96
23.99
25.20
27.72
30.13
31.46
31.52
30.80
29.87
29.04
28.35
27.84
27.85
28.90
31.45
35.43
40.22
44.81
48.32
50.30
50.78
50.03
48.26
45.55
41.99
37.82
33.55
29.73
26.65
24.11
21.54
18.36
14.49
10.61
8.04
8.12
11.50
17.54
24.29
29.18
30.11
26.55
19.86
12.84
8.40
8.21
11.85
16.88
19.93
18.22
11.00
-0.03
-11.29
-18.78
-19.83
-14.27
-4.58
5.04
10.28
8.13
-2.37
-20.08
-42.45
-66.13
-87.51
-103.35
-111.47
-111.63
-105.78
-97.54
-90.66
-87.31
-86.91
-86.38
-81.66
-69.70
-50.09
-25.19
0.79
23.53
40.02
49.13
51.43
48.05
39.54
25.15
3.00
-28.70
-69.90
-117.29
-164.17
-202.15
-224.00
-226.28
-210.73
-183.43
-152.20
-123.68
-101.37
-85.49
-74.58
-67.36
-63.62
-63.76
-67.36
-71.95
-73.25
-66.74
-49.94
-23.89
7.00
36.76
60.24
74.89
81.14
81.46
78.91
76.02
74.32
74.53
76.97
81.69
88.63
97.58
108.14
119.75
131.59
142.67
152.00
159.01
164.00
168.29
173.81
182.23
194.29
209.47
226.28
242.71
256.70
266.20
269.28
264.38
250.84
229.53
202.87
174.16
146.19
120.31
96.07
72.14
47.39
21.65
-4.43
-30.34
-56.47
-84.14
-114.56
-147.66
-181.27
-211.53
-234.14
-245.91
-245.90
-235.51
-217.82
-196.55
-175.01
-155.42
-138.59
-123.97
-109.95
-94.62
-76.46
-55.15
-31.77
-8.62
11.46
25.96
33.28
33.00
25.78
13.06
-3.25
-21.09
-38.49
-53.88
-66.17
-74.89
-80.01
-81.71
-80.13
-75.23
-66.82
-54.82
-39.48
-21.67
-2.77
15.52
31.67
44.58
53.69
58.75
59.48
55.55
46.96
34.56
20.46
7.92
0.49
0.84
9.81
25.96
46.04
65.91
81.66
90.51
91.24
84.25
71.24
54.70
37.32
21.37
8.35
-1.15
-7.24
-10.48
-11.60
-11.39
-10.61
-10.01
-10.19
-11.48
-13.77
-16.55
-19.04
-20.44
-20.21
-18.16
-14.52
-9.82
-4.73
0.14
4.48
8.34
12.15
16.52
21.90
28.34
35.39
42.43
49.01
55.12
61.07
67.07
72.79
77.31
79.50
78.68
74.96
69.19
62.40
55.23
47.85
40.02
31.68
23.11
14.79
7.19
0.49
-5.31
-10.15
-13.69
-15.46
-15.21
-13.23
-10.40
-7.99
-7.30
-9.30
-14.49
-22.77
-33.41
-45.09
-56.18
-65.28
-71.79
-76.08
-79.18
-82.09
-85.04
-87.25
-87.40
-84.39
-78.08
-69.38
-59.79
-50.60
-42.36
-34.92
-27.81
-20.82
-14.30
-9.06
-5.96
-5.53
-7.65
-11.56
-16.05
-19.85
-21.90
-21.71
-19.46
-16.12
-13.25
-12.64
-15.81
-23.44
-35.04
-48.86
-62.26
-72.43
-77.07
-75.16
-67.21
-55.09
-41.43
-28.86
-19.28
-13.54
-11.47
-12.26
-14.92
-18.57
-22.51
-26.14
-28.86
-30.08
-29.48
-27.21
-23.92
-20.51
-17.79
-16.26
-16.08
-17.20
-19.56
-23.09
-27.59
-32.52
-36.94
-39.65
-39.56
-36.02
-29.00
-19.05
-6.97
6.48
20.71
35.17
49.09
61.25
70.16
74.50
73.66
68.19
59.75
50.56
42.54
36.66
32.60
29.15
24.86
18.82
11.04
2.39
-5.90
-12.81
-17.94
-21.68
-24.95
-28.84
-34.21
-41.35
-49.93
-58.94
-67.03
-72.79
-75.28
-74.43
-71.13
-67.02
-63.87
-62.88
-64.27
-67.25
-70.45
-72.49
-72.46
-69.97
-65.06
-57.97
-49.05
-38.74
-27.65
-16.45
-5.75
4.13
13.21
21.77
30.12
38.38
46.45
53.98
60.61
66.06
70.12
72.65
73.54
72.63
69.82
65.21
59.14
52.30
45.68
40.32
36.95
35.63
35.53
35.13
32.78
27.36
18.66
7.38
-5.35
-18.54
-31.68
-44.67
-57.53
-70.04
-81.68
-91.90
-100.42
-107.32
-112.92
-117.39
-120.58
-122.16
-121.96
-120.40
-118.40
-117.11
-117.26
-118.72
-120.56
-121.56
-120.90
-118.58
-115.53
-113.05
-112.21
-113.25
-115.27
-116.44
-114.47
-107.17
-93.14
-72.26
-45.96
-17.07
10.88
34.62
52.12
63.09
68.68
70.73
70.82
69.69
67.38
63.72
58.92
53.74
49.24
46.10
44.26
42.97
41.44
39.50
37.96
38.44
42.56
51.08
63.26
76.90
89.02
96.91
99.14
96.02
89.36
81.62
74.81
69.72
65.77
61.58
55.90
48.28
39.47
31.04
24.67
21.56
21.87
24.90
29.28
33.60
36.74
38.19
37.91
36.17
33.23
29.17
23.94
17.44
9.83
1.58
-6.59
-14.04
-20.49
-26.19
-31.82
-38.21
-45.97
-55.20
-65.50
-76.12
-86.27
-95.42
-103.37
-110.26
-116.35
-121.80
-126.52
-130.18
-132.40
-133.00
-132.23
-130.80
-129.79
-130.32
-133.20
-138.59
-145.89
-153.80
-160.45
-163.77
-161.98
-154.16
-140.71
-123.64
-106.10
-91.60
-82.81
-80.60
-83.69
-89.00
-92.85
-92.21
-85.76
-74.13
-59.38
-44.02
-29.92
-17.94
-8.05
0.06
6.34
10.34
11.55
10.11
7.07
4.10
2.75
3.88
7.53
13.39
21.37
31.74
44.72
59.76
75.18
88.40
96.74
98.27
92.13
78.21
56.66
27.67
-8.17
-49.00
-91.11
-129.20
-157.59
-171.94
-170.64
-155.15
-129.16
-96.99
-62.00
-26.00
10.54
47.44
83.94
118.40
148.60
172.54
189.08
198.28
201.22
199.66
195.51
190.47
185.75
182.01
179.30
176.98
173.70
167.41
155.63
136.08
107.49
70.37
27.33
-17.23
-58.14
-90.52
-110.84
-117.50
-110.95
-93.63
-69.56
-43.79
-21.50
-6.92
-2.25
-7.15
-18.85
-33.02
-45.00
-51.23
-50.10
-42.24
-30.01
-16.52
-4.50
4.57
10.62
14.63
17.82
20.91
23.72
25.25
24.26
19.96
12.63
3.84
-4.09
-8.90
-9.33
-5.71
0.23
6.23
10.69
13.43
15.72
19.55
26.65
37.72
52.15
68.34
84.21
97.78
107.71
113.66
116.30
117.02
117.19
117.55
117.74
116.61
112.86
105.71
95.22
82.09
67.24
51.55
36.05
22.23
12.22
8.14
11.17
20.76
34.45
48.74
60.36
67.55
70.41
70.34
69.00
67.29
65.09
61.71
56.65
50.26
43.78
38.78
36.55
37.58
41.59
47.88
55.79
64.94
75.17
86.21
97.39
107.46
115.00
118.90
118.97
116.16
112.18
108.64
106.30
104.63
102.14
97.19
88.80
77.09
63.04
47.94
32.79
18.15
4.37
-8.10
-18.53
-26.12
-30.37
-31.30
-29.42
-25.48
-20.22
-14.20
-7.93
-1.87
3.50
7.79
10.77
12.28
12.16
10.26
6.50
1.08
-5.55
-12.99
-21.13
-30.33
-41.02
-53.06
-65.24
-75.44
-81.28
-80.99
-74.05
-61.19
-44.16
-25.29
-7.27
7.16
15.59
16.55
10.27
-1.17
-14.33
-25.56
-32.20
-33.42
-30.07
-24.07
-17.40
-11.50
-6.81
-2.90
1.40
7.58
16.86
29.70
45.55
62.88
79.65
93.86
104.00
109.33
109.83
106.01
98.70
88.91
77.72
66.28
55.67
46.69
39.57
33.92
28.82
23.27
16.56
8.64
0.14
-8.02
-15.06
-20.75
-25.43
-29.67
-33.86
-37.92
-41.32
-43.43
-43.83
-42.49
-39.82
-36.57
-33.71
-32.22
-32.88
-35.90
-40.77
-46.23
-50.65
-52.67
-51.72
-48.21
-43.18
-37.74
-32.38
-26.92
-20.78
-13.64
-5.97
0.88
5.17
5.43
1.11
-7.12
-17.60
-28.23
-37.05
-42.51
-43.72
-40.49
-33.50
-24.95
-18.81
-20.33
-34.39
-63.06
-103.82
-149.51
-190.66
-219.16
-231.30
-228.80
-217.22
-202.89
-190.08
-179.97
-171.49
-163.09
-154.08
-144.74
-135.51
-126.20
-115.79
-103.02
-87.08
-68.09
-47.02
-25.40
-4.86
13.37
28.66
41.20
52.00
62.60
74.52
88.79
105.57
124.26
143.85
163.25
181.67
198.48
212.99
224.11
230.47
230.71
224.14
211.13
193.12
172.01
149.42
126.16
102.28
77.65
52.62
28.37
6.52
-11.65
-25.86
-36.95
-46.28
-54.99
-63.41
-71.14
-77.58
-82.39
-85.37
-86.13
-83.62
-76.25
-62.73
-43.13
-19.48
4.70
25.77
41.64
52.58
60.81
69.00
78.76
89.72
99.99
107.29
110.23
108.72
103.55
95.59
85.33
72.86
58.29
42.18
25.56
9.58
-4.85
-17.38
-28.11
-37.52
-46.24
-54.95
-64.15
-73.88
-83.48
-91.65
-97.00
-98.78
-97.50
-94.95
-93.22
-93.40
-94.32
-92.62
-83.88
-64.74
-34.66
3.55
44.77
83.77
117.10
143.97
165.61
184.05
200.71
215.94
229.18
239.45
245.73
246.96
241.91
229.29
208.32
179.38
144.51
107.15
71.11
39.27
12.51
-10.51
-32.44
-55.74
-81.24
-107.53
-131.45
-149.54
-159.46
-160.95
-155.71
-146.52
-136.08
-126.09
-116.91
-107.88
-97.86
-85.97
-72.08
-56.94
-41.88
-28.33
-17.30
-9.18
-3.77
-0.59
0.84
0.79
-0.72
-3.76
-8.33
-14.10
-20.24
-25.43
-28.24
-27.60
-23.38
-16.60
-9.09
-2.74
1.11
2.06
0.28
-3.89
-10.34
-18.95
-29.11
-39.41
-47.87
-52.80
-53.67
-51.63
-49.05
-48.45
-51.31
-57.52
-65.49
-73.04
-78.23
-79.96
-77.94
-72.49
-64.26
-54.11
-43.03
-32.15
-22.56
-15.12
-10.23
-7.85
-7.53
-8.63
-10.35
-11.90
-12.52
-11.65
-8.97
-4.40
1.95
9.91
19.17
29.19
39.07
47.59
53.52
56.18
55.71
53.08
49.53
45.90
42.17
37.66
31.51
23.27
13.14
1.91
-9.44
-19.93
-28.66
-34.79
-37.58
-36.59
-31.96
-24.44
-15.33
-6.01
2.46
9.64
15.66
21.02
26.16
31.19
35.74
38.96
39.86
37.68
32.24
24.09
14.37
4.45
-4.48
-11.67
-16.94
-20.50
-22.97
-25.22
-28.27
-32.83
-38.83
-44.91
-48.49
-46.55
-36.89
-19.35
3.74
28.21
49.56
64.65
72.70
75.01
73.91
71.36
68.25
64.61
60.38
56.25
53.49
53.17
55.71
60.42
65.62
69.31
70.01
67.37
62.27
56.36
51.19
47.93
47.01
47.90
49.40
50.36
50.24
49.79
50.42
52.80
57.01
62.39
67.48
70.74
71.22
68.90
65.31
62.07
58.83
55.14
50.97
45.94
39.53
31.45
22.10
14.52
11.95
13.88
19.70
29.33
41.45
54.09
65.59
75.21
85.92
100.48
115.59
128.68
139.98
149.86
159.00
168.28
178.32
192.89
214.20
236.54
255.79
272.25
286.62
299.42
310.56
295.56
238.90
172.67
112.56
52.66
-6.55
-63.30
-115.71
-162.69
-204.39
-238.01
-261.42
-279.17
-293.36
-301.98
-304.07
-300.50
-293.55
-285.69
-275.38
-260.10
-242.21
-223.24
-203.09
-183.26
-165.95
-152.74
-143.78
-136.02
-126.22
-115.26
-104.26
-93.44
-83.55
-75.41
-69.65
-66.64
-65.60
-65.71
-67.63
-71.42
-76.15
-81.00
-85.44
-89.26
-92.55
-95.36
-98.02
-101.59
-106.70
-113.13
-120.09
-126.47
-131.23
-133.76
-133.85
-131.44
-126.13
-116.93
-102.35
-80.69
-50.81
-12.89
30.99
76.76
119.04
152.44
173.15
180.03
174.83
161.25
143.46
124.83
107.27
91.43
77.29
64.58
53.04
42.49
32.89
24.34
17.17
11.57
7.30
3.55
-0.82
-6.68
-14.04
-21.93
-28.75
-33.02
-34.08
-32.39
-29.32
-26.68
-26.16
-28.98
-35.74
-46.38
-60.21
-75.91
-91.56
-104.80
-113.15
-114.57
-108.03
-93.92
-74.18
-51.79
-30.04
-11.60
2.04
10.85
15.86
18.64
20.71
23.12
26.30
30.07
33.91
37.13
39.16
39.73
38.95
37.19
34.95
32.58
30.23
27.81
25.15
22.15
18.86
15.42
11.96
8.51
5.01
1.43
-2.06
-5.18
-7.51
-8.83
-9.19
-8.93
-8.50
-8.13
-7.70
-6.72
-4.57
-0.85
4.48
10.98
17.98
24.76
30.72
35.45
38.72
40.41
40.56
39.41
37.36
34.94
32.60
30.59
28.92
27.41
25.80
23.85
21.48
18.69
15.57
12.23
8.84
5.50
2.34
-0.62
-3.39
-6.04
-8.62
-11.13
-13.53
-15.77
-17.86
-19.92
-22.11
-24.59
-27.32
-30.01
-32.11
-32.96
-32.02
-29.04
-24.22
-18.10
-11.40
-4.77
1.32
6.65
11.07
14.47
16.68
17.60
17.31
16.16
14.72
13.57
13.13
13.48
14.37
15.45
16.37
16.94
17.17
17.20
17.17
17.14
17.10
16.95
16.58
15.96
15.13
14.24
13.46
12.89
12.54
12.26
11.85
11.13
10.11
8.91
7.76
6.84
6.16
5.64
5.11
4.51
3.82
3.10
2.43
1.77
1.08
0.27
-0.69
-1.74
-2.73
-3.54
-4.10
-4.44
-4.72
-5.15
-5.89
-6.98
-8.34
-9.73
-10.99
-11.98
-12.72
-13.33
-13.94
-14.66
-15.56
-16.67
-17.99
-19.53
-21.26
-23.15
-25.14
-27.16
-29.17
-31.09
-32.88
-34.44
-35.68
-36.53
-36.94
-36.91
-36.48
-35.67
-34.55
-33.18
-31.63
-29.98
-28.25
-26.42
-24.45
-22.24
-19.73
-16.94
-13.95
-10.90
-8.02
-5.51
-3.57
-2.29
-1.68
-1.66
-2.12
-2.92
-3.97
-5.20
-6.55
-8.00
-9.59
-11.36
-13.32
-15.37
-17.21
-18.41
-18.50
-17.12
-14.18
-9.91
-4.76
0.73
6.06
10.90
15.05
18.41
20.86
22.34
22.81
22.35
21.17
19.57
17.87
16.30
15.00
13.95
13.07
12.20
11.23
10.06
8.65
7.02
5.24
3.40
1.54
-0.37
-2.46
-4.86
-7.67
-10.91
-14.42
-17.92
-20.96
-23.02
-23.58
-22.24
-18.89
-13.79
-7.53
-0.89
5.40
10.81
15.06
18.10
19.97
20.77
20.66
19.85
18.61
17.25
16.04
15.09
14.41
13.91
13.47
12.96
12.30
11.38
10.14
8.55
6.62
4.47
2.25
0.07
-2.04
-4.16
-6.43
-9.02
-11.97
-15.20
-18.45
-21.28
-23.20
-23.72
-22.50
-19.37
-14.51
-8.32
-1.43
5.43
11.57
16.47
19.87
21.74
22.28
21.84
20.79
19.47
18.12
16.86
15.76
14.78
13.92
13.13
12.39
11.72
11.08
10.41
9.58
8.50
7.07
5.30
3.29
1.15
-0.98
-3.10
-5.25
-7.56
-10.17
-13.10
-16.25
-19.35
-22.00
-23.74
-24.11
-22.78
-19.62
-14.80
-8.78
-2.25
4.03
9.41
13.42
15.88
16.85
16.56
15.33
13.51
11.42
9.31
7.34
5.56
3.94
2.44
1.05
-0.17
-1.17
-1.99
-2.78
-3.72
-4.95
-6.48
-8.14
-9.69
-10.94
-11.85
-12.52
-13.14
-13.94
-15.12
-16.90
-19.41
-22.60
-26.18
-29.54
-31.88
-32.47
-30.91
-27.35
-22.40
-16.85
-11.38
-6.22
-1.16
4.31
10.77
18.60
27.91
38.51
50.00
61.73
72.95
82.91
91.03
97.14
101.52
104.84
107.76
110.63
113.25
114.99
115.06
113.00
108.79
102.73
95.06
85.69
74.24
60.56
45.16
29.50
15.66
5.60
0.28
-0.75
0.66
2.00
0.98
-3.78
-12.47
-24.29
-37.95
-52.20
-66.06
-78.81
-89.66
-97.51
-100.92
-98.49
-89.59
-74.84
-56.23
-36.64
-18.91
-4.95
4.61
10.38
13.50
15.01
15.46
14.88
13.12
10.21
6.60
2.98
0.08
-1.78
-2.82
-3.70
-5.20
-7.80
-11.53
-16.01
-20.70
-25.16
-29.21
-32.81
-35.92
-38.31
-39.61
-39.41
-37.54
-34.17
-29.80
-25.16
-21.02
-17.98
-16.33
-16.04
-16.72
-17.82
-18.81
-19.40
-19.74
-20.28
-21.61
-24.06
-27.46
-31.12
-34.06
-35.50
-35.28
-34.10
-33.32
-34.44
-38.43
-45.19
-53.54
-61.55
-67.23
-69.15
-66.78
-60.51
-51.46
-41.14
-30.94
-21.64
-12.87
-2.98
10.54
30.10
56.78
89.34
124.11
155.95
179.94
193.04
195.01
188.14
175.93
161.60
146.92
132.06
116.18
98.41
78.82
58.82
40.95
28.20
22.91
25.89
35.98
50.26
64.92
76.56
83.13
84.30
81.03
74.65
66.09
55.70
43.63
30.37
16.94
4.55
-6.01
-14.78
-22.44
-29.67
-36.39
-41.63
-43.91
-42.17
-36.40
-27.86
-18.46
-9.97
-3.32
1.63
5.68
9.80
14.62
20.26
26.43
32.73
38.76
44.13
48.31
50.57
50.12
46.53
39.96
31.37
22.07
13.07
4.41
-5.04
-17.14
-33.37
-53.86
-76.97
-99.76
-119.25
-133.58
-142.66
-147.87
-151.07
-153.51
-155.40
-155.94
-154.10
-149.25
-141.48
-131.48
-120.11
-107.97
-95.39
-82.63
-70.11
-58.60
-48.98
-41.92
-37.57
-35.35
-34.27
-33.25
-31.57
-29.01
-25.80
-22.41
-19.22
-16.35
-13.66
-10.92
-8.02
-5.09
-2.57
-1.16
-1.70
-4.93
-11.24
-20.41
-31.37
-42.36
-51.24
-56.11
-55.92
-50.81
-42.04
-31.57
-21.39
-13.03
-7.32
-4.46
-4.29
-6.48
-10.55
-15.94
-21.83
-27.39
-31.82
-34.62
-35.75
-35.59
-34.87
-34.38
-34.83
-36.64
-39.79
-43.86
-48.11
-51.65
-53.69
-53.85
-52.15
-48.92
-44.59
-39.46
-33.70
-27.49
-21.21
-15.39
-10.44
-6.18
-1.57
5.09
15.42
30.08
48.10
66.90
83.14
93.82
97.41
94.15
85.71
74.40
62.35
51.16
41.79
34.77
30.25
27.75
26.01
23.06
16.70
5.39
-10.88
-30.38
-50.07
-66.83
-78.52
-84.38
-84.79
-80.69
-73.01
-62.71
-50.93
-39.25
-29.50
-23.21
-21.10
-22.83
-27.19
-32.45
-36.86
-38.98
-37.97
-33.69
-26.62
-17.64
-7.60
2.99
14.15
26.13
39.04
52.70
66.79
81.12
95.74
110.30
123.39
132.41
134.41
127.82
114.06
97.90
86.19
85.31
98.59
125.03
159.84
196.39
228.57
252.25
265.48
267.98
260.24
243.14
217.92
186.36
150.61
112.95
75.44
39.69
6.77
-22.57
-47.82
-68.58
-84.50
-95.37
-100.91
-100.82
-94.92
-83.51
-67.64
-49.13
-30.11
-12.44
2.75
15.14
24.93
32.30
37.09
38.77
36.84
31.31
22.81
12.49
1.56
-9.11
-19.11
-28.28
-36.39
-42.95
-47.40
-49.38
-48.98
-46.73
-43.29
-39.16
-34.42
-28.93
-22.54
-15.41
-8.14
-1.45
4.06
8.20
11.07
12.79
13.25
12.02
8.46
2.11
-7.03
-18.20
-30.08
-41.10
-50.04
-56.44
-60.68
-63.79
-66.94
-71.03
-76.39
-82.94
-90.49
-99.02
-108.74
-119.95
-132.67
-146.52
-160.82
-174.85
-188.02
-199.80
-209.39
-215.54
-216.58
-210.90
-197.60
-176.94
-150.41
-120.24
-88.74
-57.67
-28.15
-0.66
24.52
47.26
67.49
85.26
100.73
114.04
125.18
133.88
139.70
142.24
141.42
137.64
131.84
125.32
119.40
115.04
112.56
111.72
111.86
112.39
112.97
113.70
114.87
116.72
119.14
121.68
123.73
124.85
125.03
124.69
124.51
125.14
126.95
129.92
133.83
138.18
142.10
144.04
141.79
132.99
116.11
91.54
61.80
30.65
1.40
-24.62
-48.58
-72.92
-99.24
-126.40
-150.20
-165.07
-166.68
-154.09
-130.10
-99.87
-68.81
-40.91
-18.46
-2.67
5.60
5.57
-2.86
-18.29
-37.63
-56.87
-72.62
-83.38
-89.93
-94.32
-98.32
-102.30
-105.17
-105.40
-102.51
-97.96
-94.69
-95.52
-101.32
-110.12
-117.72
-119.52
-112.53
-96.53
-73.98
-48.78
-24.78
-4.54
10.98
22.14
29.87
34.97
37.62
37.22
32.79
23.63
10.13
-5.76
-20.81
-31.60
-36.10
-34.54
-29.29
-23.47
-19.07
-15.93
-12.12
-5.69
3.48
12.93
18.83
18.19
10.91
-0.19
-11.13
-19.26
-24.78
-30.29
-38.73
-51.06
-65.49
-78.32
-85.94
-86.38
-79.77
-67.76
-52.50
-35.96
-19.71
-5.17
6.38
13.97
17.30
16.97
14.38
11.34
9.57
10.24
13.67
19.23
25.63
31.36
35.29
37.04
37.11
36.50
36.21
36.73
38.00
39.49
40.62
40.98
40.49
39.27
37.54
35.37
32.73
29.52
25.73
21.54
17.31
13.40
10.10
7.45
5.29
3.35
1.33
-0.92
-3.39
-5.95
-8.35
-10.39
-11.95
-13.03
-13.68
-13.97
-13.97
-13.71
-13.17
-12.35
-11.21
-9.76
-7.91
-5.50
-2.34
1.76
6.90
13.06
20.01
27.37
34.61
41.18
46.59
50.60
53.37
55.36
57.25
59.59
62.50
65.58
67.99
68.76
67.20
63.08
56.65
48.45
39.15
29.38
19.76
10.86
3.11
-3.38
-8.90
-14.07
-19.64
-26.09
-33.39
-40.92
-47.83
-53.32
-57.04
-59.06
-59.80
-59.67
-58.83
-57.12
-54.18
-49.70
-43.72
-36.70
-29.42
-22.75
-17.38
-13.61
-11.41
-10.48
-10.48
-11.10
-12.02
-12.88
-13.31
-12.95
-11.68
-9.59
-6.94
-3.94
-0.56
3.48
8.54
14.80
22.06
29.74
37.06
43.34
48.21
51.63
53.85
55.16
55.75
55.69
54.93
53.37
50.96
47.61
43.26
37.87
31.45
24.20
16.56
9.12
2.54
-2.68
-6.35
-8.58
-9.69
-10.12
-10.18
-10.09
-9.93
-9.73
-9.42
-8.99
-8.42
-7.75
-7.06
-6.46
-6.11
-6.10
-6.43
-7.02
-7.71
-8.37
-9.02
-9.77
-10.79
-12.17
-13.85
-15.49
-16.65
-16.89
-15.92
-13.70
-10.42
-6.44
-2.22
1.78
5.12
7.47
8.60
8.51
7.38
5.51
3.20
0.76
-1.66
-3.94
-6.05
-7.88
-9.37
-10.46
-11.18
-11.65
-12.01
-12.33
-12.58
-12.61
-12.20
-11.25
-9.85
-8.27
-6.95
-6.23
-6.32
-7.18
-8.60
-10.31
-12.10
-13.85
-15.52
-17.19
-18.95
-20.96
-23.36
-26.22
-29.46
-32.71
-35.45
-37.01
-36.86
-34.76
-30.81
-25.41
-19.12
-12.47
-5.86
0.42
6.17
11.22
15.42
18.67
20.96
22.43
23.29
23.79
24.14
24.50
24.92
25.35
25.71
25.91
25.90
25.72
25.51
25.34
25.23
25.01
24.43
23.27
21.47
19.20
16.77
14.51
12.54
10.77
8.90
6.56
3.52
-0.23
-4.51
-8.97
-13.16
-16.65
-19.01
-19.93
-19.30
-17.21
-13.96
-9.98
-5.72
-1.51
2.46
6.17
9.62
12.88
15.99
18.97
21.88
24.73
27.52
30.14
32.40
34.08
35.01
35.22
34.89
34.33
33.81
33.48
33.26
32.95
32.33
31.28
29.89
28.42
27.14
26.20
25.44
24.41
22.48
19.05
13.82
6.96
-0.94
-8.97
-16.21
-21.96
-25.82
-27.70
-27.71
-26.03
-22.77
-18.13
-12.45
-6.31
-0.61
3.43
4.58
1.88
-4.99
-15.50
-28.24
-41.15
-51.91
-58.57
-60.17
-57.25
-52.01
-47.62
-47.23
-52.66
-63.48
-77.01
-89.34
-96.94
-98.07
-93.46
-85.82
-78.56
-74.45
-74.82
-79.49
-87.48
-97.51
-108.43
-119.29
-129.07
-136.58
-140.60
-140.20
-135.13
-125.81
-113.20
-98.33
-81.98
-64.56
-46.26
-27.34
-8.30
10.15
27.31
42.75
56.46
68.69
79.76
89.75
98.40
105.22
109.75
111.81
111.65
109.89
107.32
104.58
101.98
99.50
96.91
94.01
90.74
87.08
82.97
78.18
72.41
65.40
57.22
48.42
39.82
32.30
26.38
22.03
18.70
15.65
12.35
8.74
5.35
3.03
2.61
4.51
8.54
13.89
19.39
23.83
26.38
26.76
25.36
23.07
21.00
20.08
20.74
22.74
25.31
27.47
28.45
27.93
26.24
24.10
22.26
21.26
21.07
21.20
20.79
19.06
15.53
10.33
4.14
-2.08
-7.42
-11.38
-13.93
-15.39
-16.17
-16.55
-16.63
-16.47
-16.19
-16.01
-16.16
-16.64
-17.21
-17.45
-16.97
-15.64
-13.68
-11.50
-9.55
-8.04
-6.81
-5.30
-2.80
1.39
7.56
15.51
24.50
33.49
41.50
47.90
52.56
55.69
57.56
58.31
57.81
55.94
52.73
48.54
44.00
39.69
35.79
32.03
27.97
23.39
18.67
14.78
12.79
13.24
15.72
18.97
21.38
21.74
19.64
15.48
10.03
3.86
-2.78
-9.97
-17.69
-25.65
-33.20
-39.64
-44.48
-47.55
-48.99
-49.08
-48.02
-45.93
-42.91
-39.09
-34.76
-30.26
-25.95
-22.06
-18.71
-15.89
-13.54
-11.63
-10.19
-9.28
-8.92
-9.07
-9.59
-10.25
-10.80
-11.11
-11.17
-11.18
-11.45
-12.24
-13.73
-15.86
-18.38
-20.93
-23.21
-25.00
-26.26
-27.13
-27.77
-28.45
-29.47
-31.01
-33.17
-35.82
-38.52
-40.59
-41.28
-39.99
-36.50
-31.05
-24.27
-16.97
-9.89
-3.52
1.99
6.67
10.64
13.95
16.47
18.09
18.73
18.51
17.80
17.10
16.84
17.21
18.09
19.11
19.87
20.06
19.61
18.62
17.29
15.80
14.20
12.45
10.41
7.95
4.95
1.33
-2.97
-7.94
-13.53
-19.55
-25.59
-30.98
-34.89
-36.52
-35.36
-31.44
-25.36
-18.06
-10.52
-3.48
2.73
8.13
12.86
17.00
20.51
23.22
25.06
26.05
26.40
26.35
26.10
25.73
25.16
24.29
23.05
21.50
19.81
18.19
16.77
15.53
14.28
12.77
10.83
8.43
5.69
2.81
-0.03
-2.76
-5.38
-7.98
-10.70
-13.69
-17.10
-21.04
-25.49
-30.23
-34.81
-38.59
-40.88
-41.12
-39.01
-34.58
-28.21
-20.57
-12.45
-4.68
2.09
7.44
11.25
13.64
14.96
15.61
15.93
16.17
16.39
16.53
16.40
15.75
14.40
12.27
9.49
6.40
3.49
1.27
0.09
0.02
0.84
2.11
3.38
4.38
5.14
5.93
7.09
8.84
11.15
13.72
16.15
18.07
19.36
20.27
21.28
22.94
25.54
28.94
32.49
35.12
35.73
33.63
28.95
22.74
16.81
13.19
13.44
18.15
26.69
37.48
48.61
58.50
66.31
71.98
75.97
78.78
80.77
82.00
82.40
81.88
80.39
77.90
74.31
69.52
63.47
56.21
48.03
39.45
31.08
23.56
17.39
12.83
9.79
7.82
6.31
4.60
2.28
-0.74
-4.23
-7.84
-11.30
-14.52
-17.59
-20.69
-23.91
-27.26
-30.65
-34.01
-37.28
-40.44
-43.50
-46.44
-49.28
-52.06
-54.98
-58.27
-62.11
-66.54
-71.27
-75.72
-79.12
-80.66
-79.76
-76.23
-70.33
-62.70
-54.17
-45.49
-37.22
-29.63
-22.83
-16.85
-11.74
-7.54
-4.20
-1.52
0.79
3.07
5.50
8.03
10.35
12.09
12.91
12.70
11.62
9.98
8.03
5.78
2.99
-0.67
-5.45
-11.25
-17.56
-23.60
-28.62
-32.10
-33.83
-33.86
-32.39
-29.61
-25.78
-21.21
-16.34
-11.61
-7.42
-4.02
-1.49
0.20
1.06
1.09
0.22
-1.61
-4.42
-8.12
-12.39
-16.68
-20.29
-22.46
-22.65
-20.74
-17.06
-12.27
-7.14
-2.32
1.76
4.94
7.23
8.68
9.37
9.45
9.08
8.49
7.87
7.35
6.98
6.75
6.60
6.43
6.17
5.72
5.07
4.23
3.25
2.26
1.32
0.50
-0.24
-0.96
-1.75
-2.67
-3.73
-4.84
-5.90
-6.79
-7.44
-7.88
-8.21
-8.58
-9.16
-10.10
-11.49
-13.27
-15.21
-16.93
-17.87
-17.48
-15.38
-11.50
-6.15
0.07
6.49
12.58
18.15
23.20
27.70
31.26
33.08
32.15
27.71
19.74
9.23
-1.98
-11.75
-18.30
-20.86
-19.81
-16.47
-12.55
-9.52
-8.13
-8.30
-9.31
-10.23
-10.38
-9.59
-8.20
-6.80
-5.90
-5.71
-6.11
-6.83
-7.66
-8.58
-9.72
-11.26
-13.21
-15.36
-17.41
-19.03
-20.05
-20.44
-20.25
-19.47
-18.01
-15.61
-11.96
-6.86
-0.31
7.49
16.17
25.23
34.16
42.38
49.33
54.60
58.03
59.91
60.99
62.29
64.80
69.03
74.69
80.70
85.52
87.91
87.70
86.29
86.27
90.40
100.02
113.77
127.44
135.04
130.80
111.05
75.43
27.01
-28.45
-83.68
-131.34
-165.35
-182.11
-181.40
-166.73
-144.69
-123.23
-109.09
-105.46
-110.92
-120.18
-126.55
-124.76
-112.97
-92.98
-68.79
-44.36
-22.02
-2.22
15.58
31.31
43.84
51.41
53.05
49.56
43.54
38.23
35.96
37.04
39.86
41.89
41.04
36.68
29.72
21.96
15.00
9.49
4.93
0.01
-6.58
-15.53
-26.59
-38.71
-50.58
-61.15
-69.97
-77.24
-83.55
-89.49
-95.36
-101.15
-106.65
-111.61
-115.85
-119.05
-120.64
-119.78
-115.55
-107.41
-95.52
-80.79
-64.64
-48.54
-33.51
-20.06
-8.21
2.24
11.57
20.02
27.91
35.56
43.21
50.91
58.49
65.64
72.11
77.76
82.65
87.03
91.20
95.49
100.14
105.22
110.52
115.50
119.33
121.21
120.51
117.09
111.34
104.05
96.26
88.90
82.64
77.74
74.02
70.86
67.38
62.66
56.01
47.12
36.11
23.48
9.91
-3.83
-16.89
-28.39
-37.46
-43.52
-46.57
-47.21
-46.51
-45.42
-44.30
-42.68
-39.68
-34.72
-28.18
-21.44
-16.25
-13.73
-13.72
-14.76
-14.88
-12.57
-7.53
-0.62
6.64
12.92
17.63
20.88
23.19
25.11
26.93
28.66
30.06
30.77
30.44
28.87
26.11
22.54
18.80
15.51
13.02
11.22
9.62
7.56
4.69
0.90
-3.58
-8.29
-12.84
-16.85
-19.92
-21.81
-22.17
-20.59
-17.21
-12.55
-7.30
-1.84
4.25
12.20
22.81
35.90
50.08
62.39
69.83
70.68
65.18
55.17
43.09
29.68
14.16
-4.89
-29.22
-59.05
-92.65
-126.80
-157.90
-182.96
-201.50
-214.30
-217.06
-205.47
-176.70
-132.21
-78.15
-25.89
20.01
57.44
86.21
108.05
123.86
134.54
140.40
141.28
137.05
128.60
116.42
100.93
82.11
58.66
29.12
-6.75
-46.68
-85.56
-116.33
-133.29
-133.92
-119.84
-97.03
-73.33
-55.78
-48.10
-49.67
-56.17
-62.25
-63.14
-55.39
-37.36
-9.01
27.66
68.26
106.55
136.29
153.47
158.41
155.74
151.83
151.44
155.22
159.91
160.89
155.46
144.37
131.22
120.04
112.76
108.41
104.13
96.87
85.06
68.74
49.00
26.95
3.17
-22.00
-47.78
-72.48
-93.71
-109.21
-117.87
-120.13
-117.63
-112.22
-105.19
-97.00
-87.77
-77.83
-68.10
-59.69
-53.39
-49.18
-46.27
-43.62
-40.53
-37.03
-33.83
-31.83
-31.68
-33.43
-36.59
-40.46
-44.40
-48.07
-51.51
-54.95
-58.62
-62.69
-67.26
-72.52
-78.64
-85.63
-93.04
-99.96
-105.28
-108.25
-108.75
-106.95
-102.89
-96.07
-85.69
-71.24
-53.17
-33.14
-13.42
3.90
17.79
28.32
36.16
41.92
45.72
47.36
46.69
43.97
39.82
35.04
30.33
26.26
23.37
22.18
23.06
26.13
31.25
38.00
45.83
54.09
62.08
69.05
74.20
76.93
76.99
74.62
70.40
65.11
59.40
53.64
47.97
42.35
36.67
30.79
24.59
17.94
10.80
3.32
-4.16
-11.15
-17.14
-21.78
-24.92
-26.61
-27.13
-26.83
-26.11
-25.34
-24.74
-24.29
-23.65
-22.21
-19.30
-14.44
-7.57
0.84
9.86
18.42
25.60
30.95
34.54
36.92
38.73
40.47
42.29
44.01
45.37
46.19
46.54
46.65
46.80
47.09
47.36
47.34
46.70
45.27
43.05
40.12
36.52
32.26
27.25
21.47
15.07
8.37
1.81
-4.25
-9.62
-14.37
-18.77
-23.17
-27.79
-32.71
-37.83
-42.98
-48.00
-52.77
-57.18
-61.00
-63.87
-65.31
-64.90
-62.38
-57.78
-51.34
-43.40
-34.25
-24.11
-13.16
-1.77
9.58
20.22
29.51
36.94
42.25
45.41
46.59
46.02
43.99
40.73
36.37
31.07
24.92
18.20
11.34
4.95
-0.32
-3.97
-5.81
-6.06
-5.22
-3.90
-2.62
-1.71
-1.27
-1.29
-1.71
-2.48
-3.59
-5.01
-6.78
-8.92
-11.45
-14.38
-17.57
-20.74
-23.36
-24.82
-24.55
-22.28
-18.12
-12.65
-6.74
-1.31
2.90
5.51
6.51
6.21
5.05
3.53
2.10
1.12
0.84
1.26
2.17
3.13
3.68
3.47
2.43
0.86
-0.72
-1.75
-1.83
-0.92
0.69
2.56
4.25
5.43
5.97
5.86
5.14
3.84
1.98
-0.46
-3.46
-6.98
-10.94
-15.15
-19.31
-22.96
-25.57
-26.59
-25.74
-23.01
-18.78
-13.72
-8.59
-4.09
-0.70
1.45
2.50
2.83
2.87
3.01
3.46
4.23
5.20
6.23
7.20
8.06
8.83
9.56
10.29
11.07
11.95
12.93
13.95
14.87
15.40
15.29
14.32
12.46
9.83
6.70
3.36
0.05
-3.14
-6.27
-9.58
-13.33
-17.71
-22.60
-27.58
-31.90
-34.74
-35.43
-33.72
-29.91
-24.69
-18.96
-13.42
-8.45
-3.99
0.21
4.42
8.72
12.86
16.43
19.06
20.52
20.83
20.20
18.95
17.42
15.90
14.65
13.84
13.50
13.53
13.71
13.77
13.51
12.87
11.91
10.74
9.41
7.88
6.10
4.05
1.79
-0.51
-2.72
-4.78
-6.72
-8.67
-10.77
-13.11
-15.76
-18.79
-22.28
-26.29
-30.73
-35.27
-39.32
-42.13
-43.00
-41.48
-37.54
-31.63
-24.54
-17.11
-10.11
-3.95
1.28
5.71
9.53
12.84
15.63
17.77
19.22
20.01
20.33
20.43
20.49
20.59
20.70
20.73
20.57
20.15
19.41
18.31
16.86
15.10
13.12
11.03
8.95
6.96
5.11
3.44
1.90
0.45
-0.97
-2.43
-3.93
-5.43
-6.84
-8.06
-9.10
-10.02
-10.91
-11.88
-12.94
-14.07
-15.10
-15.81
-15.87
-14.95
-12.74
-9.11
-4.22
1.50
7.41
12.88
17.40
20.76
22.97
24.25
24.83
24.90
24.56
23.80
22.61
21.03
19.17
17.23
15.45
14.02
13.03
12.48
12.27
12.23
12.25
12.17
11.91
11.37
10.50
9.30
7.87
6.28
4.65
3.04
1.46
-0.14
-1.79
-3.51
-5.33
-7.25
-9.25
-11.30
-13.34
-15.28
-17.05
-18.56
-19.76
-20.53
-20.74
-20.18
-18.61
-15.87
-12.01
-7.37
-2.60
1.51
4.28
5.35
4.85
3.36
1.69
0.65
0.77
2.17
4.57
7.40
9.95
11.55
11.69
10.17
7.16
3.34
-0.18
-2.10
-1.32
2.65
9.40
17.74
26.09
33.06
37.94
40.74
41.89
41.82
40.65
38.20
34.33
29.20
23.36
17.56
12.38
7.95
4.00
0.06
-4.25
-9.04
-14.20
-19.59
-25.12
-30.74
-36.30
-41.43
-45.56
-48.11
-48.74
-47.46
-44.64
-40.80
-36.44
-31.87
-27.28
-22.81
-18.55
-14.59
-10.98
-7.69
-4.71
-2.11
-0.05
1.28
1.78
1.54
0.83
-0.07
-0.98
-1.90
-2.96
-4.33
-6.06
-8.00
-9.85
-11.20
-11.62
-10.77
-8.55
-5.29
-1.78
0.92
1.82
0.48
-2.77
-6.87
-10.53
-12.81
-13.54
-13.20
-12.66
-12.59
-13.17
-14.16
-15.15
-15.90
-16.52
-17.31
-18.59
-20.45
-22.78
-25.29
-27.72
-29.87
-31.61
-32.79
-33.20
-32.62
-30.86
-27.91
-23.92
-19.19
-14.10
-9.04
-4.28
-0.07
3.49
6.38
8.67
10.49
11.98
13.20
14.14
14.73
14.90
14.64
14.09
13.47
13.02
12.92
13.24
13.94
14.86
15.80
16.56
16.98
16.98
16.59
15.94
15.20
14.54
13.97
13.43
12.70
11.56
9.91
7.77
5.39
3.07
1.11
-0.36
-1.43
-2.42
-3.72
-5.67
-8.37
-11.62
-14.89
-17.44
-18.54
-17.72
-14.92
-10.53
-5.32
-0.12
4.40
7.94
10.53
12.45
14.02
15.48
16.90
18.30
19.60
20.76
21.70
22.35
22.61
22.39
21.68
20.57
19.24
17.93
16.87
16.16
15.72
15.34
14.71
13.61
11.99
9.97
7.86
5.92
4.35
3.12
2.05
0.88
-0.60
-2.48
-4.67
-6.99
-9.17
-11.05
-12.54
-13.76
-14.92
-16.31
-18.14
-20.48
-23.22
-26.05
-28.56
-30.33
-31.00
-30.35
-28.38
-25.20
-21.13
-16.56
-11.93
-7.59
-3.82
-0.70
1.77
3.73
5.33
6.73
7.99
9.10
10.00
10.64
11.06
11.34
11.60
11.86
12.03
11.91
11.35
10.35
9.09
7.87
6.93
6.34
6.00
5.75
5.57
5.60
6.09
7.15
8.62
10.01
10.69
10.19
8.62
6.67
5.50
6.37
10.18
17.16
26.77
37.89
49.12
59.22
67.29
72.86
75.73
75.77
72.86
66.92
58.14
47.17
35.15
23.50
13.48
5.78
0.37
-3.39
-6.43
-9.66
-13.68
-18.74
-24.73
-31.16
-37.29
-42.27
-45.39
-46.29
-45.13
-42.49
-39.08
-35.43
-31.73
-27.85
-23.52
-18.57
-13.05
-7.20
-1.27
4.48
9.91
14.83
19.07
22.39
24.61
25.66
25.69
25.05
24.13
23.25
22.43
21.41
19.75
17.08
13.44
9.39
5.75
3.24
2.00
1.38
0.20
-2.78
-8.30
-16.36
-26.35
-37.36
-48.54
-59.10
-68.27
-75.17
-78.96
-79.09
-75.60
-69.22
-61.19
-52.78
-44.96
-38.13
-32.20
-26.77
-21.40
-15.68
-9.37
-2.40
5.11
12.85
20.33
27.07
32.71
37.14
40.50
43.09
45.24
47.17
48.94
50.40
51.33
51.47
50.63
48.75
45.89
42.23
37.98
33.31
28.35
23.21
17.97
12.84
8.05
3.85
0.37
-2.42
-4.75
-6.96
-9.40
-12.33
-15.89
-20.00
-24.40
-28.65
-32.18
-34.40
-34.83
-33.24
-29.79
-24.92
-19.25
-13.40
-7.80
-2.69
1.82
5.64
8.61
10.55
11.34
11.02
9.87
8.31
6.84
5.83
5.41
5.50
5.91
6.44
7.02
7.72
8.71
10.11
11.95
14.12
16.44
18.64
20.44
21.53
21.58
20.38
17.83
14.12
9.61
4.77
-0.03
-4.61
-9.05
-13.54
-18.22
-23.09
-27.93
-32.43
-36.30
-39.38
-41.71
-43.51
-45.08
-46.68
-48.34
-49.87
-50.81
-50.61
-48.89
-45.49
-40.67
-34.97
-28.98
-23.23
-17.98
-13.34
-9.25
-5.70
-2.69
-0.23
1.65
3.05
4.10
4.97
5.76
6.47
7.05
7.44
7.66
7.84
8.14
8.61
9.23
9.78
10.04
9.83
9.15
8.19
7.22
6.46
5.98
5.65
5.26
4.54
3.28
1.42
-0.96
-3.69
-6.50
-9.17
-11.55
-13.56
-15.24
-16.69
-18.02
-19.28
-20.36
-21.00
-20.82
-19.39
-16.51
-12.28
-7.12
-1.71
3.30
7.39
10.37
12.33
13.45
13.99
14.12
13.98
13.73
13.53
13.52
13.73
14.03
14.18
13.94
13.23
12.20
11.17
10.52
10.41
10.77
11.31
11.66
11.54
10.85
9.65
8.11
6.43
4.78
3.29
1.98
0.80
-0.43
-1.95
-3.97
-6.61
-9.72
-12.90
-15.56
-17.06
-16.88
-14.82
-11.03
-6.04
-0.56
4.67
9.15
12.70
15.37
17.35
18.86
19.98
20.73
21.08
21.03
20.67
20.11
19.45
18.78
18.07
17.27
16.34
15.29
14.18
13.07
12.01
10.90
9.63
8.04
6.07
3.82
1.48
-0.72
-2.63
-4.23
-5.71
-7.29
-9.26
-11.74
-14.67
-17.78
-20.59
-22.55
-23.13
-22.06
-19.30
-15.15
-10.13
-4.84
0.15
4.48
7.97
10.68
12.72
14.24
15.32
15.96
16.17
15.97
15.47
14.81
14.16
13.59
13.06
12.49
11.77
10.86
9.79
8.68
7.63
6.69
5.83
4.94
3.92
2.65
1.10
-0.72
-2.71
-4.76
-6.74
-8.57
-10.27
-11.96
-13.88
-16.25
-19.17
-22.49
-25.72
-28.18
-29.17
-28.23
-25.27
-20.66
-15.01
-9.05
-3.36
1.74
6.14
9.91
13.11
15.76
17.82
19.23
19.99
20.19
19.98
19.52
18.90
18.16
17.28
16.27
15.22
14.27
13.54
13.07
12.78
12.50
12.07
11.34
10.28
8.92
7.34
5.64
3.92
2.25
0.71
-0.68
-1.96
-3.18
-4.40
-5.71
-7.11
-8.59
-10.10
-11.64
-13.22
-14.92
-16.86
-19.10
-21.66
-24.38
-26.93
-28.85
-29.66
-28.97
-26.64
-22.78
-17.76
-12.07
-6.20
-0.58
4.53
8.96
12.67
15.65
17.94
19.64
20.83
21.68
22.30
22.79
23.20
23.47
23.53
23.34
22.97
22.54
22.18
21.93
21.73
21.48
21.07
20.47
19.73
18.90
17.90
16.61
14.84
12.49
9.68
6.64
3.74
1.30
-0.48
-1.54
-1.94
-1.82
-1.41
-0.99
-0.89
-1.37
-2.60
-4.57
-7.15
-10.11
-13.27
-16.49
-19.69
-22.84
-25.85
-28.58
-30.81
-32.26
-32.65
-31.75
-29.49
-26.00
-21.64
-16.89
-12.30
-8.30
-5.09
-2.62
-0.66
1.10
2.94
5.01
7.38
9.96
12.57
14.99
17.00
18.41
19.14
19.24
18.86
18.21
17.51
16.95
16.68
16.75
17.10
17.55
17.86
17.76
17.11
15.93
14.40
12.74
11.18
9.78
8.49
7.14
5.56
3.61
1.22
-1.52
-4.46
-7.36
-10.00
-12.22
-13.98
-15.38
-16.61
-17.95
-19.59
-21.60
-23.79
-25.77
-27.02
-27.04
-25.51
-22.41
-18.05
-12.94
-7.74
-2.96
1.01
4.06
6.27
7.83
8.93
9.65
10.02
10.00
9.65
9.09
8.54
8.16
7.99
7.91
7.74
7.35
6.72
5.99
5.31
4.75
4.27
3.75
3.08
2.27
1.41
0.61
-0.12
-0.87
-1.80
-3.07
-4.67
-6.46
-8.22
-9.76
-11.03
-12.17
-13.38
-14.86
-16.72
-18.91
-21.29
-23.65
-25.74
-27.25
-27.85
-27.20
-25.08
-21.51
-16.81
-11.57
-6.47
-2.06
1.40
3.91
5.76
7.23
8.54
9.74
10.76
11.52
11.97
12.17
12.19
12.08
11.86
11.54
11.15
10.80
10.64
10.76
11.16
11.69
12.08
12.12
11.73
11.02
10.17
9.38
8.75
8.30
7.97
7.71
7.45
7.16
6.74
6.09
5.16
3.94
2.51
0.99
-0.52
-2.00
-3.50
-5.06
-6.66
-8.24
-9.72
-11.08
-12.43
-13.91
-15.68
-17.77
-20.03
-22.08
-23.44
-23.60
-22.21
-19.20
-14.82
-9.58
-4.10
1.00
5.33
8.69
11.14
12.81
13.92
14.62
15.05
15.28
15.37
15.33
15.20
14.95
14.61
14.16
13.63
13.04
12.48
12.01
11.71
11.62
11.68
11.83
11.90
11.77
11.33
10.56
9.50
8.27
6.98
5.74
4.64
3.70
2.95
2.36
1.86
1.33
0.61
-0.48
-2.03
-3.96
-6.07
-8.01
-9.52
-10.53
-11.20
-11.88
-12.97
-14.70
-17.08
-19.87
-22.67
-25.06
-26.66
-27.17
-26.37
-24.22
-20.84
-16.53
-11.76
-7.00
-2.67
0.98
3.86
5.99
7.45
8.33
8.78
8.96
9.04
9.14
9.34
9.61
9.85
10.00
10.01
9.92
9.77
9.65
9.59
9.59
9.63
9.62
9.46
9.02
8.23
7.05
5.59
4.00
2.48
1.19
0.20
-0.55
-1.17
-1.85
-2.73
-3.89
-5.29
-6.85
-8.42
-9.87
-11.10
-12.14
-13.07
-14.07
-15.32
-16.95
-18.95
-21.20
-23.44
-25.30
-26.37
-26.28
-24.80
-21.93
-17.91
-13.16
-8.22
-3.55
0.50
3.80
6.39
8.39
9.95
11.16
12.05
12.61
12.85
12.78
12.52
12.18
11.89
11.80
11.96
12.34
12.88
13.47
13.96
14.26
14.30
14.03
13.45
12.54
11.32
9.86
8.30
6.82
5.56
4.57
3.74
2.85
1.70
0.22
-1.49
-3.14
-4.44
-5.24
-5.57
-5.64
-5.72
-6.10
-6.99
-8.51
-10.71
-13.54
-16.82
-20.18
-23.14
-25.15
-25.75
-24.67
-21.90
-17.70
-12.51
-6.86
-1.25
3.88
8.19
11.47
13.68
14.91
15.34
15.17
14.52
13.40
11.77
9.63
7.10
4.55
2.44
1.18
1.01
1.86
3.43
5.29
7.07
8.50
9.44
9.86
9.69
8.85
7.25
4.91
1.94
-1.37
-4.68
-7.67
-10.11
-11.85
-12.88
-13.29
-13.22
-12.89
-12.46
-12.09
-11.81
-11.53
-10.99
-9.90
-8.00
-5.12
-1.33
3.13
7.86
12.44
16.50
19.85
22.40
24.19
25.25
25.66
25.47
24.80
23.79
22.56
21.18
19.66
17.95
16.10
14.19
12.40
10.87
9.66
8.66
7.65
6.41
4.74
2.56
-0.09
-3.09
-6.28
-9.44
-12.40
-15.01
-17.22
-19.11
-20.83
-22.63
-24.67
-27.05
-29.63
-32.10
-33.94
-34.60
-33.64
-30.88
-26.54
-21.09
-15.20
-9.44
-4.16
0.53
4.71
8.45
11.70
14.29
16.05
16.96
17.28
17.45
17.97
19.16
21.02
23.24
25.32
26.86
27.74
28.22
28.82
30.10
32.35
35.45
38.83
41.71
43.45
43.83
43.15
42.20
41.90
43.07
46.09
50.84
56.45
61.29
62.95
58.84
47.07
27.53
2.57
-23.35
-44.84
-57.45
-59.12
-50.70
-35.32
-16.99
0.71
15.42
25.92
31.78
32.94
29.75
23.07
14.34
5.33
-2.35
-7.80
-11.22
-13.76
-17.04
-22.42
-30.41
-40.41
-50.89
-59.89
-65.73
-67.49
-65.25
-59.83
-52.39
-44.03
-35.66
-28.11
-22.32
-19.39
-20.33
-25.73
-35.42
-48.43
-63.21
-78.10
-91.68
-102.96
-111.31
-116.38
-117.94
-115.94
-110.59
-102.35
-91.75
-79.23
-64.95
-48.82
-30.81
-11.34
8.51
27.00
42.25
52.74
57.83
57.84
53.74
46.83
38.35
29.35
20.73
13.34
7.87
4.75
3.96
5.03
7.30
10.15
13.19
16.33
19.60
23.03
26.51
29.76
32.40
34.02
34.28
32.94
29.98
25.59
20.21
14.38
8.66
3.42
-1.18
-5.20
-8.77
-12.00
-15.03
-17.92
-20.75
-23.57
-26.30
-28.76
-30.72
-31.93
-32.33
-32.00
-31.09
-29.64
-27.50
-24.39
-20.06
-14.53
-8.16
-1.52
4.85
10.58
15.54
19.77
23.23
25.80
27.23
27.36
26.20
24.02
21.27
18.43
15.89
13.86
12.35
11.23
10.32
9.43
8.49
7.50
6.61
5.96
5.62
5.53
5.46
5.12
4.28
2.89
1.08
-0.92
-2.91
-4.77
-6.53
-8.32
-10.32
-12.68
-15.53
-18.95
-22.83
-26.86
-30.44
-32.79
-33.16
-31.07
-26.51
-20.02
-12.53
-5.15
1.16
5.80
8.64
10.03
10.58
10.92
11.43
12.16
12.89
13.24
12.93
11.86
10.22
8.37
6.73
5.69
5.47
6.16
7.62
9.61
11.76
13.73
15.28
16.33
16.95
17.31
17.54
17.67
17.64
17.35
16.75
15.91
14.99
14.20
13.73
13.65
13.91
14.31
14.60
14.48
13.64
11.84
8.94
4.91
-0.10
-5.83
-11.91
-17.93
-23.50
-28.26
-31.88
-33.99
-34.23
-32.31
-28.10
-21.78
-13.92
-5.30
3.19
10.76
16.89
21.37
24.26
25.81
26.40
26.40
26.17
25.97
25.91
25.90
25.74
25.16
23.93
22.00
19.53
16.83
14.32
12.33
11.05
10.42
10.21
10.14
10.02
9.81
9.60
9.55
9.72
10.07
10.46
10.78
10.93
10.93
10.81
10.52
9.94
8.83
7.00
4.31
0.82
-3.32
-7.89
-12.66
-17.35
-21.61
-25.00
-27.07
-27.53
-26.43
-24.16
-21.40
-18.84
-16.91
-15.69
-14.84
-13.83
-12.20
-9.73
-6.50
-2.79
1.03
4.68
8.02
10.96
13.47
15.47
16.90
17.79
18.24
18.48
18.74
19.17
19.74
20.27
20.49
20.14
19.12
17.50
15.57
13.63
11.98
10.72
9.75
8.81
7.57
5.75
3.25
0.19
-3.18
-6.51
-9.52
-12.06
-14.20
-16.17
-18.23
-20.54
-23.04
-25.44
-27.30
-28.16
-27.69
-25.77
-22.44
-17.96
-12.73
-7.24
-2.03
2.49
6.12
9.01
11.50
13.94
16.39
18.52
19.81
19.81
18.48
16.25
13.86
11.99
10.98
10.78
11.09
11.63
12.29
13.12
14.17
15.39
16.51
17.20
17.19
16.41
14.99
13.21
11.38
9.71
8.23
6.80
5.17
3.11
0.50
-2.57
-5.82
-8.84
-11.25
-12.82
-13.57
-13.87
-14.27
-15.40
-17.70
-21.33
-26.05
-31.24
-36.05
-39.61
-41.17
-40.33
-37.07
-31.82
-25.30
-18.34
-11.67
-5.76
-0.73
3.61
7.64
11.75
16.14
20.73
25.16
28.90
31.46
32.56
32.29
31.08
29.54
28.37
28.05
28.80
30.47
32.67
34.82
36.40
37.01
36.53
35.06
32.93
30.49
28.07
25.86
23.89
22.05
20.17
18.06
15.59
12.74
9.63
6.49
3.61
1.20
-0.66
-2.10
-3.42
-4.96
-6.96
-9.45
-12.31
-15.33
-18.36
-21.41
-24.59
-28.08
-31.98
-36.29
-40.83
-45.30
-49.25
-52.12
-53.36
-52.57
-49.63
-44.82
-38.75
-32.19
-25.87
-20.28
-15.62
-11.90
-9.02
-6.84
-5.23
-3.98
-2.83
-1.49
0.23
2.41
4.91
7.49
9.88
11.85
13.33
14.39
15.14
15.67
15.95
15.87
15.24
13.92
11.89
9.31
6.47
3.76
1.56
0.09
-0.58
-0.53
0.05
0.96
2.00
2.96
3.58
3.60
2.84
1.25
-1.03
-3.71
-6.49
-9.12
-11.40
-13.15
-14.09
-13.87
-12.08
-8.51
-3.15
3.66
11.32
19.13
26.34
32.21
36.02
37.16
35.17
29.92
21.80
11.71
1.11
-8.29
-14.75
-17.02
-14.60
-7.93
1.71
12.53
22.67
30.67
35.67
37.47
36.38
32.89
27.56
20.84
13.12
4.76
-3.79
-12.02
-19.36
-25.17
-28.88
-30.05
-28.51
-24.45
-18.52
-11.67
-4.99
0.57
4.43
6.43
6.75
5.65
3.29
-0.25
-4.94
-10.55
-16.48
-21.81
-25.52
-26.75
-25.06
-20.53
-13.59
-4.93
4.69
14.43
23.43
30.72
35.44
36.98
35.25
30.70
24.36
17.53
11.51
7.33
5.54
6.21
8.99
13.27
18.40
23.74
28.79
33.11
36.38
38.37
38.98
38.33
36.64
34.19
31.15
27.60
23.50
18.84
13.75
8.50
3.49
-0.89
-4.36
-6.78
-8.16
-8.57
-8.11
-6.91
-5.22
-3.42
-2.00
-1.50
-2.34
-4.68
-8.41
-13.14
-18.40
-23.67
-28.45
-32.30
-34.83
-35.83
-35.45
-34.21
-32.89
-32.29
-32.85
-34.51
-36.76
-38.87
-40.21
-40.43
-39.43
-37.34
-34.34
-30.64
-26.48
-22.14
-17.94
-14.21
-11.21
-9.12
-7.98
-7.63
-7.77
-7.91
-7.52
-6.21
-3.92
-0.99
2.00
4.36
5.68
5.83
5.06
3.79
2.40
1.11
-0.07
-1.28
-2.72
-4.53
-6.72
-9.17
-11.68
-14.02
-16.00
-17.46
-18.30
-18.51
-18.12
-17.34
-16.48
-15.94
-16.05
-16.96
-18.44
-19.96
-20.77
-20.18
-17.76
-13.51
-7.85
-1.46
4.89
10.55
15.09
18.40
20.55
21.77
22.32
22.46
22.42
22.36
22.39
22.53
22.71
22.77
22.51
21.82
20.68
19.16
17.41
15.56
13.66
11.72
9.72
7.68
5.62
3.59
1.66
-0.14
-1.79
-3.24
-4.47
-5.46
-6.27
-7.00
-7.77
-8.68
-9.80
-11.14
-12.68
-14.37
-16.09
-17.65
-18.87
-19.61
-19.88
-19.86
-19.81
-19.92
-20.16
-20.23
-19.67
-18.08
-15.34
-11.58
-7.17
-2.46
2.23
6.70
10.78
14.29
17.08
19.14
20.68
22.08
23.76
25.92
28.48
31.04
33.17
34.62
35.35
35.55
35.44
35.13
34.55
33.55
31.91
29.47
26.17
22.02
17.21
12.05
6.98
2.46
-1.08
-3.42
-4.59
-4.85
-4.67
-4.53
-4.82
-5.75
-7.36
-9.51
-12.01
-14.64
-17.22
-19.61
-21.69
-23.35
-24.45
-24.82
-24.19
-22.33
-19.09
-14.47
-8.70
-2.21
4.41
10.57
15.78
19.68
22.13
23.12
22.75
21.24
18.83
15.86
12.75
9.91
7.70
6.30
5.72
5.77
6.23
6.91
7.74
8.76
10.04
11.64
13.46
15.26
16.73
17.54
17.42
16.30
14.30
11.67
8.70
5.63
2.56
-0.55
-3.86
-7.69
-12.45
-18.45
-25.73
-33.80
-41.68
-48.09
-52.00
-52.97
-51.37
-48.14
-44.31
-40.50
-36.74
-32.54
-27.36
-21.01
-13.82
-6.60
-0.33
4.17
6.43
6.51
4.89
2.34
-0.30
-2.35
-3.34
-3.22
-2.26
-1.00
-0.05
0.16
-0.42
-1.42
-2.11
-1.74
0.13
3.45
7.62
11.77
15.09
17.06
17.56
16.81
15.11
12.83
10.33
8.02
6.35
5.67
6.13
7.52
9.37
11.11
12.28
12.72
12.52
11.96
11.28
10.62
9.92
9.09
8.00
6.63
5.00
3.15
1.11
-1.15
-3.62
-6.17
-8.54
-10.35
-11.30
-11.18
-10.07
-8.21
-5.97
-3.63
-1.31
1.02
3.52
6.20
8.98
11.53
13.54
14.77
15.28
15.39
15.57
16.23
17.55
19.39
21.29
22.66
22.88
21.45
18.16
13.18
7.12
0.86
-4.67
-8.90
-11.83
-14.06
-16.56
-20.23
-25.45
-31.85
-38.41
-43.71
-46.38
-45.49
-40.87
-33.23
-23.99
-14.98
-7.89
-3.85
-3.10
-5.00
-8.24
-11.31
-12.92
-12.38
-9.76
-5.85
-1.78
1.32
2.74
2.41
0.90
-0.81
-1.62
-0.62
2.70
8.35
15.84
24.21
32.26
38.76
42.85
44.25
43.36
41.08
38.44
36.26
34.88
34.19
33.81
33.29
32.35
30.90
29.06
27.05
25.21
23.86
23.26
23.55
24.58
26.00
27.28
27.98
27.87
27.08
25.96
24.90
24.10
23.42
22.38
20.35
16.70
10.99
3.18
-6.50
-17.46
-28.97
-40.27
-50.60
-59.32
-65.97
-70.31
-72.37
-72.49
-71.11
-68.62
-65.18
-60.68
-54.89
-47.75
-39.60
-31.18
-23.46
-17.25
-12.88
-10.18
-8.58
-7.52
-6.73
-6.29
-6.41
-7.21
-8.46
-9.61
-10.09
-9.49
-7.80
-5.24
-2.06
1.68
6.20
11.78
18.43
25.66
32.53
37.86
40.71
40.62
37.75
32.74
26.46
19.79
13.37
7.58
2.53
-1.83
-5.61
-8.89
-11.77
-14.33
-16.76
-19.32
-22.23
-25.57
-29.21
-32.70
-35.43
-36.85
-36.63
-34.84
-31.88
-28.28
-24.50
-20.74
-16.90
-12.72
-7.98
-2.61
3.25
9.24
15.00
20.21
24.66
28.24
30.93
32.78
33.93
34.57
34.94
35.25
35.66
36.27
37.04
37.85
38.41
38.40
37.52
35.63
32.86
29.50
25.87
22.14
18.25
13.95
9.01
3.42
-2.64
-8.84
-14.92
-20.87
-26.84
-32.95
-39.13
-45.07
-50.32
-54.56
-57.80
-60.40
-62.83
-65.38
-67.95
-70.12
-71.52
-72.04
-72.06
-72.06
-72.29
-72.33
-71.16
-67.64
-61.20
-52.28
-42.27
-33.00
-25.96
-21.79
-20.18
-20.29
-21.17
-22.16
-22.93
-23.23
-22.68
-20.73
-16.84
-10.95
-3.72
3.33
8.39
9.90
7.29
1.17
-6.90
-14.98
-21.57
-26.11
-29.14
-31.87
-35.63
-41.17
-48.37
-56.25
-63.20
-67.49
-67.60
-62.43
-51.45
-34.73
-12.86
13.00
41.28
70.20
97.96
123.15
144.80
162.43
175.82
184.86
189.54
190.08
187.12
181.76
175.35
169.08
163.58
158.76
153.88
147.99
140.32
130.60
119.02
106.07
92.22
77.84
63.22
48.70
34.76
21.96
10.84
1.63
-5.76
-11.72
-16.82
-21.56
-26.26
-30.98
-35.62
-40.03
-44.11
-47.88
-51.41
-54.81
-58.08
-61.15
-63.85
-65.99
-67.45
-68.17
-68.21
-67.63
-66.51
-64.95
-63.01
-60.79
-58.34
-55.67
-52.61
-48.84
-43.87
-37.24
-28.68
-18.27
-6.46
6.00
18.30
29.72
39.79
48.33
55.37
60.98
65.29
68.38
70.38
71.52
72.12
72.49
72.88
73.28
73.48
73.23
72.33
70.81
68.86
66.73
64.60
62.49
60.27
57.81
55.12
52.39
50.00
48.39
47.91
48.70
50.64
53.38
56.45
59.42
61.96
64.02
65.80
67.63
69.84
72.57
75.64
78.62
80.99
82.35
82.54
81.85
80.89
80.54
81.68
84.89
90.09
96.42
102.17
105.29
103.93
97.06
84.83
68.57
50.25
31.96
15.31
1.14
-10.52
-20.29
-29.15
-38.17
-48.28
-60.14
-74.10
-90.11
-107.86
-126.66
-145.54
-163.27
-178.62
-190.76
-199.73
-206.57
-212.92
-220.25
-228.99
-238.22
-245.88
-249.71
-248.20
-241.15
-229.66
-215.45
-200.13
-184.57
-168.82
-152.37
-134.71
-115.76
-96.00
-76.38
-57.94
-41.33
-26.63
-13.33
-0.70
11.65
23.57
34.39
43.25
49.50
52.87
53.49
51.70
47.98
42.89
37.20
31.73
27.19
23.99
22.07
20.95
20.04
18.87
17.29
15.39
13.29
11.05
8.56
5.77
2.74
-0.20
-2.66
-4.38
-5.36
-5.89
-6.40
-7.14
-8.13
-9.15
-9.94
-10.44
-10.89
-11.70
-13.26
-15.74
-18.96
-22.59
-26.28
-29.82
-33.24
-36.69
-40.30
-44.10
-48.01
-51.89
-55.69
-59.48
-63.34
-67.17
-70.57
-72.80
-73.07
-70.83
-66.05
-59.28
-51.41
-43.33
-35.59
-28.34
-21.56
-15.26
-9.57
-4.63
-0.35
3.69
8.08
13.26
19.19
25.31
30.87
35.28
38.62
41.66
45.56
51.31
59.18
68.42
77.50
84.63
88.30
87.82
83.39
75.97
66.83
57.13
47.68
38.80
30.44
22.32
14.08
5.46
-3.59
-12.83
-21.78
-29.89
-36.78
-42.37
-46.96
-51.16
-55.70
-61.20
-67.87
-75.28
-82.30
-87.42
-89.31
-87.42
-82.33
-75.59
-68.95
-63.48
-58.96
-54.00
-46.83
-36.18
-21.87
-4.86
13.35
31.17
47.26
60.38
69.24
72.68
70.24
62.59
51.67
39.93
29.26
20.15
11.68
2.36
-8.70
-21.10
-33.32
-43.63
-51.15
-56.19
-59.95
-63.57
-67.35
-70.61
-72.17
-71.16
-67.45
-61.60
-54.38
-46.33
-37.43
-27.35
-15.83
-2.98
10.66
24.37
37.60
50.24
62.55
74.95
87.73
100.79
113.69
125.73
136.17
144.30
149.56
151.56
150.17
145.47
137.78
127.64
115.69
102.58
88.87
75.01
61.35
48.17
35.78
24.57
14.98
7.34
1.74
-2.09
-4.65
-6.54
-8.18
-9.69
-10.93
-11.75
-12.10
-12.18
-12.20
-12.26
-12.19
-11.66
-10.34
-8.15
-5.29
-2.20
0.70
3.16
5.20
7.02
8.83
10.76
12.77
14.80
16.85
19.15
22.04
25.94
31.14
37.64
45.15
53.06
60.69
67.45
73.01
77.38
80.80
83.58
85.86
87.62
88.61
88.54
87.21
84.52
80.40
74.67
66.99
56.95
44.33
29.34
12.69
-4.62
-21.67
-38.10
-54.24
-70.91
-88.97
-108.69
-129.46
-149.82
-167.86
-181.82
-190.48
-193.41
-190.84
-183.53
-172.58
-159.40
-145.57
-132.69
-122.16
-114.82
-110.82
-109.59
-109.98
-110.58
-109.99
-106.98
-100.68
-90.63
-76.88
-60.03
-41.17
-21.75
-3.32
12.76
25.63
35.04
41.29
45.12
47.44
49.04
50.49
52.01
53.62
55.18
56.49
57.36
57.68
57.37
56.55
55.42
54.25
53.27
52.50
51.72
50.60
48.81
46.26
43.14
39.87
36.99
34.90
33.78
33.59
34.08
34.87
35.56
35.78
35.30
34.08
32.24
30.01
27.57
24.91
21.85
18.24
14.09
9.81
6.12
3.85
3.62
5.60
9.42
14.32
19.50
24.30
28.41
31.74
34.30
36.06
36.91
36.71
35.49
33.42
30.91
28.43
26.39
24.99
24.16
23.66
23.17
22.43
21.36
20.07
18.79
17.78
17.17
16.93
16.85
16.68
16.21
15.40
14.34
13.16
11.96
10.71
9.34
7.70
5.75
3.50
1.03
-1.61
-4.45
-7.57
-11.10
-15.04
-19.23
-23.30
-26.68
-28.74
-28.94
-27.06
-23.29
-18.22
-12.68
-7.49
-3.29
-0.38
1.30
2.01
2.07
1.73
1.15
0.37
-0.65
-1.85
-3.18
-4.49
-5.62
-6.36
-6.57
-6.15
-5.15
-3.74
-2.20
-0.78
0.33
1.11
1.67
2.14
2.59
3.03
3.36
3.56
3.70
3.94
4.46
5.34
6.51
7.77
8.93
9.86
10.55
11.02
11.28
11.17
10.47
9.01
6.83
4.29
2.05
0.84
1.20
3.29
6.79
11.08
15.34
18.84
21.13
21.95
21.38
19.56
16.74
13.11
8.81
3.83
-1.88
-8.37
-15.61
-23.38
-31.27
-38.79
-45.54
-51.34
-56.28
-60.70
-64.93
-69.21
-73.42
-77.19
-79.98
-81.34
-81.06
-79.24
-76.27
-72.62
-68.71
-64.80
-61.00
-57.32
-53.72
-50.15
-46.59
-43.03
-39.50
-36.03
-32.69
-29.48
-26.29
-22.82
-18.69
-13.62
-7.63
-1.12
5.28
10.92
15.38
18.61
20.83
22.24
22.94
22.86
21.96
20.48
18.97
18.27
19.15
22.02
26.72
32.61
38.73
44.15
48.13
50.30
50.73
49.91
48.58
47.54
47.31
47.93
48.93
49.63
49.43
48.18
46.24
44.25
42.74
41.84
41.16
39.94
37.36
32.79
25.94
17.00
6.50
-4.68
-15.48
-24.86
-31.99
-36.48
-38.38
-38.15
-36.49
-34.10
-31.54
-29.18
-27.20
-25.61
-24.30
-23.00
-21.48
-19.47
-16.94
-14.08
-11.28
-9.11
-7.99
-8.14
-9.36
-11.12
-12.67
-13.33
-12.72
-10.95
-8.51
-6.01
-3.94
-2.44
-1.31
-0.17
1.28
3.09
5.05
6.70
7.55
7.24
5.59
2.67
-1.25
-5.71
-10.14
-13.86
-16.24
-16.76
-15.14
-11.44
-6.07
0.21
6.51
11.99
16.07
18.50
19.39
19.04
17.82
16.04
13.92
11.70
9.64
8.03
7.19
7.30
8.34
10.09
12.17
14.21
15.93
17.16
17.91
18.19
17.98
17.22
15.80
13.71
11.12
8.40
6.08
4.61
4.27
5.06
6.72
8.86
11.06
12.97
14.34
14.97
14.74
13.66
11.90
9.89
8.23
7.55
8.38
10.97
15.23
20.80
27.19
33.95
40.75
47.39
53.74
59.66
64.97
69.49
73.07
75.66
77.34
78.28
78.76
79.12
79.63
80.35
80.94
80.58
78.09
72.17
61.88
46.90
27.70
5.45
-18.30
-41.94
-64.11
-83.85
-100.59
-114.10
-124.32
-131.27
-135.03
-135.81
-133.92
-129.85
-124.15
-117.37
-109.99
-102.35
-94.75
-87.45
-80.66
-74.40
-68.45
-62.32
-55.43
-47.34
-37.98
-27.66
-17.08
-7.03
1.76
8.80
13.93
17.28
19.19
20.19
20.76
21.20
21.64
21.96
22.02
21.74
21.18
20.55
20.05
19.73
19.49
19.16
18.58
17.75
16.79
15.84
14.95
13.98
12.77
11.17
9.23
7.12
5.06
3.16
1.39
-0.40
-2.40
-4.73
-7.43
-10.46
-13.80
-17.37
-21.02
-24.48
-27.28
-28.91
-28.94
-27.15
-23.66
-18.87
-13.39
-7.83
-2.74
1.56
4.94
7.50
9.46
11.07
12.57
14.10
15.74
17.48
19.30
21.15
22.94
24.53
25.81
26.70
27.21
27.48
27.68
27.95
28.31
28.72
29.04
29.19
29.05
28.59
27.84
26.81
25.57
24.22
22.82
21.38
19.86
18.16
16.20
13.96
11.44
8.68
5.60
2.12
-1.86
-6.28
-10.94
-15.49
-19.51
-22.61
-24.54
-25.23
-24.76
-23.38
-21.45
-19.30
-17.23
-15.39
-13.77
-12.26
-10.76
-9.21
-7.64
-6.12
-4.67
-3.27
-1.83
-0.25
1.49
3.32
5.09
6.64
7.84
8.67
9.27
9.72
10.09
10.29
10.11
9.35
7.94
6.03
3.88
1.81
-0.01
-1.57
-3.05
-4.64
-6.45
-8.41
-10.35
-12.08
-13.48
-14.56
-15.42
-16.20
-17.04
-18.06
-19.36
-21.03
-23.15
-25.67
-28.37
-30.81
-32.36
-32.43
-30.66
-27.12
-22.31
-17.03
-12.04
-7.88
-4.70
-2.32
-0.46
1.16
2.65
4.02
5.27
6.34
7.24
7.94
8.42
8.61
8.51
8.15
7.66
7.18
6.90
6.97
7.45
8.32
9.46
10.65
11.71
12.54
13.09
13.39
13.49
13.36
13.04
12.52
11.89
11.26
10.74
10.36
10.01
9.51
8.71
7.55
6.12
4.57
3.09
1.73
0.44
-0.93
-2.53
-4.54
-7.03
-9.99
-13.24
-16.46
-19.15
-20.80
-20.96
-19.42
-16.29
-12.00
-7.18
-2.51
1.50
4.59
6.77
8.20
9.13
9.71
10.05
10.22
10.28
10.31
10.44
10.72
11.17
11.71
12.19
12.53
12.66
12.58
12.38
12.13
11.91
11.71
11.47
11.03
10.29
9.22
8.01
6.95
6.29
6.09
6.16
6.12
5.60
4.46
2.79
0.86
-1.02
-2.70
-4.16
-5.56
-7.09
-8.97
-11.33
-14.28
-17.77
-21.60
-25.35
-28.48
-30.38
-30.61
-29.01
-25.76
-21.37
-16.46
-11.64
-7.36
-3.84
-1.10
0.97
2.51
3.68
4.55
5.24
5.83
6.44
7.11
7.87
8.69
9.49
10.18
10.69
11.01
11.15
11.17
11.11
10.97
10.72
10.25
9.50
8.43
7.05
5.46
3.79
2.15
0.60
-0.87
-2.34
-3.86
-5.50
-7.26
-9.11
-11.00
-12.86
-14.64
-16.40
-18.25
-20.35
-22.90
-25.93
-29.28
-32.59
-35.27
-36.74
-36.54
-34.50
-30.75
-25.72
-20.00
-14.19
-8.75
-3.96
0.13
3.61
6.67
9.46
12.09
14.57
16.81
18.73
20.19
21.18
21.72
21.92
21.91
21.78
21.55
21.21
20.79
20.31
19.84
19.39
18.87
18.10
16.93
15.29
13.28
11.13
9.06
7.21
5.56
3.97
2.27
0.35
-1.84
-4.26
-6.78
-9.24
-11.50
-13.46
-15.13
-16.68
-18.37
-20.48
-23.19
-26.46
-29.97
-33.20
-35.49
-36.24
-35.04
-31.84
-26.91
-20.86
-14.43
-8.26
-2.72
2.10
6.30
10.04
13.39
16.32
18.77
20.71
22.23
23.40
24.30
24.94
25.32
25.50
25.66
25.96
26.50
27.20
27.82
28.10
27.88
27.18
26.09
24.73
23.15
21.31
19.19
16.80
14.23
11.59
8.93
6.20
3.30
0.20
-3.02
-6.11
-8.76
-10.78
-12.19
-13.25
-14.41
-16.12
-18.69
-22.21
-26.58
-31.60
-36.99
-42.41
-47.35
-51.15
-53.06
-52.45
-49.06
-43.14
-35.39
-26.78
-18.27
-10.57
-4.03
1.32
5.66
9.25
12.35
15.12
17.66
19.97
21.95
23.52
24.58
25.11
25.14
24.76
24.05
23.07
21.87
20.49
19.02
17.53
16.07
14.60
13.04
11.25
9.16
6.81
4.44
2.35
0.81
-0.07
-0.45
-0.67
-1.14
-2.20
-4.02
-6.61
-9.79
-13.31
-16.83
-20.01
-22.60
-24.50
-25.77
-26.65
-27.36
-27.99
-28.33
-27.97
-26.36
-23.12
-18.17
-11.80
-4.59
2.77
9.66
15.67
20.60
24.44
27.26
29.17
30.34
30.90
31.04
30.92
30.68
30.36
29.92
29.28
28.34
27.03
25.40
23.63
21.90
20.37
19.07
17.87
16.55
14.93
12.95
10.68
8.27
5.86
3.47
1.04
-1.52
-4.24
-7.07
-9.89
-12.57
-15.01
-17.20
-19.19
-21.06
-22.96
-25.03
-27.43
-30.16
-33.06
-35.65
-37.26
-37.15
-34.76
-29.97
-23.15
-15.13
-6.88
0.69
7.02
11.93
15.54
18.14
19.94
21.12
21.79
22.05
22.01
21.83
21.61
21.42
21.30
21.28
21.39
21.63
21.94
22.17
22.16
21.74
20.86
19.55
17.87
15.95
13.85
11.63
9.33
6.99
4.57
2.00
-0.82
-3.96
-7.35
-10.81
-14.10
-17.07
-19.73
-22.32
-25.16
-28.51
-32.38
-36.42
-40.00
-42.29
-42.56
-40.35
-35.67
-28.96
-20.99
-12.63
-4.63
2.49
8.49
13.34
17.13
19.98
22.04
23.50
24.56
25.42
26.16
26.75
27.09
27.12
26.87
26.50
26.21
26.10
26.11
25.95
25.34
24.04
22.02
19.43
16.57
13.71
11.03
8.59
6.29
4.01
1.60
-1.06
-3.97
-7.10
-10.34
-13.59
-16.80
-19.96
-23.13
-26.41
-29.94
-33.83
-37.99
-42.10
-45.50
-47.39
-47.01
-43.97
-38.41
-30.99
-22.65
-14.32
-6.67
0.01
5.71
10.56
14.68
18.06
20.67
22.47
23.58
24.21
24.64
25.07
25.52
25.90
26.02
25.73
25.06
24.16
23.21
22.32
21.45
20.47
19.22
17.65
15.78
13.72
11.60
9.48
7.38
5.27
3.11
0.86
-1.51
-4.04
-6.71
-9.48
-12.24
-14.84
-17.14
-19.10
-20.80
-22.50
-24.49
-27.03
-30.18
-33.68
-36.99
-39.39
-40.14
-38.69
-34.85
-28.86
-21.31
-12.99
-4.69
2.99
9.66
15.18
19.56
22.87
25.22
26.75
27.61
28.00
28.11
28.07
28.00
27.93
27.83
27.66
27.31
26.75
25.96
25.02
24.06
23.21
22.46
21.69
20.67
19.19
17.18
14.80
12.33
10.06
8.18
6.63
5.20
3.61
1.70
-0.53
-2.89
-5.20
-7.33
-9.30
-11.23
-13.32
-15.70
-18.49
-21.71
-25.31
-29.06
-32.53
-35.06
-35.93
-34.60
-30.87
-25.06
-17.86
-10.17
-2.75
3.87
9.42
13.84
17.13
19.34
20.57
20.98
20.85
20.47
20.09
19.83
19.63
19.38
18.93
18.24
17.38
16.49
15.75
15.26
14.97
14.75
14.37
13.65
12.50
10.97
9.19
7.33
5.51
3.73
1.92
-0.09
-2.43
-5.14
-8.12
-11.15
-13.98
-16.47
-18.61
-20.60
-22.75
-25.36
-28.59
-32.36
-36.28
-39.69
-41.81
-41.89
-39.48
-34.58
-27.66
-19.58
-11.36
-3.88
2.26
6.87
10.07
12.18
13.59
14.61
15.44
16.18
16.84
17.38
17.80
18.10
18.29
18.36
18.31
18.12
17.77
17.35
16.91
16.51
16.14
15.68
14.98
13.89
12.32
10.33
8.05
5.70
3.45
1.30
-0.86
-3.27
-6.13
-9.48
-13.13
-16.72
-19.91
-22.52
-24.71
-26.88
-29.55
-33.06
-37.39
-42.11
-46.42
-49.45
-50.43
-48.95
-44.98
-38.90
-31.35
-23.11
-14.98
-7.61
-1.44
3.38
6.98
9.68
11.81
13.62
15.18
16.45
17.38
17.99
18.36
18.62
18.87
19.18
19.57
20.04
20.59
21.18
21.78
22.32
22.70
22.81
22.52
21.73
20.38
18.55
16.41
14.21
12.14
10.22
8.31
6.15
3.59
0.65
-2.45
-5.41
-8.02
-10.27
-12.35
-14.57
-17.24
-20.50
-24.34
-28.54
-32.71
-36.30
-38.69
-39.32
-37.79
-34.06
-28.38
-21.27
-13.41
-5.47
1.95
8.50
14.03
18.63
22.52
25.96
29.12
31.92
34.15
35.52
35.87
35.24
33.84
31.89
29.55
26.85
23.77
20.38
16.90
13.65
10.89
8.71
6.96
5.32
3.51
1.40
-0.88
-3.09
-4.95
-6.31
-7.17
-7.68
-8.00
-8.28
-8.63
-9.09
-9.68
-10.42
-11.32
-12.40
-13.68
-15.21
-16.99
-18.96
-21.02
-22.99
-24.63
-25.65
-25.74
-24.54
-21.70
-16.99
-10.37
-2.06
7.41
17.30
26.77
35.04
41.49
45.82
48.12
48.90
49.02
49.49
51.15
54.39
59.03
64.43
69.72
74.22
77.72
80.48
83.19
86.73
91.86
98.87
107.20
115.20
120.27
119.57
110.98
94.15
70.90
44.73
19.62
-1.35
-16.96
-27.80
-35.59
-42.02
-48.13
-54.07
-59.54
-64.26
-68.39
-72.40
-76.87
-82.18
-88.26
-94.57
-100.26
-104.50
-106.68
-106.66
-104.78
-101.65
-97.94
-94.06
-90.17
-86.18
-81.87
-77.01
-71.38
-64.73
-56.84
-47.59
-37.02
-25.34
-12.80
0.38
14.14
28.31
42.47
55.85
67.45
76.48
82.64
86.25
87.97
88.32
87.35
84.57
79.34
71.28
60.63
48.10
34.52
20.49
6.17
-8.57
-23.80
-39.29
-54.46
-68.53
-80.67
-90.22
-96.60
-99.45
-98.60
-94.34
-87.43
-79.14
-70.94
-64.07
-59.17
-56.16
-54.35
-52.75
-50.40
-46.60
-40.97
-33.45
-24.24
-13.81
-2.80
8.03
18.03
26.69
33.79
39.33
43.46
46.37
48.18
48.89
48.43
46.72
43.78
39.71
34.71
29.10
23.20
17.35
11.78
6.65
2.06
-1.93
-5.28
-7.91
-9.79
-10.93
-11.42
-11.44
-11.18
-10.82
-10.44
-10.07
-9.78
-9.63
-9.73
-10.16
-10.91
-11.88
-12.87
-13.74
-14.43
-15.10
-15.97
-17.32
-19.29
-21.90
-24.98
-28.21
-31.12
-33.08
-33.54
-32.04
-28.46
-23.06
-16.43
-9.27
-2.27
4.11
9.68
14.35
18.13
20.99
22.94
24.06
24.53
24.62
24.58
24.60
24.73
24.90
24.96
24.77
24.30
23.56
22.72
21.95
21.40
21.12
21.01
20.88
20.51
19.76
18.62
17.20
15.63
14.03
12.42
10.80
9.11
7.35
5.49
3.49
1.29
-1.16
-3.84
-6.64
-9.34
-11.73
-13.75
-15.49
-17.24
-19.31
-21.93
-25.09
-28.50
-31.65
-33.92
-34.73
-33.65
-30.57
-25.65
-19.36
-12.33
-5.24
1.33
6.96
11.44
14.74
16.95
18.27
18.96
19.28
19.45
19.59
19.71
19.79
19.73
19.53
19.22
18.89
18.61
18.34
17.99
17.40
16.47
15.19
13.65
12.00
10.31
8.60
6.77
4.73
2.43
-0.04
-2.56
-4.98
-7.24
-9.39
-11.51
-13.69
-15.94
-18.24
-20.56
-22.92
-25.45
-28.28
-31.45
-34.77
-37.78
-39.79
-40.11
-38.28
-34.22
-28.32
-21.28
-13.92
-6.92
-0.73
4.47
8.69
11.98
14.38
15.93
16.71
16.87
16.63
16.26
15.98
15.90
15.99
16.10
16.09
15.87
15.46
14.94
14.36
13.72
12.94
11.90
10.57
9.01
7.34
5.67
4.09
2.57
1.07
-0.50
-2.15
-3.90
-5.76
-7.72
-9.76
-11.83
-13.85
-15.71
-17.42
-19.08
-20.91
-23.19
-26.12
-29.65
-33.50
-37.07
-39.64
-40.57
-39.40
-36.03
-30.72
-24.04
-16.70
-9.42
-2.76
2.95
7.64
11.41
14.51
17.16
19.52
21.59
23.28
24.46
25.09
25.23
25.04
24.74
24.46
24.29
24.17
24.00
23.71
23.32
22.83
22.28
21.66
20.89
19.86
18.51
16.84
14.97
13.02
11.16
9.48
7.95
6.43
4.71
2.60
-0.01
-3.06
-6.32
-9.49
-12.34
-14.81
-17.08
-19.43
-22.10
-25.14
-28.37
-31.40
-33.78
-35.06
-34.92
-33.16
-29.74
-24.82
-18.74
-12.06
-5.41
0.65
5.81
10.00
13.41
16.31
18.93
21.34
23.50
25.25
26.48
27.10
27.12
26.61
25.73
24.58
23.35
22.18
21.22
20.61
20.44
20.74
21.38
22.12
22.60
22.51
21.66
20.10
18.03
15.72
13.33
10.90
8.37
5.70
2.97
0.36
-1.92
-3.77
-5.20
-6.36
-7.40
-8.45
-9.64
-11.20
-13.44
-16.70
-21.15
-26.57
-32.28
-37.25
-40.36
-40.80
-38.21
-32.85
-25.44
-16.98
-8.51
-0.87
5.36
9.97
12.99
14.64
15.22
15.04
14.42
13.66
13.07
12.88
13.22
14.09
15.34
16.76
18.19
19.53
20.77
21.90
22.87
23.57
23.84
23.54
22.63
21.18
19.36
17.41
15.50
13.72
12.05
10.34
8.42
6.20
3.71
1.07
-1.56
-4.09
-6.54
-9.05
-11.81
-14.91
-18.38
-22.06
-25.69
-28.86
-31.05
-31.74
-30.49
-27.12
-21.81
-15.13
-7.93
-1.07
4.75
9.16
12.12
13.88
14.77
15.15
15.27
15.27
15.20
15.04
14.80
14.51
14.25
14.11
14.13
14.29
14.49
14.64
14.67
14.56
14.30
13.86
13.17
12.09
10.52
8.46
6.03
3.42
0.83
-1.61
-3.87
-6.02
-8.16
-10.37
-12.67
-15.03
-17.38
-19.72
-22.11
-24.69
-27.68
-31.27
-35.53
-40.26
-44.92
-48.73
-50.86
-50.63
-47.80
-42.62
-35.77
-28.14
-20.55
-13.56
-7.46
-2.24
2.22
6.07
9.48
12.56
15.41
18.12
20.74
23.26
25.59
27.59
29.18
30.37
31.32
32.26
33.36
34.68
36.03
37.05
37.28
36.30
33.97
30.44
26.13
21.56
17.13
12.99
9.03
4.99
0.72
-3.74
-8.18
-12.28
-15.81
-18.72
-21.12
-23.20
-25.16
-27.13
-29.20
-31.48
-34.01
-36.80
-39.68
-42.31
-44.11
-44.46
-42.81
-38.92
-32.97
-25.55
-17.50
-9.72
-2.87
2.70
7.01
10.27
12.80
14.83
16.51
17.87
18.92
19.70
20.25
20.65
20.94
21.12
21.16
21.02
20.67
20.16
19.56
18.96
18.42
17.94
17.44
16.74
15.74
14.38
12.73
10.97
9.28
7.79
6.46
5.14
3.63
1.84
-0.22
-2.43
-4.61
-6.65
-8.51
-10.18
-11.70
-13.06
-14.29
-15.50
-16.94
-18.87
-21.47
-24.68
-28.15
-31.22
-33.16
-33.31
-31.34
-27.32
-21.67
-15.09
-8.33
-1.99
3.51
8.06
11.77
14.82
17.46
19.83
21.93
23.69
25.00
25.80
26.16
26.24
26.27
26.44
26.85
27.40
27.92
28.20
28.08
27.48
26.40
24.88
22.95
20.69
18.21
15.68
13.27
11.10
9.14
7.28
5.37
3.30
1.07
-1.22
-3.45
-5.54
-7.50
-9.42
-11.46
-13.77
-16.49
-19.70
-23.43
-27.60
-32.01
-36.29
-39.97
-42.50
-43.33
-41.99
-38.23
-32.10
-24.03
-14.84
-5.65
2.38
8.38
11.96
13.37
13.30
12.61
12.01
11.90
12.34
13.20
14.29
15.47
16.66
17.80
18.84
19.73
20.43
20.94
21.29
21.60
21.97
22.44
22.97
23.38
23.44
22.92
21.79
20.22
18.51
16.88
15.38
13.77
11.68
8.83
5.12
0.78
-3.79
-8.06
-11.54
-13.82
-14.68
-14.16
-12.73
-11.28
-10.93
-12.69
-16.95
-23.23
-30.26
-36.28
-39.69
-39.42
-35.26
-27.76
-17.97
-7.16
3.42
12.73
20.03
24.87
27.23
27.44
26.16
24.22
22.48
21.55
21.68
22.65
23.86
24.59
24.28
22.86
20.67
18.39
16.64
15.65
15.18
14.59
13.09
10.08
5.24
-1.46
-9.81
-19.42
-29.70
-39.88
-49.08
-56.55
-61.90
-65.23
-66.91
-67.31
-66.47
-64.11
-59.88
-53.87
-46.79
-39.92
-34.60
-31.67
-31.08
-32.03
-33.37
-34.17
-33.96
-32.79
-30.82
-28.10
-24.52
-19.90
-14.31
-8.16
-2.08
3.36
7.95
11.79
15.24
18.53
21.70
24.52
26.78
28.37
29.42
30.20
30.95
31.79
32.66
33.41
33.94
34.21
34.28
34.19
33.93
33.34
32.21
30.27
27.38
23.72
19.79
16.39
14.20
13.36
13.07
11.52
6.29
-4.68
-22.18
-45.40
-72.05
-99.31
-124.58
-145.94
-162.25
-172.99
-178.33
-179.05
-176.31
-171.24
-164.28
-154.73
-140.89
-121.00
-94.43
-62.65
-29.14
1.83
26.83
44.56
56.05
63.80
70.43
77.66
85.84
94.29
102.09
108.60
113.70
117.56
120.23
121.34
120.33
116.84
111.09
103.91
96.47
89.81
84.41
80.01
75.76
70.67
64.05
55.84
46.70
37.68
29.77
23.61
19.24
16.22
13.90
11.67
9.22
6.50
3.66
0.94
-1.58
-3.99
-6.50
-9.30
-12.30
-15.07
-16.83
-16.73
-14.14
-8.92
-1.48
7.39
16.86
26.30
35.39
43.95
51.73
58.27
62.93
65.17
64.78
62.07
57.85
53.12
48.85
45.65
43.69
42.68
42.15
41.66
41.02
40.40
40.22
41.07
43.43
47.55
53.29
59.78
65.39
67.79
64.59
54.17
36.47
13.28
-12.23
-36.63
-57.35
-73.49
-85.82
-96.06
-105.93
-116.36
-127.33
-138.10
-147.69
-155.27
-160.25
-162.20
-160.69
-155.36
-145.86
-132.21
-114.92
-95.02
-73.83
-52.63
-32.39
-13.67
3.37
18.68
32.21
43.75
53.02
59.78
63.99
65.90
66.07
65.24
64.14
63.30
62.87
62.63
62.18
61.15
59.42
57.17
54.81
52.79
51.43
50.75
50.57
50.47
50.02
48.84
46.77
43.77
40.02
35.74
31.13
26.38
21.60
16.95
12.53
8.44
4.69
1.17
-2.31
-6.02
-10.20
-15.02
-20.58
-26.87
-33.75
-40.84
-47.53
-52.99
-56.43
-57.31
-55.54
-51.58
-46.24
-40.43
-34.85
-29.92
-25.74
-22.30
-19.58
-17.64
-16.53
-16.23
-16.57
-17.29
-18.09
-18.74
-19.13
-19.20
-19.00
-18.57
-17.97
-17.26
-16.49
-15.72
-15.03
-14.49
-14.15
-13.99
-13.99
-14.09
-14.24
-14.46
-14.76
-15.17
-15.68
-16.26
-16.86
-17.47
-18.13
-18.90
-19.87
-21.15
-22.84
-25.05
-27.79
-30.90
-33.95
-36.33
-37.33
-36.44
-33.47
-28.68
-22.66
-16.15
-9.78
-3.97
1.06
5.25
8.65
11.28
13.23
14.58
15.47
16.02
16.37
16.64
16.88
17.16
17.47
17.82
18.15
18.40
18.51
18.37
17.92
17.11
15.95
14.47
12.75
10.86
8.85
6.77
4.66
2.59
0.67
-1.00
-2.33
-3.33
-4.12
-4.89
-5.83
-7.19
-9.14
-11.74
-14.90
-18.33
-21.51
-23.81
-24.67
-23.68
-20.79
-16.27
-10.69
-4.71
1.01
5.94
9.79
12.49
14.14
15.00
15.33
15.35
15.19
14.91
14.56
14.24
14.07
14.16
14.52
15.02
15.52
15.84
15.89
15.73
15.39
14.93
14.38
13.68
12.82
11.73
10.40
8.77
6.79
4.48
1.88
-0.85
-3.55
-6.06
-8.30
-10.31
-12.20
-14.15
-16.38
-19.06
-22.31
-26.03
-29.87
-33.22
-35.39
-35.76
-34.01
-30.21
-24.82
-18.51
-12.04
-6.00
-0.74
3.62
7.11
9.86
11.92
13.34
14.17
14.50
14.53
14.49
14.57
14.86
15.25
15.58
15.68
15.47
14.98
14.36
13.73
13.18
12.69
12.20
11.64
10.97
10.20
9.36
8.53
7.69
6.78
5.68
4.32
2.66
0.79
-1.18
-3.10
-4.88
-6.51
-8.02
-9.48
-11.03
-12.80
-14.96
-17.59
-20.68
-23.96
-26.99
-29.11
-29.64
-28.05
-24.21
-18.42
-11.37
-3.96
2.92
8.66
12.95
15.82
17.47
18.18
18.26
17.92
17.38
16.82
16.38
16.14
16.08
16.13
16.18
16.17
16.09
16.01
16.05
16.30
16.72
17.13
17.28
16.94
16.02
14.60
12.94
11.31
9.87
8.65
7.57
6.44
5.10
3.46
1.53
-0.60
-2.81
-4.99
-7.06
-9.02
-10.92
-12.94
-15.27
-18.03
-21.20
-24.47
-27.33
-29.11
-29.24
-27.38
-23.57
-18.22
-11.98
-5.57
0.36
5.35
9.17
11.80
13.35
14.02
14.07
13.76
13.33
12.99
12.91
13.20
13.92
15.05
16.52
18.25
20.07
21.84
23.41
24.62
25.35
25.47
24.91
23.65
21.74
19.32
16.59
13.74
10.93
8.28
5.85
3.69
1.85
0.32
-0.98
-2.17
-3.37
-4.72
-6.28
-8.12
-10.40
-13.37
-17.31
-22.33
-28.21
-34.19
-39.17
-41.90
-41.46
-37.59
-30.77
-22.14
-13.00
-4.50
2.68
8.30
12.39
15.07
16.40
16.42
15.29
13.39
11.33
9.79
9.30
10.09
11.93
14.29
16.53
18.07
18.59
18.07
16.69
14.73
12.48
10.19
8.08
6.32
5.08
4.47
4.52
5.10
5.96
6.76
7.20
7.03
6.05
3.89
0.03
-6.16
-15.08
-26.61
-40.05
-54.23
-67.80
-79.59
-88.78
-94.86
-97.37
-95.85
-89.89
-79.52
-65.52
-49.45
-33.36
-19.25
-8.54
-1.75
1.50
2.16
1.41
0.25
-0.71
-1.32
-1.64
-1.76
-1.60
-0.86
1.00
4.60
10.45
18.73
29.24
41.46
54.74
68.34
81.61
93.97
104.90
113.94
120.71
124.91
126.32
124.82
120.33
112.89
102.73
90.33
76.39
61.62
46.55
31.34
15.78
-0.29
-16.62
-32.18
-45.31
-54.30
-58.15
-57.18
-52.99
-47.87
-43.86
-41.92
-41.65
-41.68
-40.41
-36.78
-30.77
-23.24
-15.55
-8.95
-4.20
-1.35
-0.01
0.47
0.66
0.85
1.10
1.32
1.47
1.62
1.97
2.72
3.90
5.31
6.53
7.13
6.75
5.35
3.15
0.51
-2.20
-4.73
-6.99
-9.03
-10.96
-12.88
-14.75
-16.45
-17.73
-18.38
-18.33
-17.71
-16.96
-16.58
-17.09
-18.78
-21.66
-25.37
-29.28
-32.60
-34.51
-34.40
-31.98
-27.35
-20.99
-13.62
-6.10
0.83
6.60
10.93
13.76
15.28
15.74
15.46
14.76
13.86
12.97
12.20
11.58
11.06
10.52
9.81
8.86
7.69
6.48
5.40
4.59
4.07
3.73
3.40
2.87
1.95
0.52
-1.50
-4.01
-6.83
-9.67
-12.22
-14.33
-16.01
-17.52
-19.18
-21.33
-24.18
-27.77
-31.91
-36.25
-40.25
-43.20
-44.36
-43.11
-39.28
-33.19
-25.71
-17.93
-10.86
-5.15
-0.93
2.02
4.11
5.67
6.84
7.62
7.92
7.65
6.86
5.65
4.14
2.50
0.86
-0.66
-2.04
-3.35
-4.66
-6.07
-7.60
-9.13
-10.50
-11.60
-12.51
-13.55
-15.17
-17.74
-21.30
-25.39
-29.13
-31.54
-31.89
-30.05
-26.59
-22.59
-19.26
-17.56
-17.86
-19.88
-22.83
-25.56
-26.80
-25.29
-20.07
-10.71
2.46
18.36
35.43
52.10
67.38
81.04
93.44
105.06
115.97
125.64
133.12
137.57
138.63
136.62
132.37
126.80
120.65
114.39
108.33
102.75
97.96
94.20
91.43
89.23
86.85
83.39
78.04
70.28
59.96
47.27
32.68
16.84
0.41
-16.02
-32.11
-47.75
-62.99
-77.84
-92.10
-105.31
-116.85
-126.18
-133.14
-137.98
-141.27
-143.55
-145.01
-145.26
-143.42
-138.48
-129.83
-117.56
-102.56
-86.23
-69.96
-54.79
-41.18
-29.13
-18.48
-9.19
-1.41
4.63
8.80
11.24
12.39
12.87
13.36
14.39
16.28
19.05
22.46
26.10
29.55
32.48
34.70
36.19
36.99
37.23
37.09
36.83
36.71
36.99
37.68
38.60
39.39
39.62
39.03
37.57
35.38
32.66
29.56
26.13
22.30
17.88
12.67
6.50
-0.69
-8.68
-16.97
-24.72
-30.91
-34.63
-35.31
-32.86
-27.71
-20.68
-12.73
-4.83
2.25
7.98
12.13
14.69
15.86
15.95
15.31
14.26
13.10
11.99
11.06
10.33
9.75
9.20
8.52
7.63
6.53
5.35
4.30
3.52
3.08
2.85
2.64
2.21
1.39
0.13
-1.52
-3.45
-5.50
-7.55
-9.54
-11.43
-13.22
-15.00
-16.81
-18.69
-20.67
-22.74
-24.94
-27.35
-29.94
-32.54
-34.70
-35.76
-35.08
-32.27
-27.36
-20.89
-13.65
-6.48
-0.02
5.38
9.65
12.81
14.91
16.01
16.14
15.41
14.01
12.15
10.08
7.98
5.94
4.04
2.29
0.71
-0.63
-1.64
-2.23
-2.35
-2.02
-1.32
-0.40
0.59
1.49
2.17
2.52
2.49
2.10
1.45
0.67
-0.07
-0.67
-1.15
-1.65
-2.48
-3.91
-6.20
-9.38
-13.25
-17.30
-20.82
-23.02
-23.25
-21.23
-17.08
-11.35
-4.81
1.75
7.74
12.82
16.94
20.22
22.86
25.09
27.07
28.88
30.56
32.03
33.24
34.11
34.62
34.80
34.68
34.35
33.88
33.32
32.71
32.05
31.25
30.20
28.77
26.90
24.63
22.07
19.36
16.61
13.84
11.04
8.13
5.04
1.76
-1.72
-5.42
-9.38
-13.69
-18.45
-23.74
-29.50
-35.44
-41.05
-45.57
-48.23
-48.42
-45.91
-40.95
-34.20
-26.54
-18.91
-12.05
-6.39
-2.09
0.96
3.01
4.38
5.36
6.18
6.97
7.81
8.69
9.56
10.33
10.95
11.43
11.83
12.24
12.72
13.27
13.77
14.07
13.96
13.32
12.16
10.57
8.78
6.98
5.29
3.71
2.11
0.33
-1.71
-3.97
-6.30
-8.49
-10.43
-12.18
-13.96
-16.05
-18.73
-22.07
-25.96
-30.07
-33.88
-36.78
-38.12
-37.41
-34.39
-29.20
-22.35
-14.68
-7.12
-0.50
4.68
8.28
10.47
11.62
12.06
12.07
11.85
11.49
11.13
10.87
10.76
10.81
10.96
11.11
11.19
11.19
11.14
11.12
11.15
11.18
11.09
10.74
10.01
8.87
7.38
5.64
3.81
1.96
0.16
-1.60
-3.31
-4.97
-6.53
-7.99
-9.41
-10.88
-12.59
-14.74
-17.46
-20.74
-24.36
-27.87
-30.67
-32.08
-31.61
-29.03
-24.48
-18.48
-11.74
-5.00
1.17
6.45
10.76
14.15
16.63
18.18
18.78
18.49
17.57
16.44
15.56
15.24
15.50
16.07
16.57
16.67
16.31
15.69
15.18
15.10
15.56
16.41
17.30
17.86
17.82
17.10
15.81
14.16
12.35
10.56
8.84
7.14
5.35
3.34
0.96
-1.88
-5.26
-9.23
-13.86
-19.20
-25.30
-32.05
-39.16
-46.03
-51.82
-55.57
-56.50
-54.17
-48.72
-40.83
-31.51
-21.83
-12.70
-4.66
2.00
7.25
11.16
13.88
15.61
16.58
17.00
17.03
16.77
16.17
15.20
13.81
12.07
10.10
8.09
6.18
4.46
2.92
1.50
0.06
-1.51
-3.31
-5.33
-7.42
-9.41
-11.10
-12.36
-13.21
-13.79
-14.30
-14.95
-15.84
-16.97
-18.21
-19.39
-20.33
-20.90
-21.13
-21.19
-21.40
-22.16
-23.74
-26.13
-28.92
-31.40
-32.69
-32.04
-29.05
-23.80
-16.78
-8.71
-0.40
7.49
14.48
20.27
24.75
27.89
29.80
30.66
30.79
30.50
30.13
29.91
29.91
30.10
30.36
30.59
30.69
30.70
30.66
30.65
30.70
30.77
30.75
30.45
29.69
28.30
26.28
23.75
21.01
18.33
15.91
13.72
11.57
9.21
6.49
3.43
0.24
-2.80
-5.46
-7.69
-9.63
-11.59
-13.89
-16.80
-20.31
-24.15
-27.72
-30.24
-30.96
-29.38
-25.44
-19.50
-12.31
-4.71
2.51
8.76
13.73
17.29
19.50
20.53
20.68
20.28
19.66
19.04
18.59
18.35
18.27
18.30
18.38
18.46
18.49
18.43
18.23
17.85
17.25
16.36
15.12
13.53
11.64
9.54
7.33
5.07
2.72
0.21
-2.55
-5.58
-8.81
-12.12
-15.37
-18.47
-21.37
-24.10
-26.76
-29.47
-32.34
-35.46
-38.78
-42.05
-44.79
-46.34
-46.07
-43.54
-38.71
-31.99
-24.16
-16.11
-8.63
-2.21
3.00
7.11
10.31
12.77
14.58
15.77
16.41
16.59
16.48
16.20
15.87
15.52
15.15
14.80
14.48
14.22
13.97
13.68
13.24
12.62
11.79
10.74
9.44
7.83
5.82
3.38
0.66
-2.13
-4.72
-6.98
-8.98
-10.93
-13.08
-15.48
-18.08
-20.66
-23.08
-25.36
-27.68
-30.28
-33.20
-36.18
-38.62
-39.74
-38.90
-35.78
-30.49
-23.55
-15.69
-7.62
0.09
7.06
13.07
18.03
21.87
24.59
26.31
27.25
27.69
27.93
28.17
28.48
28.81
29.03
29.04
28.79
28.32
27.74
27.17
26.72
26.38
26.04
25.50
24.58
23.22
21.51
19.67
17.91
16.30
14.71
12.94
10.79
8.26
5.62
3.19
1.30
-0.04
-1.03
-2.07
-3.58
-5.86
-8.98
-12.74
-16.68
-20.12
-22.28
-22.44
-20.17
-15.46
-8.76
-0.89
7.22
14.80
21.35
26.74
31.17
34.95
38.32
41.17
42.93
42.59
39.11
31.75
20.62
6.82
-7.81
-21.10
-31.27
-37.30
-39.15
-37.49
-33.47
-28.33
-23.22
-19.07
-16.47
-15.61
-16.17
-17.49
-18.72
-19.21
-18.76
-17.70
-16.65
-16.14
-16.32
-16.89
-17.34
-17.36
-17.08
-17.03
-17.87
-19.96
-23.17
-26.87
-30.17
-32.27
-32.60
-30.87
-27.03
-21.20
-13.68
-4.89
4.58
14.12
23.12
31.13
37.85
43.13
46.97
49.51
51.02
51.83
52.38
53.07
54.20
55.95
58.35
61.25
64.41
67.58
70.48
72.87
74.60
75.54
75.59
74.65
72.58
69.14
64.04
56.98
47.75
36.41
23.35
9.32
-4.77
-18.00
-29.75
-39.76
-48.16
-55.36
-61.86
-68.08
-74.22
-80.24
-85.85
-90.52
-93.64
-94.61
-93.04
-88.81
-82.17
-73.74
-64.31
-54.76
-45.82
-37.96
-31.37
-25.99
-21.62
-18.07
-15.22
-13.00
-11.31
-9.96
-8.64
-6.97
-4.68
-1.72
1.67
5.02
7.78
9.58
10.29
10.07
9.20
8.03
6.78
5.51
4.24
2.90
1.43
-0.22
-2.08
-4.21
-6.59
-9.16
-11.77
-14.20
-16.22
-17.67
-18.56
-19.08
-19.61
-20.56
-22.14
-24.27
-26.43
-27.77
-27.41
-24.74
-19.66
-12.63
-4.50
3.78
11.43
18.00
23.34
27.52
30.70
33.02
34.58
35.44
35.66
35.28
34.39
33.07
31.43
29.55
27.51
25.42
23.36
21.43
19.73
18.29
17.09
15.98
14.76
13.24
11.33
9.03
6.47
3.84
1.27
-1.19
-3.59
-5.99
-8.45
-10.89
-13.17
-15.08
-16.51
-17.45
-18.04
-18.46
-18.84
-19.30
-19.97
-21.00
-22.48
-24.33
-26.17
-27.33
-27.06
-24.79
-20.41
-14.35
-7.43
-0.59
5.45
10.33
14.05
16.84
19.00
20.72
22.10
23.09
23.66
23.81
23.59
23.05
22.25
21.25
20.10
18.91
17.82
16.91
16.22
15.60
14.82
13.62
11.84
9.54
6.96
4.42
2.17
0.24
-1.51
-3.35
-5.50
-8.07
-10.96
-13.99
-16.99
-19.85
-22.58
-25.24
-27.93
-30.74
-33.77
-37.10
-40.70
-44.35
-47.54
-49.52
-49.52
-47.02
-41.90
-34.59
-25.85
-16.59
-7.64
0.40
7.18
12.55
16.52
19.25
20.99
22.02
22.57
22.80
22.74
22.41
21.82
21.02
20.15
19.30
18.60
18.05
17.60
17.12
16.42
15.32
13.75
11.78
9.64
7.58
5.86
4.49
3.36
2.25
0.95
-0.62
-2.35
-4.09
-5.67
-7.04
-8.29
-9.55
-10.96
-12.63
-14.64
-17.07
-19.90
-22.99
-25.89
-27.94
-28.37
-26.61
-22.51
-16.46
-9.29
-1.95
4.74
10.28
14.47
17.36
19.08
19.85
19.96
19.69
19.35
19.12
19.05
19.04
18.96
18.74
18.40
18.04
17.75
17.57
17.40
17.10
16.51
15.53
14.12
12.35
10.33
8.19
6.05
3.99
1.97
-0.11
-2.39
-4.93
-7.67
-10.44
-13.00
-15.19
-16.98
-18.48
-19.94
-21.65
-23.86
-26.66
-29.86
-33.02
-35.47
-36.47
-35.47
-32.24
-26.99
-20.27
-12.82
-5.42
1.31
6.98
11.43
14.72
17.08
18.79
20.08
21.09
21.84
22.27
22.35
22.13
21.75
21.39
21.27
21.42
21.79
22.21
22.50
22.52
22.17
21.45
20.36
18.98
17.35
15.57
13.70
11.79
9.77
7.57
5.11
2.38
-0.52
-3.44
-6.23
-8.82
-11.23
-13.62
-16.20
-19.17
-22.68
-26.67
-30.77
-34.33
-36.52
-36.61
-34.21
-29.50
-23.09
-15.86
-8.66
-2.09
3.55
8.22
12.00
15.06
17.53
19.56
21.28
22.72
23.86
24.64
25.02
25.03
24.79
24.46
24.15
23.89
23.62
23.25
22.70
21.91
20.88
19.60
18.05
16.22
14.15
11.94
9.74
7.68
5.76
3.86
1.79
-0.58
-3.22
-5.98
-8.64
-11.06
-13.25
-15.41
-17.81
-20.69
-24.10
-27.87
-31.59
-34.76
-36.80
-37.22
-35.68
-32.12
-26.82
-20.35
-13.47
-6.93
-1.30
3.15
6.47
8.91
10.75
12.19
13.32
14.12
14.57
14.71
14.64
14.52
14.46
14.52
14.71
14.93
15.06
14.97
14.55
13.76
12.60
11.16
9.52
7.82
6.13
4.51
2.92
1.26
-0.61
-2.76
-5.17
-7.72
-10.21
-12.53
-14.61
-16.48
-18.27
-20.09
-22.14
-24.53
-27.37
-30.52
-33.60
-35.91
-36.63
-35.09
-31.08
-24.96
-17.54
-9.85
-2.80
3.05
7.51
10.63
12.64
13.79
14.36
14.64
14.89
15.30
15.93
16.72
17.58
18.40
19.18
19.91
20.63
21.27
21.71
21.77
21.37
20.49
19.25
17.80
16.25
14.66
12.95
11.06
8.90
6.42
3.65
0.65
-2.50
-5.71
-8.87
-11.94
-14.90
-17.82
-20.87
-24.16
-27.68
-31.21
-34.22
-36.06
-36.10
-33.95
-29.60
-23.50
-16.37
-9.09
-2.43
3.07
7.18
9.94
11.64
12.64
13.30
13.89
14.58
15.37
16.20
16.95
17.51
17.78
17.75
17.46
17.01
16.52
16.08
15.70
15.36
14.97
14.46
13.80
12.98
11.99
10.74
9.12
7.05
4.59
1.95
-0.61
-2.89
-4.92
-6.92
-9.27
-12.23
-15.84
-19.82
-23.61
-26.56
-28.14
-28.02
-26.17
-22.78
-18.18
-12.81
-7.08
-1.44
3.75
8.16
11.62
14.03
15.47
16.12
16.20
15.95
15.54
15.13
14.79
14.55
14.38
14.17
13.82
13.28
12.63
12.01
11.60
11.44
11.46
11.41
11.00
10.04
8.50
6.57
4.47
2.45
0.64
-0.94
-2.34
-3.68
-5.04
-6.54
-8.28
-10.33
-12.70
-15.26
-17.69
-19.47
-20.01
-18.76
-15.44
-10.11
-3.26
4.33
11.73
18.10
22.88
25.81
26.88
26.25
24.12
20.70
16.24
10.97
5.18
-0.80
-6.67
-12.20
-17.21
-21.57
-25.21
-28.09
-30.20
-31.61
-32.40
-32.72
-32.69
-32.42
-32.02
-31.59
-31.20
-30.91
-30.66
-30.34
-29.78
-28.83
-27.47
-25.84
-24.22
-22.89
-22.09
-21.95
-22.45
-23.44
-24.64
-25.70
-26.16
-25.55
-23.42
-19.62
-14.31
-8.09
-1.82
3.58
7.42
9.46
9.87
9.20
8.12
7.21
6.94
7.57
9.21
11.79
15.10
18.79
22.47
25.76
28.44
30.41
31.59
31.87
31.08
29.10
26.02
22.24
18.49
15.50
13.79
13.32
13.47
13.27
11.82
8.64
3.86
-1.78
-7.25
-11.49
-13.81
-14.03
-12.73
-11.30
-11.74
-16.23
-26.29
-41.92
-61.20
-80.63
-96.19
-104.83
-105.46
-99.21
-88.68
-76.85
-65.98
-57.20
-50.64
-45.98
-42.82
-40.86
-39.74
-38.79
-37.02
-33.36
-27.08
-18.17
-7.43
3.65
13.41
20.56
24.54
25.59
24.49
22.23
19.67
17.48
16.11
15.93
17.13
19.64
23.14
27.11
31.06
34.66
37.93
40.98
44.03
47.15
50.31
53.48
56.66
59.87
63.07
66.11
68.68
70.43
71.12
70.76
69.62
68.26
67.31
67.31
68.62
71.19
74.72
78.64
82.29
85.12
86.75
87.08
86.20
84.34
81.71
78.53
74.93
71.08
67.19
63.58
60.56
58.43
57.31
57.12
57.65
58.53
59.42
59.98
60.01
59.37
58.07
56.19
53.77
50.79
47.05
42.30
36.27
28.90
20.35
11.00
1.32
-8.33
-17.70
-26.72
-35.32
-43.40
-50.74
-57.07
-62.16
-65.96
-68.66
-70.59
-72.17
-73.66
-75.06
-76.11
-76.36
-75.28
-72.54
-68.10
-62.24
-55.52
-48.51
-41.72
-35.37
-29.53
-24.21
-19.50
-15.70
-13.21
-12.38
-13.28
-15.62
-18.82
-22.21
-25.25
-27.60
-29.18
-30.02
-30.15
-29.58
-28.31
-26.41
-24.11
-21.72
-19.60
-18.01
-17.03
-16.59
-16.43
-16.28
-15.93
-15.37
-14.78
-14.42
-14.55
-15.28
-16.45
-17.74
-18.80
-19.40
-19.61
-19.73
-20.19
-21.41
-23.55
-26.53
-30.03
-33.49
-36.27
-37.77
-37.50
-35.25
-31.16
-25.71
-19.60
-13.62
-8.43
-4.45
-1.76
-0.16
0.71
1.22
1.64
2.04
2.38
2.53
2.41
2.04
1.57
1.18
1.06
1.27
1.78
2.46
3.14
3.72
4.11
4.34
4.42
4.44
4.44
4.45
4.43
4.32
3.99
3.28
2.09
0.43
-1.60
-3.73
-5.70
-7.34
-8.69
-10.01
-11.74
-14.27
-17.75
-21.96
-26.31
-29.96
-32.06
-32.02
-29.63
-25.13
-19.09
-12.30
-5.50
0.66
5.82
9.93
13.28
16.30
19.31
22.26
24.55
25.27
23.66
19.61
13.87
7.85
3.11
0.66
0.66
2.38
4.72
6.65
7.58
7.40
6.31
4.53
2.26
-0.39
-3.25
-6.09
-8.63
-10.65
-12.05
-12.88
-13.35
-13.69
-14.10
-14.69
-15.44
-16.25
-17.02
-17.72
-18.49
-19.54
-21.06
-22.98
-24.84
-25.87
-25.10
-21.83
-15.81
-7.49
2.18
11.98
20.83
28.04
33.40
37.09
39.57
41.32
42.71
43.96
45.03
45.73
45.75
44.77
42.55
38.94
34.03
28.09
21.58
15.07
9.06
3.90
-0.31
-3.65
-6.34
-8.59
-10.55
-12.23
-13.63
-14.72
-15.53
-16.14
-16.67
-17.22
-17.81
-18.43
-19.02
-19.54
-20.09
-20.87
-22.21
-24.37
-27.38
-30.93
-34.42
-37.04
-38.02
-36.83
-33.24
-27.36
-19.60
-10.56
-0.98
8.34
16.69
23.57
28.71
32.14
34.03
34.61
34.12
32.76
30.78
28.43
26.00
23.65
21.45
19.31
17.13
14.90
12.74
10.81
9.14
7.43
5.13
1.52
-3.91
-11.30
-20.30
-30.22
-40.25
-49.65
-57.88
-64.58
-69.50
-72.52
-73.61
-72.88
-70.56
-66.99
-62.59
-57.76
-52.84
-48.05
-43.34
-38.41
-32.73
-25.74
-17.12
-7.01
4.01
15.05
25.31
34.29
41.92
48.41
54.05
58.98
63.15
66.46
68.85
70.46
71.56
72.46
73.40
74.60
76.24
78.55
81.77
86.08
91.46
97.64
104.22
110.71
116.74
121.93
125.93
128.27
128.43
125.95
120.61
112.49
101.95
89.52
75.59
60.43
44.20
27.06
9.33
-8.48
-25.80
-41.99
-56.40
-68.19
-76.40
-80.01
-78.36
-71.50
-60.45
-47.07
-33.53
-21.76
-12.89
-7.11
-3.95
-2.76
-3.18
-5.24
-9.27
-15.46
-23.57
-32.79
-42.03
-50.17
-56.52
-60.88
-63.48
-64.71
-64.82
-63.89
-61.90
-58.99
-55.63
-52.54
-50.46
-49.88
-50.83
-52.85
-55.24
-57.33
-58.74
-59.45
-59.65
-59.61
-59.43
-59.01
-58.11
-56.49
-54.18
-51.52
-49.09
-47.50
-47.07
-47.59
-48.30
-48.04
-45.65
-40.29
-31.79
-20.62
-7.88
5.03
16.71
26.05
32.51
36.17
37.60
37.66
37.13
36.50
35.93
35.29
34.46
33.40
32.25
31.16
30.26
29.51
28.77
27.87
26.68
25.12
23.14
20.69
17.68
14.04
9.79
5.10
0.19
-4.60
-8.96
-12.67
-15.61
-17.78
-19.30
-20.43
-21.47
-22.73
-24.48
-26.91
-30.08
-33.85
-37.89
-41.60
-44.22
-45.00
-43.42
-39.37
-33.19
-25.55
-17.25
-8.87
-0.76
7.03
14.44
21.34
27.43
32.36
35.90
37.97
38.70
38.31
37.07
35.27
33.34
31.78
31.16
31.86
33.95
37.15
40.94
44.79
48.27
51.17
53.32
54.60
54.78
53.63
50.95
46.75
41.23
34.80
27.95
21.08
14.47
8.13
1.94
-4.28
-10.62
-16.95
-22.96
-28.08
-31.68
-33.19
-32.25
-28.82
-23.27
-16.31
-8.77
-1.43
5.16
10.73
15.28
18.89
21.68
23.68
24.90
25.40
25.26
24.61
23.57
22.28
20.85
19.44
18.21
17.27
16.72
16.44
16.21
15.70
14.58
12.64
9.88
6.53
2.97
-0.33
-2.97
-4.68
-5.38
-5.22
-4.53
-3.69
-3.09
-2.98
-3.47
-4.62
-6.47
-9.12
-12.67
-17.08
-21.99
-26.66
-30.12
-31.42
-30.01
-25.91
-19.74
-12.45
-5.05
1.68
7.34
11.83
15.31
17.96
19.97
21.44
22.40
22.80
22.66
22.02
21.06
20.00
19.04
18.30
17.74
17.24
16.66
15.96
15.17
14.38
13.60
12.75
11.67
10.23
8.45
6.50
4.69
3.23
2.19
1.41
0.58
-0.64
-2.48
-5.01
-8.15
-11.68
-15.32
-18.78
-21.83
-24.43
-26.73
-29.10
-31.95
-35.55
-39.82
-44.22
-47.85
-49.65
-48.75
-44.73
-37.70
-28.34
-17.64
-6.70
3.47
12.14
18.95
23.85
27.14
29.25
30.68
31.80
32.79
33.63
34.18
34.37
34.23
33.94
33.69
33.63
33.74
33.85
33.74
33.25
32.36
31.13
29.67
28.02
26.15
23.95
21.33
18.29
14.89
11.31
7.68
4.10
0.54
-3.08
-6.85
-10.79
-14.89
-19.05
-23.17
-27.14
-30.79
-33.98
-36.60
-38.72
-40.54
-42.43
-44.76
-47.70
-51.14
-54.60
-57.39
-58.72
-57.94
-54.75
-49.25
-41.95
-33.64
-25.22
-17.40
-10.68
-5.20
-0.81
2.72
5.62
8.03
10.04
11.67
13.00
14.09
15.03
15.86
16.57
17.17
17.64
17.99
18.28
18.54
18.80
19.05
19.23
19.21
18.89
18.14
16.93
15.33
13.51
11.70
10.05
8.61
7.29
5.93
4.41
2.69
0.81
-1.16
-3.17
-5.21
-7.32
-9.46
-11.61
-13.68
-15.63
-17.53
-19.53
-21.85
-24.64
-27.90
-31.31
-34.31
-36.18
-36.28
-34.22
-30.03
-24.13
-17.19
-9.96
-3.07
3.02
8.05
11.91
14.58
16.14
16.77
16.70
16.26
15.79
15.56
15.71
16.22
16.90
17.51
17.87
17.95
17.83
17.69
17.62
17.54
17.21
16.36
14.84
12.72
10.27
7.86
5.82
4.26
3.09
2.05
0.86
-0.70
-2.64
-4.88
-7.19
-9.35
-11.24
-12.86
-14.38
-16.03
-18.07
-20.63
-23.71
-27.12
-30.52
-33.44
-35.30
-35.54
-33.73
-29.72
-23.75
-16.45
-8.66
-1.28
4.99
9.81
13.15
15.23
16.35
16.83
16.87
16.67
16.38
16.08
15.83
15.58
15.28
14.88
14.39
13.87
13.44
13.14
12.92
12.66
12.15
11.23
9.82
8.00
5.94
3.86
1.92
0.18
-1.45
-3.10
-4.93
-6.97
-9.15
-11.32
-13.31
-15.03
-16.55
-18.02
-19.70
-21.81
-24.52
-27.81
-31.43
-34.93
-37.66
-38.98
-38.41
-35.73
-31.10
-24.97
-17.96
-10.74
-3.92
2.06
6.91
10.52
12.95
14.38
15.04
15.19
15.07
14.82
14.55
14.34
14.26
14.37
14.64
15.02
15.39
15.63
15.65
15.43
14.94
14.20
13.20
11.96
10.50
8.90
7.24
5.58
3.94
2.27
0.47
-1.54
-3.81
-6.30
-8.87
-11.41
-13.81
-16.08
-18.34
-20.84
-23.84
-27.48
-31.64
-35.84
-39.32
-41.18
-40.74
-37.70
-32.30
-25.25
-17.42
-9.65
-2.53
3.61
8.63
12.45
15.08
16.59
17.20
17.23
17.06
16.97
17.11
17.45
17.87
18.23
18.46
18.60
18.71
18.83
18.96
19.01
18.79
18.13
16.93
15.23
13.15
10.85
8.43
5.91
3.28
0.55
-2.19
-4.80
-7.20
-9.36
-11.41
-13.49
-15.66
-17.96
-20.35
-22.86
-25.57
-28.53
-31.58
-34.22
-35.67
-35.12
-32.11
-26.68
-19.46
-11.39
-3.41
3.81
9.94
14.89
18.67
21.33
22.94
23.63
23.64
23.24
22.68
22.11
21.55
20.95
20.29
19.58
18.90
18.30
17.78
17.28
16.67
15.83
14.63
13.07
11.23
9.21
7.15
5.11
3.05
0.92
-1.33
-3.63
-5.86
-7.88
-9.70
-11.48
-13.53
-16.13
-19.42
-23.34
-27.61
-31.83
-35.52
-38.17
-39.26
-38.36
-35.18
-29.80
-22.67
-14.53
-6.29
1.31
7.81
13.05
17.11
20.18
22.36
23.68
24.17
23.89
23.07
22.06
21.25
20.87
20.92
21.14
21.15
20.64
19.53
18.00
16.32
14.71
13.25
11.81
10.19
8.26
6.01
3.54
1.01
-1.45
-3.77
-5.97
-8.10
-10.23
-12.44
-14.78
-17.31
-20.08
-23.13
-26.42
-29.77
-32.78
-34.84
-35.30
-33.61
-29.62
-23.67
-16.46
-8.89
-1.75
4.44
9.43
13.21
15.85
17.46
18.22
18.39
18.30
18.31
18.66
19.40
20.39
21.38
22.08
22.34
22.11
21.49
20.61
19.61
18.53
17.34
15.91
14.10
11.76
8.90
5.59
2.03
-1.53
-4.89
-7.95
-10.74
-13.43
-16.25
-19.42
-23.09
-27.27
-31.79
-36.19
-39.83
-42.00
-42.06
-39.70
-35.05
-28.66
-21.34
-13.90
-6.97
-0.88
4.29
8.59
12.10
14.88
17.00
18.60
19.83
20.90
21.96
23.14
24.44
25.85
27.34
28.89
30.51
32.16
33.79
35.33
36.68
37.72
38.32
38.27
37.38
35.52
32.71
29.16
25.16
20.99
16.74
12.33
7.52
2.09
-4.03
-10.76
-17.87
-25.02
-31.78
-37.62
-41.86
-43.82
-43.01
-39.35
-33.34
-25.92
-18.22
-11.23
-5.49
-1.05
2.33
5.01
7.19
8.91
10.04
10.51
10.34
9.75
9.01
8.38
8.02
7.94
8.08
8.32
8.58
8.84
9.08
9.31
9.46
9.43
9.07
8.29
7.09
5.53
3.74
1.81
-0.19
-2.28
-4.53
-7.00
-9.72
