1565028619.00
64.000000
-0.00
-0.00
-0.00
-0.00
-0.00
-0.00
-0.00
-0.00
-0.00
-0.00
0.00
0.01
0.01
-0.00
-0.03
-0.05
-0.05
0.00
0.13
0.36
0.66
1.01
1.37
1.72
2.06
2.40
2.79
3.24
3.80
4.43
5.08
5.70
6.27
6.81
7.37
8.03
8.84
9.91
11.14
12.44
13.69
14.83
15.92
17.10
18.60
20.56
23.21
26.34
29.70
32.98
36.04
38.95
42.03
45.74
50.39
56.37
63.34
70.78
78.12
85.03
91.61
98.35
105.99
115.07
126.17
138.77
152.09
165.26
177.75
189.61
201.52
214.84
228.33
244.26
263.25
285.38
309.46
332.62
350.55
358.66
353.60
334.50
303.75
265.16
223.04
180.62
139.49
99.98
61.95
25.63
-8.27
-38.58
-64.77
-87.01
-105.83
-121.74
-134.89
-145.10
-152.03
-155.57
-155.91
-153.96
-150.87
-147.69
-145.14
-143.12
-141.24
-139.05
-136.30
-132.98
-129.46
-126.14
-123.26
-120.74
-118.33
-115.82
-113.23
-110.90
-109.34
-109.03
-110.07
-112.11
-114.43
-116.32
-117.52
-118.35
-119.71
-122.58
-127.58
-134.53
-142.51
-150.31
-156.99
-162.49
-167.61
-173.62
-181.69
-192.40
-205.80
-221.57
-239.22
-257.73
-275.15
-288.44
-294.05
-289.45
-274.50
-251.95
-226.60
-203.19
-184.25
-169.19
-155.12
-138.87
-119.10
-97.10
-75.93
-58.47
-45.62
-35.81
-26.16
-14.37
-0.45
13.06
22.43
25.00
20.95
13.62
7.98
8.07
14.91
26.02
36.81
43.23
44.00
41.10
38.42
39.22
43.94
50.02
53.30
50.72
42.43
32.09
24.97
25.14
33.05
45.17
55.82
60.10
56.36
46.91
36.34
28.95
26.31
26.70
26.57
23.09
16.11
8.48
4.42
6.76
15.01
25.30
32.29
32.09
24.41
12.58
1.52
-5.02
-6.60
-5.95
-6.91
-11.84
-19.95
-27.67
-30.88
-27.50
-18.96
-9.64
-4.49
-6.38
-14.47
-24.86
-32.70
-34.95
-31.93
-26.95
-24.14
-25.85
-31.11
-36.06
-36.22
-29.16
-16.14
-1.59
9.27
13.17
10.43
4.53
-0.11
-0.73
2.26
5.84
6.49
2.67
-3.89
-9.05
-8.65
-1.19
10.96
22.51
28.01
24.69
14.23
1.75
-6.81
-7.77
-1.54
7.98
15.95
19.36
18.57
16.76
17.43
22.08
29.00
34.44
35.03
30.15
22.72
17.68
19.20
28.36
42.31
55.77
63.86
64.54
59.51
52.99
49.05
49.41
52.65
55.44
55.04
51.12
46.26
44.32
47.96
56.81
67.22
73.94
73.06
63.99
50.00
36.68
29.00
29.04
35.02
42.64
47.39
46.96
42.26
36.49
32.99
33.00
34.92
35.14
30.43
20.16
7.08
-3.97
-8.66
-5.54
2.97
12.03
17.00
15.97
10.65
5.06
2.81
4.88
8.95
11.01
8.08
0.25
-9.11
-15.23
-14.79
-7.80
2.26
10.54
13.47
10.83
5.65
2.30
3.77
9.87
17.34
21.81
20.34
13.15
3.54
-4.07
-6.56
-3.72
1.61
5.48
5.11
0.53
-5.39
-8.75
-6.95
-0.23
8.32
14.51
15.31
10.50
2.75
-3.98
-6.60
-4.66
-0.43
2.62
1.93
-2.56
-8.34
-11.80
-10.44
-4.30
3.97
10.71
13.41
11.91
8.43
5.96
6.23
8.75
11.06
10.54
6.18
-0.61
-6.70
-9.13
-6.94
-1.96
2.15
2.02
-3.41
-12.05
-19.65
-22.08
-17.53
-7.69
2.98
9.76
10.06
4.82
-2.06
-6.20
-5.23
-0.25
4.93
6.12
1.56
-6.96
-14.84
-17.42
-12.72
-2.63
8.04
14.37
14.12
9.04
3.52
1.98
6.11
13.88
20.57
21.56
15.03
3.14
-9.02
-16.15
-15.46
-8.10
1.62
8.86
10.90
8.49
5.14
4.60
8.34
14.39
18.56
17.03
8.94
-2.80
-12.95
-17.01
-13.73
-5.93
1.19
3.09
-1.56
-10.10
-17.62
-20.01
-16.42
-9.67
-4.48
-4.48
-9.95
-17.57
-22.54
-21.27
-13.60
-2.86
6.10
9.73
7.68
2.91
-0.21
1.51
8.20
16.84
23.04
23.54
18.11
9.69
2.69
0.47
3.32
8.36
11.32
9.19
2.15
-6.52
-12.34
-12.44
-7.32
-0.46
3.67
2.41
-3.56
-10.52
-14.11
-11.75
-4.19
4.89
11.03
11.64
7.23
1.21
-2.24
-0.67
5.07
11.31
13.53
9.10
-0.92
-12.25
-19.59
-19.56
-12.52
-2.29
6.11
9.27
7.24
3.12
1.02
3.29
9.11
15.10
17.28
13.61
5.30
-3.75
-9.13
-8.45
-2.71
4.30
8.05
6.04
-0.79
-8.46
-12.35
-9.79
-1.78
7.69
13.84
13.84
8.42
1.29
-3.22
-2.78
1.52
5.79
5.88
-0.13
-10.52
-20.81
-26.29
-24.82
-18.13
-10.76
-7.42
-10.05
-16.59
-22.17
-21.96
-14.32
-1.87
9.96
16.00
14.48
8.00
1.94
1.14
7.08
16.98
25.68
28.81
25.27
17.75
10.99
8.54
10.75
14.56
15.47
10.41
-0.31
-13.04
-22.69
-25.60
-21.45
-13.41
-6.21
-3.56
-6.00
-10.86
-13.95
-12.19
-5.64
2.54
7.93
7.61
2.06
-5.00
-8.66
-5.81
3.09
14.16
22.41
24.52
20.68
14.26
9.66
9.55
13.36
17.62
18.15
12.68
2.27
-9.06
-16.51
-17.22
-11.94
-4.65
-0.38
-2.45
-10.43
-20.51
-27.53
-27.88
-21.52
-11.91
-3.87
-0.79
-2.81
-6.88
-8.81
-5.94
1.22
9.24
13.96
12.97
7.00
-0.40
-4.97
-4.11
1.63
8.94
13.70
13.40
8.55
2.27
-1.41
-0.00
6.05
13.57
18.47
18.03
12.50
4.85
-1.08
-2.74
-0.40
3.16
4.45
1.60
-4.54
-10.78
-13.56
-11.16
-4.65
2.48
6.53
5.80
1.61
-2.56
-3.12
1.31
8.94
15.69
17.59
13.07
4.19
-4.66
-9.01
-7.03
-0.63
5.69
7.38
2.66
-6.56
-15.62
-19.98
-17.75
-10.77
-3.51
-0.37
-3.07
-9.74
-16.06
-18.04
-14.46
-7.57
-1.72
-0.76
-5.48
-13.04
-18.62
-18.15
-10.80
0.61
11.12
16.51
15.62
10.95
6.86
7.04
12.37
20.38
26.91
28.49
24.40
16.86
9.70
6.00
6.31
8.54
9.28
6.02
-1.25
-9.94
-16.24
-17.37
-13.18
-6.31
-0.61
0.99
-1.80
-6.55
-9.72
-8.86
-4.25
1.31
4.14
2.00
-4.42
-11.83
-16.30
-15.56
-10.36
-4.04
-0.51
-1.88
-7.10
-12.56
-14.15
-9.72
-0.49
9.63
16.08
16.33
11.19
4.38
0.23
1.22
6.61
12.85
15.83
13.28
6.08
-2.35
-7.95
-8.40
-4.27
1.31
4.56
3.20
-2.33
-9.17
-13.75
-13.86
-9.83
-4.23
-0.31
0.09
-2.45
-5.29
-5.50
-1.92
3.97
8.71
8.96
3.69
-4.97
-12.77
-15.72
-12.35
-4.57
3.46
7.75
6.78
2.31
-1.82
-2.12
2.42
9.72
15.77
17.09
12.87
5.47
-0.85
-2.44
1.68
9.11
15.39
16.37
10.69
0.50
-9.58
-14.97
-13.74
-7.46
-0.31
3.39
1.67
-3.93
-9.44
-10.82
-6.30
2.48
11.50
16.71
16.27
11.45
5.70
2.35
2.59
4.98
6.42
4.34
-1.59
-9.08
-14.57
-15.31
-10.98
-3.93
2.30
4.86
3.28
-0.57
-3.67
-3.78
-0.86
3.06
5.03
3.12
-2.39
-9.01
-13.42
-13.43
-9.18
-3.22
1.15
1.79
-0.90
-4.30
-5.21
-2.01
4.14
9.86
11.46
7.21
-1.40
-10.36
-15.23
-13.52
-5.97
3.89
11.67
14.38
11.82
6.30
1.09
-1.42
-0.99
0.63
1.03
-1.12
-5.17
-8.74
-9.27
-5.70
0.71
6.87
9.53
7.16
0.90
-6.00
-9.96
-9.02
-3.85
2.70
7.27
7.98
5.37
1.89
0.34
2.01
5.99
9.59
10.01
6.12
-0.69
-7.23
-10.17
-7.99
-1.84
4.93
8.70
7.52
2.27
-3.86
-7.22
-5.77
-0.21
6.44
10.72
10.74
7.20
2.90
0.83
2.30
6.11
9.33
9.10
4.48
-2.95
-9.95
-13.47
-12.43
-8.25
-3.89
-2.14
-3.82
-7.34
-9.67
-8.29
-2.77
4.77
10.75
12.17
8.36
1.48
-4.78
-7.24
-5.12
-0.42
3.22
2.73
-2.46
-10.05
-16.01
-16.96
-12.00
-3.41
4.75
8.82
7.61
2.98
-1.45
-2.51
0.46
5.23
8.15
6.40
-0.04
-8.20
-13.86
-14.04
-8.87
-1.48
3.91
4.47
0.48
-4.91
-7.69
-5.24
1.94
10.70
16.98
18.06
14.01
7.40
1.81
-0.25
1.36
4.45
6.02
4.12
-0.88
-6.40
-9.22
-7.33
-1.26
6.21
11.56
12.54
9.37
4.54
1.14
1.10
3.97
7.24
7.90
4.37
-2.46
-9.64
-13.83
-13.33
-9.19
-4.58
-2.94
-5.85
-11.76
-16.81
-17.06
-10.87
-0.03
10.95
17.22
16.24
8.98
-0.65
-8.14
-10.71
-8.66
-4.84
-2.77
-4.38
-8.83
-13.06
-13.67
-9.18
-1.02
7.06
11.18
9.69
4.21
-1.28
-2.88
0.86
7.85
13.80
14.67
9.19
-0.30
-9.05
-12.66
-9.52
-1.64
6.51
10.72
9.28
3.92
-1.30
-2.42
2.18
10.86
19.62
24.38
23.18
17.14
9.61
4.13
2.21
2.68
2.43
-1.44
-9.51
-19.57
-27.60
-30.11
-26.18
-18.17
-10.36
-6.67
-8.43
-13.89
-19.43
-21.93
-20.64
-17.56
-16.13
-19.00
-26.37
-35.96
-44.37
-49.28
-50.77
-51.31
-54.09
-61.11
-71.71
-82.90
-91.02
-93.91
-92.32
-89.50
-89.47
-94.55
-104.10
-114.86
-123.09
-127.01
-128.11
-130.49
-138.32
-153.24
-172.86
-191.55
-202.80
-201.98
-188.04
-163.47
-132.81
-100.55
-69.30
-39.26
-8.54
25.51
65.14
111.27
163.13
218.38
273.65
325.09
369.00
402.07
421.65
425.88
414.04
386.92
346.95
298.14
245.36
193.49
146.49
106.80
75.22
51.30
33.84
21.48
13.09
7.84
5.07
4.16
4.30
4.60
4.20
2.51
-0.68
-5.14
-10.35
-15.69
-20.62
-24.79
-28.12
-30.72
-32.78
-34.50
-35.96
-37.18
-38.11
-38.69
-38.90
-38.77
-38.37
-37.76
-36.98
-36.03
-34.95
-33.75
-32.47
-31.18
-29.89
-28.66
-27.44
-26.18
-24.83
-23.37
-21.83
-20.29
-18.84
-17.44
-16.19
-15.10
-14.04
-12.88
-11.51
-9.96
-8.41
-7.13
-6.29
-5.97
-5.94
-5.83
-5.23
-3.88
-1.91
0.25
2.01
2.91
2.81
2.10
1.48
1.72
3.29
6.08
9.43
12.38
14.17
14.53
13.86
13.11
13.15
14.74
17.90
22.10
26.43
29.74
30.53
27.17
18.59
5.36
-9.37
-20.57
-22.89
-13.34
6.76
31.62
53.22
64.95
63.91
52.45
35.99
20.09
8.16
1.18
-1.39
-0.38
3.22
7.54
9.01
2.83
-14.87
-44.64
-82.70
-122.03
-155.20
-177.21
-187.05
-187.06
-181.05
-172.07
-161.93
-150.02
-135.62
-118.66
-99.74
-79.68
-59.05
-38.04
-16.44
4.99
25.34
43.30
57.57
67.29
72.38
73.56
72.26
69.83
67.32
65.36
63.83
62.23
60.00
56.86
52.97
48.78
44.86
41.61
39.23
37.53
36.11
34.57
32.66
30.42
28.04
25.81
23.94
22.55
21.61
20.96
20.44
19.93
19.45
19.03
18.73
18.58
18.66
18.96
19.46
20.18
21.08
22.17
23.41
24.82
26.32
27.94
29.69
31.62
33.78
36.14
38.66
41.28
43.89
46.26
48.27
49.74
50.40
50.10
48.46
45.17
39.91
32.54
22.85
11.02
-2.53
-17.21
-32.25
-46.97
-60.71
-72.83
-82.22
-88.93
-92.67
-93.26
-91.37
-86.54
-78.97
-69.25
-58.28
-47.01
-36.38
-26.92
-18.81
-11.87
-5.82
-0.47
4.19
7.83
10.09
10.74
10.15
9.28
9.32
11.18
15.32
21.27
27.77
33.10
35.85
35.46
32.31
27.53
21.93
16.16
10.03
2.66
-6.94
-19.55
-35.53
-54.90
-75.10
-95.43
-112.92
-122.93
-120.85
-104.47
-75.62
-40.33
-6.45
19.30
33.66
38.03
36.44
33.02
30.03
27.63
24.90
21.39
17.73
15.08
14.58
16.21
18.79
20.69
20.57
18.13
14.19
10.18
7.34
6.38
7.09
8.48
9.31
8.73
6.54
3.28
-0.16
-2.96
-4.69
-5.46
-5.87
-6.85
-8.78
-11.70
-15.35
-19.27
-23.06
-26.52
-29.67
-32.81
-36.25
-40.21
-44.73
-49.70
-54.96
-60.35
-65.85
-71.41
-77.14
-83.18
-89.54
-96.13
-102.70
-108.96
-114.53
-118.79
-121.01
-120.53
-116.89
-109.56
-98.48
-83.55
-65.06
-43.69
-20.45
3.68
27.40
49.28
68.44
84.28
96.69
105.81
112.13
116.35
119.44
122.07
124.49
127.17
130.35
134.01
137.88
141.45
142.60
141.53
139.83
136.53
131.06
123.07
112.50
99.43
84.07
66.84
48.53
29.66
10.50
-8.25
-25.77
-41.20
-53.70
-62.51
-66.81
-66.13
-60.76
-51.71
-40.03
-26.89
-13.48
-0.84
10.28
19.75
27.67
34.03
38.85
42.41
45.04
47.17
49.28
51.66
54.94
59.06
63.30
66.41
67.03
63.96
56.33
44.09
24.87
-0.61
-30.33
-61.91
-93.38
-123.49
-151.63
-177.40
-199.91
-217.89
-229.59
-234.02
-231.33
-222.75
-210.26
-195.90
-181.93
-167.91
-152.14
-132.38
-107.50
-78.07
-46.40
-15.70
11.01
32.01
47.94
61.41
76.21
96.20
124.71
163.93
214.24
273.77
334.97
385.06
411.87
407.49
371.73
312.74
243.63
177.00
120.54
75.93
41.16
13.85
-7.11
-21.63
-29.63
-32.39
-32.63
-33.33
-36.38
-41.49
-46.59
-49.22
-48.01
-43.22
-36.56
-30.29
-26.16
-24.55
-24.37
-23.60
-20.62
-15.17
-8.24
-1.58
3.09
4.88
4.13
1.88
-0.63
-2.92
-5.53
-10.01
-18.00
-30.97
-49.81
-74.39
-102.79
-130.87
-151.59
-159.10
-150.19
-126.03
-92.45
-57.75
-29.51
-11.63
-3.63
-1.92
-2.65
-3.43
-3.94
-5.00
-7.16
-9.81
-11.53
-11.14
-8.52
-4.94
-2.09
-1.46
-3.47
-7.35
-11.65
-14.88
-16.23
-15.86
-14.83
-14.44
-15.65
-18.68
-23.01
-27.79
-31.99
-35.09
-37.23
-39.08
-41.42
-44.79
-49.29
-54.57
-60.03
-65.01
-69.14
-72.25
-74.37
-75.47
-75.36
-73.59
-69.65
-63.20
-53.91
-41.86
-27.43
-11.22
6.15
24.14
42.30
60.14
77.12
92.47
105.23
114.46
119.52
120.23
117.09
110.99
102.94
93.81
84.09
73.89
63.16
52.15
41.44
32.09
25.24
21.74
21.88
25.29
31.05
37.95
44.74
50.17
53.11
52.80
48.99
42.32
34.57
28.45
26.97
32.13
43.06
55.21
61.18
53.58
28.43
-12.91
-63.95
-115.18
-157.02
-182.16
-186.71
-170.52
-137.21
-94.03
-51.43
-21.33
-13.82
-33.31
-75.92
-129.87
-178.74
-207.00
-204.89
-171.16
-114.39
-49.81
6.23
42.96
58.91
61.41
61.63
68.54
85.01
107.78
130.76
148.30
157.46
157.51
148.48
130.89
105.94
76.43
46.87
22.26
6.74
2.41
9.26
25.86
49.26
74.50
94.41
100.91
88.52
57.48
15.18
-26.45
-55.73
-65.66
-56.57
-34.73
-9.24
12.07
25.10
29.29
26.31
18.26
6.99
-5.73
-17.68
-26.35
-30.01
-28.36
-22.76
-15.54
-8.75
-3.72
-0.87
-0.10
-1.51
-5.16
-10.80
-17.09
-21.85
-22.94
-19.36
-12.25
-4.23
1.62
3.17
0.29
-5.51
-11.73
-16.17
-17.94
-17.33
-15.69
-14.36
-14.13
-15.12
-16.69
-18.00
-18.29
-17.28
-15.35
-13.25
-11.89
-11.77
-12.79
-14.33
-15.39
-15.23
-13.56
-10.93
-8.28
-6.46
-5.86
-6.18
-7.14
-8.45
-10.08
-11.97
-13.77
-15.09
-15.46
-14.65
-12.85
-10.52
-8.48
-7.29
-6.97
-6.86
-5.95
-3.78
-0.74
1.98
2.95
1.36
-2.75
-8.27
-13.53
-16.88
-17.19
-14.38
-9.14
-2.59
4.25
10.56
15.61
18.79
19.64
18.07
14.35
9.13
3.32
-2.01
-5.78
-7.41
-7.09
-5.76
-4.73
-4.69
-5.48
-6.08
-5.10
-1.83
3.46
9.27
13.51
14.68
12.49
8.27
3.98
1.34
1.10
2.79
5.36
7.46
8.14
7.30
5.66
4.31
4.06
4.82
5.58
5.07
2.76
-0.88
-4.41
-6.33
-6.03
-4.11
-2.17
-1.26
-1.22
-0.77
1.54
5.84
11.03
15.31
17.35
17.03
15.17
13.26
12.37
12.86
14.22
15.42
15.87
15.49
14.79
14.54
15.25
16.94
18.97
20.29
19.65
16.35
11.21
6.22
3.88
5.56
10.59
16.54
20.23
19.09
12.75
3.17
-5.76
-10.05
-7.31
1.55
12.43
19.56
17.96
6.10
-13.35
-34.33
-49.88
-54.99
-48.33
-32.79
-13.83
2.73
12.62
14.41
9.21
0.34
-8.19
-12.98
-12.36
-7.27
-0.57
3.92
3.21
-3.17
-12.84
-21.78
-26.08
-24.02
-16.67
-7.56
-0.64
1.36
-1.87
-8.32
-14.94
-18.84
-18.62
-14.67
-8.66
-2.69
1.81
4.17
4.70
4.16
3.03
1.12
-2.53
-8.75
-17.01
-25.10
-29.41
-26.98
-17.05
-1.87
13.94
24.97
26.59
16.27
-5.78
-36.24
-68.97
-96.61
-112.26
-112.06
-96.34
-69.69
-39.03
-10.85
10.78
25.06
33.64
39.10
43.82
49.27
55.83
63.10
69.80
74.37
75.68
73.26
67.31
58.05
45.64
30.51
14.20
-0.35
-9.36
-10.11
-2.85
8.51
17.29
17.25
5.60
-15.24
-38.28
-54.95
-58.53
-46.79
-22.42
8.71
39.81
65.72
83.77
93.09
93.48
84.18
64.68
36.58
4.60
-23.83
-41.28
-43.63
-31.99
-12.13
8.39
23.70
31.63
33.31
31.03
26.16
18.72
8.85
-1.78
-9.77
-11.58
-5.74
6.32
20.96
34.40
44.32
49.80
50.02
42.90
25.18
-5.53
-48.41
-97.80
-144.29
-177.87
-191.66
-184.35
-159.69
-124.23
-84.46
-44.71
-7.13
27.22
57.18
81.06
97.25
105.16
105.71
100.71
91.85
79.70
63.76
43.50
19.88
-3.60
-21.46
-28.24
-21.21
-2.25
22.16
43.19
53.23
49.20
33.65
13.06
-5.24
-16.78
-21.34
-21.86
-21.79
-22.78
-23.88
-22.69
-17.23
-7.25
5.58
18.82
30.19
37.81
40.06
35.32
22.74
3.58
-18.01
-35.60
-42.89
-36.80
-19.26
3.58
23.81
34.81
32.93
17.37
-10.33
-47.16
-88.77
-129.07
-160.33
-175.00
-168.37
-140.64
-97.61
-48.52
-3.25
30.27
46.85
45.59
30.09
7.47
-12.59
-23.43
-22.00
-8.78
12.53
37.03
60.06
77.75
87.31
87.22
77.57
61.58
45.65
37.89
45.31
70.03
106.82
143.56
165.48
161.22
128.30
74.24
13.22
-39.75
-73.97
-85.31
-75.33
-48.99
-12.85
25.70
58.75
78.66
80.25
63.31
33.40
-0.12
-28.02
-45.22
-52.22
-53.81
-55.78
-61.78
-71.71
-82.21
-88.93
-89.14
-83.14
-74.19
-67.03
-65.61
-71.17
-81.47
-91.58
-95.99
-90.79
-74.93
-49.79
-18.03
17.51
53.42
84.90
105.58
109.29
93.43
61.60
23.39
-9.18
-27.13
-28.39
-17.45
-1.61
14.14
29.57
47.83
71.33
98.18
121.91
134.65
131.20
111.22
78.74
40.03
1.46
-31.50
-54.57
-65.07
-62.67
-50.14
-32.84
-16.81
-6.32
-2.47
-3.58
-7.04
-11.27
-16.29
-22.89
-31.09
-39.08
-43.83
-42.78
-35.47
-24.09
-12.55
-4.77
-2.90
-6.28
-11.87
-15.77
-15.19
-9.85
-2.04
4.67
7.24
4.79
-1.06
-7.24
-10.87
-10.75
-7.82
-4.38
-2.66
-3.48
-5.94
-8.15
-8.34
-6.02
-2.09
1.64
3.52
2.92
0.41
-2.65
-4.98
-6.00
-5.97
-5.47
-4.72
-3.25
-0.17
5.05
11.91
18.69
22.96
22.79
17.84
9.72
1.40
-4.29
-5.98
-4.35
-1.60
-0.07
-1.10
-4.22
-7.63
-9.32
-8.30
-5.32
-2.34
-1.46
-3.56
-7.70
-11.54
-12.60
-9.73
-3.86
2.16
4.56
0.28
-11.51
-28.67
-46.55
-59.57
-63.25
-55.82
-38.55
-14.59
12.57
40.16
66.01
87.81
102.54
107.23
100.40
83.78
62.66
43.83
32.39
28.93
29.11
26.35
16.09
-0.99
-18.75
-28.89
-25.82
-10.13
11.59
30.51
40.74
42.36
40.64
42.06
49.53
60.13
67.11
64.18
49.02
24.76
-2.01
-24.75
-39.84
-47.59
-51.13
-54.15
-59.13
-66.21
-72.98
-75.70
-70.82
-56.50
-33.40
-4.46
26.21
54.18
74.97
84.38
79.42
59.98
30.26
-1.68
-26.79
-38.92
-37.65
-27.81
-16.02
-7.03
-1.86
0.59
0.30
-5.39
-19.66
-42.17
-66.56
-82.33
-80.71
-60.87
-31.65
-7.22
1.03
-8.75
-27.99
-42.90
-43.02
-27.28
-3.91
15.59
23.40
19.28
8.90
-1.63
-10.23
-19.55
-33.52
-52.45
-70.85
-79.12
-68.84
-38.19
5.81
49.89
80.99
92.05
84.71
67.17
49.38
38.35
36.03
40.13
46.42
51.32
53.04
50.84
44.00
31.56
13.15
-9.64
-33.24
-53.04
-65.34
-68.49
-62.44
-48.40
-28.27
-5.06
16.71
31.81
35.52
25.53
2.88
-28.19
-60.99
-88.41
-104.72
-107.26
-97.09
-78.74
-59.10
-45.13
-41.26
-47.04
-57.40
-65.23
-64.75
-54.46
-37.03
-17.32
0.47
14.64
25.67
34.72
42.06
46.44
46.15
40.44
30.47
19.51
11.35
8.66
11.55
17.70
23.56
25.80
22.86
15.53
6.69
0.05
-1.56
2.46
10.20
18.15
22.86
22.63
18.14
11.90
6.76
4.35
4.34
4.99
4.45
2.04
-1.25
-3.41
-2.63
1.47
7.52
13.22
16.42
16.13
12.78
7.83
2.97
-0.55
-2.30
-2.62
-2.36
-2.39
-3.20
-4.62
-5.80
-5.76
-4.00
-0.99
1.94
3.38
2.71
0.69
-1.04
-1.02
0.94
3.47
4.56
2.98
-0.80
-4.82
-6.79
-5.76
-2.65
0.32
1.03
-1.15
-5.06
-8.55
-9.77
-8.15
-4.53
-0.49
2.62
4.32
4.95
5.23
5.69
6.39
6.95
6.85
5.76
3.73
1.24
-0.94
-2.14
-2.08
-1.02
0.30
1.04
0.84
-0.07
-0.91
-0.86
0.32
2.08
3.37
3.22
1.36
-1.46
-3.94
-4.94
-4.10
-2.05
-0.09
0.66
-0.14
-1.85
-3.21
-3.15
-1.31
1.68
4.63
6.43
6.66
5.71
4.48
3.81
3.86
4.13
3.74
2.08
-0.63
-3.41
-5.01
-4.60
-2.38
0.51
2.63
3.02
1.83
0.15
-0.67
0.08
2.02
3.97
4.69
3.74
1.73
-0.09
-0.62
0.33
1.99
3.03
2.45
0.12
-3.02
-5.56
-6.33
-5.07
-2.55
-0.13
1.03
0.67
-0.39
-0.80
0.50
3.58
7.40
10.43
11.56
10.76
9.09
7.93
8.11
9.26
10.05
9.05
5.67
0.64
-4.32
-7.43
-7.84
-6.04
-3.55
-2.03
-2.35
-4.05
-5.65
-5.55
-3.11
0.85
4.36
5.40
3.08
-1.73
-6.93
-10.23
-10.40
-7.91
-4.45
-1.89
-1.22
-2.00
-2.82
-2.29
0.13
3.73
6.95
8.38
7.51
5.06
2.67
1.88
3.23
5.89
8.03
7.90
5.07
0.76
-2.68
-3.18
-0.19
4.80
9.08
10.14
6.96
0.53
-6.84
-12.82
-16.04
-16.52
-15.23
-13.20
-11.06
-8.73
-5.89
-2.43
1.19
4.18
5.68
5.33
3.50
1.16
-0.43
-0.36
1.40
3.94
5.75
5.43
2.55
-2.01
-6.48
-9.03
-8.82
-6.45
-3.47
-1.54
-1.45
-2.83
-4.47
-5.18
-4.39
-2.39
-0.01
2.00
3.38
4.32
5.31
6.70
8.41
9.99
10.76
10.18
8.15
5.18
2.20
0.21
-0.28
0.56
1.95
3.04
3.39
3.30
3.52
4.67
6.66
8.49
8.79
6.60
2.10
-3.33
-7.78
-9.92
-9.77
-8.59
-8.08
-9.13
-11.27
-12.88
-12.33
-9.14
-4.35
-0.00
2.10
1.44
-0.95
-3.20
-3.73
-2.10
0.85
3.58
4.86
4.31
2.60
0.89
0.12
0.53
1.56
2.26
1.81
0.10
-2.22
-4.00
-4.21
-2.50
0.55
3.64
5.42
5.21
3.30
0.78
-1.09
-1.62
-1.08
-0.43
-0.74
-2.39
-4.75
-6.49
-6.29
-3.68
0.58
4.87
7.55
7.94
6.68
5.37
5.54
7.67
10.77
12.90
12.33
8.62
3.01
-2.23
-5.07
-4.90
-2.73
-0.63
-0.34
-2.30
-5.39
-7.70
-7.71
-5.27
-1.73
0.89
1.12
-1.10
-4.31
-6.47
-6.09
-3.17
0.91
4.15
5.06
3.43
0.22
-3.07
-5.26
-5.97
-5.61
-4.83
-4.13
-3.58
-3.11
-2.81
-3.16
-5.18
-9.93
-18.05
-28.98
-40.67
-49.91
-53.61
-50.50
-42.33
-33.64
-29.93
-34.78
-47.74
-64.07
-76.81
-80.10
-71.86
-54.34
-32.30
-10.31
9.28
26.50
42.39
57.55
71.35
82.46
89.82
93.26
93.33
90.47
84.40
74.33
59.76
41.43
21.67
3.70
-9.76
-17.80
-21.67
-24.35
-29.11
-38.09
-51.24
-66.10
-78.26
-82.69
-75.67
-56.74
-29.84
-2.55
16.53
21.50
11.98
-6.66
-25.80
-37.55
-37.79
-26.79
-7.55
16.67
43.71
71.86
98.46
119.18
129.16
125.38
108.62
83.57
56.79
33.83
17.38
6.95
0.19
-5.28
-10.73
-16.08
-20.37
-22.65
-22.50
-20.27
-16.94
-13.66
-11.24
-9.92
-9.41
-9.51
-10.48
-13.01
-17.41
-22.73
-26.53
-25.86
-19.03
-6.95
6.72
17.36
21.80
20.04
15.10
10.97
10.18
12.33
14.68
14.18
9.49
1.87
-5.75
-10.45
-10.74
-7.01
-1.02
5.13
9.63
11.41
10.18
6.54
1.72
-2.74
-5.57
-6.45
-6.21
-6.27
-7.73
-10.38
-12.73
-12.75
-9.14
-2.17
6.32
13.82
18.28
18.78
15.66
10.07
3.43
-3.04
-8.53
-12.67
-15.43
-16.88
-17.07
-16.05
-14.12
-11.94
-10.54
-10.79
-12.81
-15.51
-16.86
-14.94
-9.14
-0.82
7.22
12.22
13.01
10.57
7.20
5.05
4.82
5.60
5.93
5.04
3.54
3.01
4.86
9.21
14.60
18.56
18.95
15.00
7.78
-0.36
-6.85
-10.00
-9.65
-7.04
-4.05
-2.13
-1.64
-1.79
-1.29
0.70
3.94
7.18
8.91
8.32
5.78
2.69
0.60
0.31
1.37
2.38
1.87
-0.79
-4.88
-8.61
-10.08
-8.30
-3.80
1.62
5.74
7.07
5.66
2.87
0.55
-0.11
0.65
1.38
0.38
-3.08
-8.07
-12.41
-13.93
-11.73
-6.90
-1.90
0.78
0.10
-3.02
-6.29
-7.47
-5.69
-1.90
1.77
3.31
2.03
-1.18
-4.40
-5.91
-5.17
-3.05
-1.20
-0.95
-2.48
-4.69
-5.93
-5.00
-1.88
2.36
6.19
8.42
8.73
7.54
5.64
3.66
1.86
0.30
-0.89
-1.25
-0.10
3.16
8.59
15.40
21.98
26.25
26.45
21.78
13.06
2.62
-6.39
-11.28
-11.02
-6.77
-1.37
2.07
1.63
-2.52
-8.37
-13.29
-15.58
-15.26
-13.76
-12.81
-13.11
-13.92
-13.58
-10.72
-5.31
1.16
6.45
8.94
8.57
6.86
6.05
7.69
11.72
16.50
19.79
20.08
17.45
13.48
10.24
9.09
9.88
11.15
11.06
8.44
3.39
-2.87
-8.70
-12.75
-14.57
-14.60
-13.80
-13.06
-12.71
-12.35
-11.16
-8.53
-4.60
-0.37
2.65
3.27
1.39
-1.87
-4.67
-5.43
-3.79
-0.73
2.04
3.19
2.55
1.17
0.59
1.74
4.28
6.64
7.00
4.50
-0.13
-4.78
-7.13
-6.06
-2.32
1.80
3.88
2.79
-0.64
-4.26
-5.95
-4.93
-2.19
0.29
0.86
-0.79
-3.47
-5.32
-4.98
-2.34
1.42
4.66
6.23
6.03
4.91
4.01
4.02
4.71
5.14
4.23
1.44
-2.71
-6.74
-8.90
-8.02
-4.23
0.95
5.36
7.21
6.02
2.82
-0.48
-2.14
-1.59
0.46
2.55
3.50
3.10
2.23
2.12
3.49
5.96
8.25
9.00
7.55
4.38
0.80
-1.79
-2.65
-2.00
-0.75
0.03
-0.27
-1.55
-3.14
-4.27
-4.45
-3.75
-2.71
-2.04
-2.23
-3.23
-4.44
-5.05
-4.41
-2.52
-0.13
1.72
2.25
1.50
0.39
0.14
1.51
4.12
6.54
7.06
4.64
-0.29
-5.95
-10.02
-10.84
-8.29
-3.84
0.34
2.63
2.79
2.02
2.02
3.82
6.98
9.86
10.60
8.42
4.18
-0.04
-2.21
-1.59
0.89
3.12
3.19
0.53
-3.70
-7.23
-7.93
-4.94
0.80
7.04
11.34
12.19
9.83
5.99
3.12
3.12
6.46
12.01
17.67
21.39
21.99
19.40
14.37
7.92
0.86
-6.25
-12.90
-18.35
-21.60
-21.65
-17.98
-10.92
-1.50
8.95
19.30
28.86
37.08
43.14
45.38
41.46
29.10
7.45
-21.43
-52.08
-76.72
-87.65
-80.24
-55.04
-18.15
20.61
51.16
66.59
65.20
50.28
28.15
5.58
-12.20
-22.04
-23.28
-17.24
-6.55
6.03
17.81
26.30
29.28
25.40
14.95
1.20
-10.16
-13.28
-4.68
13.82
34.96
48.76
47.45
29.55
1.32
-25.81
-40.69
-37.53
-18.03
9.26
32.65
42.15
32.93
6.85
-28.78
-64.08
-90.07
-101.45
-97.90
-83.27
-61.85
-38.09
-14.27
10.68
39.00
71.52
103.94
127.57
132.10
110.07
60.20
-11.44
-92.83
-169.20
-226.64
-255.36
-250.91
-215.23
-156.41
-87.66
-24.38
19.79
36.78
26.30
-4.39
-43.01
-75.95
-91.90
-86.36
-63.00
-31.58
-3.22
14.10
17.57
9.38
-4.61
-16.93
-20.64
-11.13
13.30
51.15
97.47
144.76
185.58
214.86
231.14
236.09
233.05
223.73
208.35
188.33
165.36
141.11
116.93
93.39
70.12
46.43
21.91
-2.52
-24.80
-42.71
-54.52
-59.73
-59.29
-55.46
-51.08
-48.67
-49.26
-52.22
-55.82
-57.83
-56.48
-51.27
-43.27
-34.79
-28.25
-25.23
-25.90
-29.03
-32.58
-34.38
-32.53
-25.58
-12.94
4.36
23.11
37.89
42.54
32.91
9.06
-23.89
-57.09
-81.22
-90.08
-81.81
-59.86
-30.27
1.44
32.19
61.17
88.28
112.48
131.41
142.32
143.43
135.03
119.45
100.00
79.46
59.17
38.71
16.37
-9.58
-40.02
-73.63
-108.73
-143.69
-177.03
-206.83
-230.08
-242.67
-240.45
-221.39
-187.09
-143.20
-97.67
-58.11
-29.18
-11.96
-4.70
-4.50
-8.58
-14.37
-18.87
-17.84
-6.73
16.93
51.86
91.66
126.63
147.18
147.89
129.55
98.62
64.56
36.57
21.22
21.29
35.93
61.23
91.10
118.35
136.30
140.37
129.52
106.22
74.91
40.20
5.49
-26.92
-55.67
-79.73
-98.58
-112.52
-122.95
-132.03
-141.75
-153.13
-165.58
-177.18
-185.60
-189.20
-187.90
-183.22
-177.60
-173.49
-171.93
-172.30
-172.54
-170.21
-163.69
-152.85
-138.89
-123.31
-107.01
-89.50
-68.93
-42.87
-9.24
33.06
84.18
143.54
209.40
277.99
342.89
395.64
427.45
432.80
412.09
371.66
321.26
269.69
221.63
176.19
129.96
81.63
35.16
-0.95
-17.97
-12.47
10.93
40.69
63.41
70.18
59.85
38.27
13.34
-9.84
-30.43
-49.34
-65.17
-72.43
-63.89
-36.07
6.56
51.46
83.06
89.89
69.89
30.67
-14.70
-54.35
-82.45
-100.03
-112.34
-124.80
-140.31
-158.72
-178.18
-196.88
-213.73
-228.56
-240.99
-250.04
-254.35
-252.69
-244.57
-230.58
-212.26
-191.65
-170.66
-150.14
-129.74
-107.57
-81.72
-50.73
-14.05
27.81
73.21
119.46
163.72
203.37
236.30
260.98
276.26
280.72
272.24
250.15
214.00
165.89
111.47
59.12
17.24
-8.83
-19.08
-18.63
-15.67
-17.90
-29.36
-49.15
-73.25
-96.38
-113.42
-120.12
-113.26
-91.07
-54.52
-8.61
37.15
70.41
80.13
61.34
18.33
-35.96
-84.12
-110.50
-106.58
-73.43
-20.54
38.01
88.37
120.78
131.52
122.75
101.04
74.91
51.75
36.91
32.79
38.90
53.09
72.59
94.73
117.04
137.17
152.89
162.67
165.96
163.38
156.37
146.71
135.86
124.93
114.30
103.83
93.01
81.25
68.24
53.80
38.15
19.93
-2.58
-30.35
-62.27
-94.44
-121.12
-136.82
-138.05
-126.20
-107.29
-89.02
-77.56
-75.40
-81.41
-92.66
-106.38
-120.93
-135.58
-149.49
-161.00
-168.24
-170.32
-168.19
-164.50
-162.46
-164.30
-170.06
-177.55
-182.80
-181.22
-169.28
-144.53
-107.18
-60.94
-12.69
29.22
57.79
70.32
69.27
61.63
55.69
57.19
67.08
82.07
97.19
108.66
115.46
118.77
120.27
120.60
118.90
113.79
104.72
92.66
79.75
68.56
60.65
56.11
53.60
51.02
46.63
39.84
31.46
23.22
16.90
13.43
12.56
12.90
12.66
10.54
6.33
1.01
-3.62
-6.13
-5.96
-3.65
-0.75
1.02
0.60
-1.95
-5.38
-8.03
-8.53
-6.38
-2.13
2.87
7.10
9.33
8.66
4.64
-2.25
-10.00
-15.02
-12.91
-0.60
21.73
50.10
77.66
97.30
104.42
98.53
82.15
60.75
38.85
18.89
1.36
-13.93
-26.76
-36.31
-41.66
-42.66
-40.20
-36.19
-32.67
-30.92
-31.01
-32.03
-32.64
-31.77
-29.10
-25.03
-20.70
-17.31
-15.54
-15.37
-16.13
-16.85
-16.74
-15.50
-13.36
-11.02
-9.28
-8.64
-9.16
-10.44
-11.91
-13.00
-13.48
-13.41
-13.22
-13.49
-14.67
-16.94
-20.11
-23.73
-27.24
-30.24
-32.59
-34.62
-36.99
-40.44
-45.43
-51.87
-59.05
-65.95
-71.63
-75.71
-78.59
-81.25
-84.73
-89.29
-94.03
-96.91
-95.41
-87.94
-74.32
-56.21
-36.53
-18.10
-2.18
12.04
26.92
44.58
65.45
87.84
108.96
126.86
141.28
153.08
162.22
166.31
160.94
142.48
111.52
74.47
41.33
20.69
14.97
18.99
23.43
20.93
10.57
-1.57
-7.17
-1.93
10.72
20.91
17.98
-2.85
-37.01
-73.14
-99.28
-109.76
-107.79
-102.56
-102.18
-107.72
-112.02
-104.13
-77.23
-34.30
11.44
43.00
48.20
26.09
-13.10
-53.64
-82.90
-97.21
-101.83
-106.46
-118.08
-136.23
-153.40
-158.87
-144.27
-107.42
-53.00
9.77
70.02
118.43
149.15
160.04
152.34
129.99
98.94
65.71
37.01
18.02
11.42
17.21
33.36
56.82
83.74
109.96
131.28
144.42
147.82
142.34
130.77
116.68
103.17
91.71
82.05
72.74
62.23
49.69
35.52
21.17
8.41
-1.39
-7.96
-12.11
-15.36
-19.15
-24.28
-30.57
-37.00
-42.31
-45.59
-46.82
-46.80
-46.80
-47.94
-50.65
-54.47
-58.34
-61.21
-62.41
-61.96
-60.38
-58.38
-56.75
-56.47
-58.65
-64.02
-71.87
-79.07
-80.31
-69.90
-44.63
-5.99
39.45
82.50
114.85
132.47
136.44
131.56
123.42
115.86
110.71
107.59
106.46
107.92
112.08
116.94
117.92
109.35
87.34
52.33
9.75
-31.77
-64.13
-82.94
-88.75
-85.70
-78.91
-72.11
-66.78
-62.87
-59.87
-57.81
-57.02
-57.55
-58.70
-59.26
-58.25
-55.38
-51.58
-48.32
-46.93
-47.84
-50.33
-52.81
-53.83
-52.74
-50.03
-47.13
-45.37
-45.54
-47.56
-51.00
-55.33
-59.84
-63.11
-62.49
-55.14
-38.66
-13.40
17.73
49.47
76.75
96.42
107.87
112.07
109.92
101.54
86.27
64.31
38.24
13.08
-4.96
-10.65
-2.00
18.36
43.53
64.23
72.58
65.49
46.55
24.48
9.20
7.20
18.55
37.69
57.16
71.99
81.74
88.41
93.50
94.83
87.73
67.86
35.47
-3.50
-39.50
-64.01
-73.48
-70.08
-60.00
-49.88
-43.59
-41.40
-41.20
-40.43
-37.72
-33.35
-28.49
-24.35
-21.45
-19.64
-17.98
-15.72
-12.46
-8.42
-4.19
-0.44
2.46
4.62
6.51
8.84
12.05
16.18
20.85
25.51
29.68
33.04
35.54
37.14
37.87
37.55
35.82
32.28
26.73
19.25
10.30
0.89
-8.34
-16.69
-23.66
-29.05
-32.87
-35.27
-36.44
-36.83
-36.43
-35.47
-34.17
-32.67
-31.15
-29.72
-28.43
-27.27
-26.28
-25.32
-24.46
-23.68
-22.95
-22.28
-21.71
-21.24
-20.83
-20.49
-20.20
-19.99
-19.94
-19.99
-20.20
-20.61
-21.18
-21.78
-22.25
-22.31
-21.69
-20.48
-18.01
-14.01
-8.43
-1.48
6.40
14.56
22.28
28.74
33.25
35.63
35.94
34.52
31.99
29.15
26.80
25.57
25.79
27.26
29.73
32.59
35.11
36.51
36.15
33.53
28.42
21.83
13.47
3.99
-5.75
-14.80
-22.37
-28.04
-31.85
-34.21
-35.67
-36.97
-38.35
-39.88
-41.28
-42.28
-42.83
-43.08
-43.45
-44.24
-45.94
-48.52
-51.67
-54.92
-57.98
-60.70
-63.06
-65.54
-67.76
-69.92
-72.63
-77.11
-84.60
-94.85
-105.48
-111.78
-108.35
-91.85
-62.97
-26.08
12.69
47.74
76.32
97.37
110.62
115.57
111.95
100.79
85.80
72.95
67.90
73.38
87.69
106.02
123.03
135.29
141.64
143.12
141.24
136.89
130.23
120.87
108.44
93.12
75.11
54.78
32.42
8.31
-17.04
-42.26
-66.41
-88.45
-107.36
-122.78
-134.92
-144.25
-151.15
-156.18
-158.54
-157.60
-153.19
-144.48
-131.60
-115.15
-95.89
-74.34
-50.68
-24.63
3.86
33.37
62.31
88.40
109.56
124.03
130.56
128.33
117.87
100.41
79.28
59.52
45.92
41.15
44.20
50.74
54.64
51.22
39.25
21.06
1.16
-16.61
-30.60
-41.24
-49.93
-57.69
-64.37
-69.18
-71.60
-72.05
-71.95
-72.87
-76.05
-81.62
-88.69
-95.83
-101.68
-105.63
-107.78
-108.84
-109.44
-109.71
-109.01
-106.09
-99.63
-88.12
-70.98
-48.56
-22.12
6.78
36.45
65.30
91.92
114.47
132.33
144.91
152.93
155.74
153.31
146.13
134.94
120.59
103.97
86.02
67.52
49.20
31.81
16.20
3.22
-6.49
-12.52
-14.64
-12.70
-6.80
2.86
15.95
31.88
49.52
67.27
83.11
95.06
101.72
102.66
98.52
90.88
81.43
71.31
60.69
48.75
34.14
15.87
-5.94
-30.87
-55.33
-75.87
-90.34
-98.44
-101.55
-101.65
-100.59
-98.50
-93.81
-83.66
-65.55
-37.98
-1.16
42.64
89.14
131.84
162.55
172.88
157.58
117.02
58.72
-4.27
-57.69
-91.27
-102.47
-95.66
-81.49
-71.10
-71.03
-81.43
-97.94
-115.70
-131.78
-145.73
-158.43
-170.08
-179.26
-183.74
-182.23
-174.89
-164.47
-152.80
-141.14
-130.15
-119.03
-106.42
-91.88
-76.33
-61.25
-48.68
-39.54
-33.24
-29.16
-25.55
-20.98
-15.57
-10.28
-5.75
-2.27
1.58
8.41
20.35
40.59
72.46
118.51
169.65
215.36
242.24
237.46
207.63
158.74
101.41
50.08
12.49
-4.18
1.41
22.87
49.99
73.93
90.56
102.50
115.45
133.75
158.97
190.42
226.70
268.08
305.11
329.83
337.64
328.49
305.46
272.60
233.17
189.66
144.95
102.69
67.23
41.71
26.92
20.96
20.96
24.09
27.83
29.47
25.34
12.17
-12.01
-46.05
-85.38
-122.94
-151.95
-168.51
-172.94
-168.86
-160.47
-151.22
-142.87
-136.59
-134.05
-137.67
-149.59
-169.78
-194.62
-215.61
-224.34
-215.22
-188.59
-150.89
-112.04
-81.30
-63.56
-58.17
-60.32
-64.49
-67.11
-67.71
-67.73
-68.75
-71.14
-73.82
-75.18
-74.00
-70.17
-64.14
-56.69
-48.12
-38.09
-25.85
-10.74
7.27
26.63
45.66
62.53
75.73
84.58
89.29
90.73
90.00
87.99
85.15
81.65
77.40
72.42
66.95
61.46
56.38
51.97
48.14
44.52
40.87
37.07
33.36
30.16
27.90
26.60
25.87
24.94
23.11
20.21
16.71
13.63
12.13
13.19
16.34
20.30
23.30
23.98
22.11
18.81
16.17
16.31
20.37
27.74
36.35
42.78
44.60
41.12
33.80
25.63
19.62
17.49
19.49
24.52
30.63
35.61
36.74
30.77
15.03
-10.60
-42.43
-71.52
-88.55
-88.31
-72.95
-51.66
-35.99
-33.70
-44.76
-62.29
-76.82
-82.22
-78.44
-70.26
-63.61
-61.92
-64.96
-69.59
-72.18
-70.15
-62.49
-49.12
-30.83
-9.67
11.41
29.08
41.03
46.69
47.31
44.64
40.14
34.47
27.96
21.22
15.74
13.24
14.65
19.32
25.08
29.39
30.64
28.70
25.13
22.19
21.54
23.43
26.88
29.85
30.47
27.81
22.23
15.43
10.12
9.10
13.92
23.69
34.51
40.34
35.37
17.01
-12.52
-45.70
-73.42
-89.04
-90.87
-82.58
-70.44
-60.06
-53.54
-50.23
-48.24
-46.34
-44.21
-41.51
-36.64
-26.66
-9.21
15.72
44.76
72.10
91.92
101.22
101.02
95.12
87.52
79.22
69.29
54.00
31.02
1.34
-30.54
-58.00
-76.05
-82.98
-80.56
-72.68
-63.05
-53.81
-45.61
-38.35
-32.31
-28.90
-29.52
-34.93
-43.87
-52.83
-56.85
-51.33
-34.42
-8.21
21.70
48.58
67.15
75.67
76.02
72.34
68.41
65.78
63.37
58.87
50.62
39.23
27.41
18.35
13.83
12.68
10.95
3.25
-13.67
-38.30
-64.00
-81.30
-82.31
-64.63
-32.65
4.90
38.89
63.83
78.69
85.15
84.58
76.01
56.99
26.07
-14.50
-59.00
-99.59
-128.78
-141.66
-136.38
-113.56
-75.28
-25.87
28.37
79.22
119.25
144.68
156.30
158.40
155.51
149.80
136.51
111.13
70.87
18.08
-38.91
-88.49
-120.03
-128.15
-113.61
-82.81
-44.67
-8.11
20.85
39.72
48.37
49.03
45.94
46.09
57.57
83.60
117.55
146.54
159.52
151.96
128.94
96.04
57.78
16.28
-28.63
-78.06
-131.92
-182.46
-222.04
-244.93
-247.77
-229.79
-193.92
-146.79
-97.33
-53.94
-22.09
-4.15
0.26
-5.76
-17.32
-29.92
-41.11
-50.68
-59.76
-69.66
-75.48
-74.98
-67.69
-54.39
-36.72
-17.11
1.68
17.43
29.81
40.14
49.42
58.56
67.62
75.78
81.75
84.83
85.22
84.51
84.73
85.96
87.78
88.74
88.32
85.92
81.31
74.24
65.23
55.36
44.19
31.92
19.06
6.82
-3.67
-11.61
-17.49
-22.36
-27.14
-34.14
-44.35
-58.10
-74.94
-95.26
-114.29
-131.06
-146.56
-151.46
-141.02
-115.51
-80.86
-43.36
-6.87
27.19
57.38
80.86
95.60
98.68
92.53
80.37
65.80
51.67
39.38
27.84
12.80
-9.88
-44.52
-88.24
-138.84
-193.52
-248.36
-297.53
-318.70
-296.81
-233.01
-145.60
-56.71
17.21
69.54
101.20
119.16
126.23
119.79
97.80
61.80
18.27
-23.74
-54.41
-66.90
-59.61
-36.77
-7.55
20.66
44.55
64.80
83.43
102.47
123.80
148.55
175.76
200.64
219.24
228.71
227.17
213.35
187.69
154.24
120.03
92.86
77.63
78.68
96.67
126.48
157.69
171.96
154.95
108.02
53.47
1.51
-44.58
-83.01
-111.39
-127.65
-130.01
-116.74
-88.73
-52.01
-18.04
3.29
6.00
-11.35
-46.25
-93.22
-144.32
-191.12
-226.53
-246.92
-250.01
-236.63
-211.37
-181.43
-153.64
-131.46
-114.50
-99.86
-85.82
-72.10
-60.23
-52.66
-50.69
-53.26
-57.05
-58.56
-55.50
-49.43
-44.46
-44.47
-50.21
-58.26
-62.55
-57.18
-39.02
-7.21
35.13
82.14
128.07
169.29
204.42
233.13
255.29
270.88
282.65
293.32
303.62
312.75
319.30
321.50
317.20
304.43
269.52
210.93
141.73
80.38
38.22
15.80
7.37
6.11
7.07
8.11
10.28
15.58
22.41
27.16
26.65
19.48
5.94
-12.75
-35.30
-60.01
-82.62
-103.37
-124.38
-147.61
-174.05
-203.96
-237.36
-273.99
-311.84
-347.82
-378.97
-401.69
-412.27
-408.13
-389.13
-357.46
-316.70
-269.98
-219.72
-168.37
-117.92
-69.96
-25.81
13.39
47.26
76.09
100.41
120.50
136.02
147.05
154.49
160.16
165.83
173.60
184.82
199.01
213.80
225.62
231.20
228.37
216.34
195.05
166.36
132.97
96.77
58.10
16.21
-29.78
-79.88
-132.54
-185.13
-231.96
-266.17
-282.78
-280.42
-261.18
-229.53
-190.84
-144.42
-98.55
-63.91
-45.85
-42.67
-49.85
-63.29
-80.07
-97.85
-113.33
-126.26
-135.34
-139.21
-138.15
-134.09
-129.05
-123.81
-116.76
-107.86
-96.10
-79.42
-56.43
-27.73
4.11
36.07
66.18
94.34
122.00
151.06
183.72
221.28
263.35
308.01
352.54
393.81
428.38
452.76
464.22
462.33
449.28
429.20
406.38
383.40
360.08
334.10
303.26
267.89
231.75
200.65
179.66
170.24
169.48
171.28
169.14
158.67
138.58
109.87
73.90
31.21
-18.85
-77.12
-143.50
-216.54
-293.35
-369.53
-439.15
-495.50
-532.71
-548.32
-544.91
-529.58
-510.75
-493.88
-478.76
-459.89
-430.16
-385.31
-326.52
-259.27
-189.72
-121.22
-53.28
16.17
87.36
156.54
216.92
261.50
286.23
291.83
283.07
266.80
249.07
233.26
219.95
208.31
196.94
184.86
171.97
158.85
146.14
133.97
121.85
108.92
95.38
81.74
68.49
56.10
44.98
35.45
27.43
20.40
13.53
7.38
2.57
-0.37
-1.05
1.14
6.65
14.98
24.42
32.65
39.53
45.59
51.41
57.15
63.01
69.38
76.74
85.48
84.96
69.49
40.48
4.78
-31.20
-63.56
-89.65
-107.53
-116.78
-118.89
-115.16
-107.66
-98.67
-90.04
-82.59
-76.34
-71.23
-67.48
-65.20
-62.75
-58.51
-51.66
-42.43
-31.71
-20.54
-9.96
-1.22
5.02
9.38
12.33
14.27
15.06
14.26
11.47
6.74
-0.08
-8.34
-16.75
-24.26
-30.21
-34.24
-36.34
-36.77
-35.48
-33.04
-29.41
-24.66
-19.27
-14.08
-9.53
-5.82
-2.89
4.38
15.43
29.49
45.30
60.91
72.47
79.05
79.95
74.88
65.20
52.42
38.68
25.28
11.81
-4.24
-27.48
-57.83
-96.42
-142.03
-190.64
-234.30
-263.10
-268.42
-246.58
-200.84
-141.34
-82.39
-37.09
-14.83
-18.69
-45.27
-86.41
-131.37
-169.21
-191.13
-192.23
-171.46
-132.67
-82.90
-29.70
20.59
63.87
98.38
121.11
127.79
119.41
102.09
82.75
66.18
53.69
44.09
34.97
24.18
10.96
-2.38
-14.66
-24.75
-31.06
-32.57
-29.16
-21.89
-12.84
-3.94
4.57
14.67
26.11
41.50
63.15
90.85
120.59
145.11
156.38
148.49
119.08
70.25
8.80
-55.94
-113.85
-155.90
-175.53
-169.68
-139.29
-89.96
-31.10
26.21
70.90
94.00
90.37
59.82
7.28
-57.71
-122.79
-175.78
-207.20
-212.48
-192.40
-152.40
-100.95
-47.54
-1.19
30.57
42.52
32.88
4.07
-36.50
-77.68
-107.68
-117.56
-103.72
-67.66
-14.50
49.20
116.11
178.18
226.29
251.66
248.86
219.02
171.96
121.90
82.40
61.87
62.34
80.63
110.88
146.90
183.11
216.66
243.57
258.63
257.61
240.17
210.27
174.54
140.41
114.09
103.35
110.92
133.11
161.83
188.58
207.19
214.66
211.04
198.28
183.56
170.59
158.60
144.46
127.13
108.94
94.16
86.80
58.18
-0.82
-77.46
-150.11
-207.74
-250.72
-283.36
-309.04
-329.44
-344.98
-349.57
-342.42
-325.97
-305.22
-284.12
-264.65
-247.35
-231.80
-216.35
-193.93
-163.65
-126.16
-84.44
-42.11
-3.25
26.92
42.84
40.57
22.62
-6.21
-39.30
-70.28
-93.72
-106.39
-107.88
-99.87
-84.46
-61.01
-29.91
7.76
50.71
98.93
153.23
213.39
276.63
337.37
390.69
430.84
454.45
462.46
459.73
451.61
440.57
425.62
404.48
378.08
347.43
313.24
275.59
233.54
184.81
126.75
58.44
-29.90
-127.48
-213.19
-271.62
-301.77
-311.65
-310.72
-305.78
-300.08
-294.02
-284.32
-269.92
-252.60
-235.33
-220.36
-209.04
-201.79
-197.91
-195.66
-191.20
-183.08
-172.39
-161.38
-151.90
-145.04
-141.21
-140.48
-142.70
-146.33
-150.07
-152.03
-148.94
-136.90
-113.67
-80.84
-43.88
-10.19
14.60
27.93
30.94
27.54
22.12
17.65
14.82
13.34
13.04
14.80
19.63
27.87
38.78
50.51
60.80
67.59
69.93
68.03
63.00
56.24
48.90
41.83
35.15
28.55
21.63
14.26
6.68
-0.53
-6.74
-11.54
-14.27
-14.97
-14.11
-12.52
-11.08
-10.40
-10.80
-12.23
-14.46
-16.38
-16.99
-15.21
-9.95
-0.28
14.06
32.34
53.10
69.36
76.81
73.64
61.31
44.02
26.94
13.95
6.40
3.09
1.68
1.04
1.35
3.94
10.19
20.41
33.35
46.57
57.44
64.19
67.14
67.99
69.09
72.35
78.30
85.88
92.86
96.65
94.84
85.73
67.91
40.73
5.17
-35.28
-74.30
-103.89
-116.67
-108.67
-80.83
-39.18
7.21
49.31
80.94
100.18
108.96
111.35
111.49
112.18
114.53
118.59
124.20
131.39
140.18
149.47
156.50
157.28
148.18
127.98
99.36
68.61
43.52
30.28
30.39
39.74
49.88
51.10
35.96
1.67
-49.33
-110.59
-173.81
-231.04
-276.20
-305.82
-319.09
-317.39
-303.63
-281.34
-253.89
-224.07
-193.89
-164.81
-137.91
-113.95
-93.11
-74.91
-58.34
-42.35
-26.39
-10.81
3.34
14.77
22.54
26.54
27.60
27.11
26.51
26.73
27.92
29.55
30.86
31.30
30.88
30.08
29.58
29.84
30.85
32.06
32.67
31.96
29.62
25.91
21.59
17.69
15.17
14.59
15.99
18.91
22.55
26.02
28.54
29.54
28.71
26.05
21.95
17.21
12.88
9.97
9.09
10.15
12.43
14.83
16.36
16.44
15.09
12.69
9.67
6.33
2.73
-1.14
-5.27
-9.46
-13.40
-16.79
-19.53
-21.74
-23.76
-26.03
-28.94
-32.62
-36.83
-40.96
-44.12
-45.35
-43.95
-39.67
-32.86
-24.37
-15.21
-6.30
1.78
8.77
14.66
19.48
23.23
25.88
27.48
28.20
28.33
28.15
27.87
27.54
27.06
26.33
25.30
24.06
22.79
21.73
21.01
20.68
20.64
20.71
20.70
20.44
19.88
19.06
18.10
17.18
16.39
15.74
15.14
14.42
13.45
12.22
10.82
9.43
8.21
7.19
6.30
5.37
4.22
2.78
1.13
-0.58
-2.15
-3.48
-4.59
-5.58
-6.64
-7.93
-9.49
-11.32
-13.32
-15.36
-17.33
-19.17
-20.91
-22.64
-24.53
-26.78
-29.54
-32.82
-36.31
-39.39
-41.23
-40.98
-38.06
-32.40
-24.49
-15.28
-5.86
2.83
10.16
15.96
20.33
23.56
25.88
27.46
28.35
28.56
28.14
27.26
26.16
25.12
24.32
23.81
23.52
23.30
23.10
22.92
22.81
22.80
22.75
22.47
21.73
20.45
18.77
16.96
15.38
14.19
13.40
12.79
12.12
11.23
10.10
8.87
7.69
6.63
5.64
4.60
3.40
2.02
0.56
-0.85
-2.10
-3.22
-4.37
-5.78
-7.62
-9.93
-12.57
-15.29
-17.82
-19.97
-21.72
-23.22
-24.70
-26.43
-28.64
-31.47
-34.92
-38.68
-42.11
-44.29
-44.26
-41.36
-35.51
-27.32
-17.92
-8.58
-0.28
6.47
11.68
15.65
18.77
21.30
23.29
24.70
25.47
25.60
25.20
24.48
23.69
23.02
22.58
22.33
22.16
21.94
21.57
21.03
20.32
19.48
18.51
17.40
16.14
14.78
13.35
11.92
10.55
9.31
8.27
7.50
6.97
6.61
6.25
5.69
4.79
3.55
2.08
0.55
-0.85
-2.01
-2.92
-3.64
-4.30
-5.00
-5.81
-6.74
-7.77
-8.88
-10.09
-11.48
-13.13
-15.12
-17.48
-20.21
-23.29
-26.71
-30.33
-33.75
-36.27
-37.07
-35.43
-31.13
-24.58
-16.72
-8.71
-1.50
4.43
9.06
12.65
15.48
17.70
19.33
20.36
20.82
20.88
20.74
20.59
20.55
20.62
20.69
20.59
20.18
19.43
18.41
17.30
16.30
15.51
14.89
14.33
13.70
12.92
12.04
11.19
10.52
10.07
9.76
9.41
8.80
7.81
6.44
4.83
3.20
1.81
0.80
0.25
0.09
0.20
0.40
0.51
0.38
-0.11
-1.00
-2.27
-3.79
-5.41
-7.00
-8.51
-9.98
-11.50
-13.16
-14.90
-16.59
-18.02
-19.06
-19.73
-20.27
-21.03
-22.42
-24.69
-27.78
-31.33
-34.62
-36.82
-37.13
-35.04
-30.48
-23.88
-16.09
-8.14
-0.95
4.87
9.16
12.07
13.98
15.28
16.25
17.05
17.70
18.20
18.50
18.63
18.60
18.46
18.23
17.89
17.41
16.75
15.97
15.23
14.71
14.56
14.77
15.12
15.31
15.07
14.28
13.06
11.63
10.20
8.90
7.77
6.80
6.01
5.46
5.20
5.17
5.26
5.29
5.10
4.57
3.67
2.44
0.95
-0.68
-2.29
-3.71
-4.79
-5.46
-5.77
-5.88
-6.02
-6.44
-7.35
-8.81
-10.70
-12.80
-14.80
-16.46
-17.67
-18.47
-19.04
-19.61
-20.46
-21.77
-23.58
-25.71
-27.74
-29.05
-29.00
-27.11
-23.33
-17.99
-11.76
-5.36
0.62
5.88
10.35
13.98
16.70
18.29
18.52
17.35
15.05
12.19
9.51
7.68
7.07
7.65
9.10
10.91
12.60
13.87
14.57
14.70
14.31
13.47
12.26
10.80
9.24
7.76
6.49
5.47
4.65
3.93
3.21
2.42
1.54
0.63
-0.28
-1.13
-1.96
-2.84
-3.87
-5.16
-6.73
-8.51
-10.38
-12.20
-13.90
-15.49
-17.03
-18.64
-20.35
-22.16
-24.06
-26.02
-28.06
-30.17
-32.32
-34.46
-36.56
-38.67
-40.95
-43.50
-46.29
-49.05
-51.25
-52.29
-51.70
-49.34
-45.46
-40.61
-35.55
-30.97
-27.45
-25.34
-24.74
-25.59
-27.67
-30.77
-34.68
-39.22
-44.20
-49.39
-54.46
-59.04
-62.77
-65.29
-66.28
-65.40
-62.33
-56.83
-48.88
-38.85
-27.52
-15.99
-5.34
3.78
11.60
19.35
28.93
42.30
60.65
83.90
110.70
138.89
166.19
190.75
211.31
227.07
237.46
242.09
240.88
234.34
223.56
209.87
194.36
177.51
159.21
139.17
117.48
94.95
73.02
53.38
37.34
25.52
17.67
12.91
10.09
8.07
5.98
3.25
-0.42
-5.10
-10.76
-17.31
-24.60
-32.22
-39.52
-45.63
-49.70
-51.26
-50.35
-47.57
-43.85
-40.09
-36.89
-34.52
-32.93
-32.04
-31.77
-32.15
-33.12
-34.53
-36.01
-37.19
-37.87
-38.25
-38.99
-41.10
-45.44
-52.29
-61.05
-70.32
-78.35
-83.58
-85.10
-82.74
-76.97
-68.56
-58.43
-47.58
-37.05
-27.87
-20.89
-16.57
-14.91
-15.52
-17.72
-20.71
-23.70
-25.93
-26.73
-25.69
-22.73
-18.20
-12.72
-7.01
-1.65
2.92
6.44
8.82
10.17
11.08
12.59
16.20
23.32
34.71
49.95
67.23
83.77
96.55
103.19
102.65
95.34
82.91
67.76
52.45
39.25
29.70
24.27
22.30
22.22
21.93
19.57
14.12
5.75
-4.31
-14.27
-22.46
-27.85
-30.29
-30.41
-29.33
-28.23
-28.09
-29.56
-32.97
-38.51
-46.20
-55.98
-67.55
-80.22
-92.88
-104.18
-112.90
-118.39
-120.75
-120.80
-119.61
-118.05
-116.33
-114.10
-110.73
-105.77
-99.27
-91.63
-83.27
-74.13
-63.59
-50.73
-35.06
-17.04
1.74
19.05
32.84
42.07
47.09
49.33
50.70
52.77
56.32
61.26
66.92
72.37
76.74
79.33
79.62
77.36
72.52
65.36
56.21
45.40
33.13
19.48
4.66
-10.76
-25.63
-38.45
-47.72
-52.46
-52.53
-48.59
-41.79
-33.27
-23.84
-13.93
-3.73
6.67
17.11
27.34
37.13
46.26
54.49
61.52
66.97
70.50
71.99
71.60
69.75
66.89
63.42
59.64
55.80
52.27
49.51
48.04
48.29
50.45
54.42
59.83
66.02
72.08
76.77
78.62
76.19
68.47
55.36
37.89
18.02
-1.77
-19.17
-32.33
-39.99
-41.29
-35.64
-22.78
-3.17
21.61
48.83
75.00
96.75
111.65
118.62
117.86
110.37
97.39
79.92
58.60
33.67
5.09
-27.26
-63.35
-102.52
-143.16
-182.41
-216.26
-240.21
-250.29
-244.31
-222.81
-189.37
-149.92
-111.30
-79.27
-56.92
-44.05
-37.72
-33.95
-29.48
-22.93
-14.91
-7.07
-0.88
3.13
5.44
6.85
7.80
8.05
6.99
4.40
1.06
-1.15
0.04
6.27
17.55
32.01
46.52
57.90
64.10
64.87
61.47
55.68
48.66
40.32
29.52
15.05
-3.30
-24.19
-44.92
-62.25
-73.25
-76.04
-70.16
-56.67
-38.10
-18.02
-0.30
11.83
16.82
15.26
9.74
3.79
0.63
2.11
8.38
18.16
29.45
40.17
48.60
53.53
54.36
51.08
44.10
34.01
21.35
6.61
-9.41
-25.19
-38.33
-46.05
-46.24
-38.54
-24.93
-9.15
4.70
13.68
16.94
15.46
11.08
5.36
-0.92
-7.57
-14.37
-20.62
-25.10
-26.41
-23.45
-15.79
-3.81
11.45
28.46
45.68
61.91
76.64
90.11
103.05
116.31
130.42
145.48
161.21
177.10
192.50
206.45
217.48
223.50
222.25
211.81
191.60
162.98
129.34
95.42
65.98
44.38
31.53
25.72
23.22
19.49
10.44
-6.40
-31.33
-62.30
-95.26
-125.09
-147.02
-158.34
-159.51
-154.17
-147.75
-145.22
-148.89
-157.39
-166.45
-170.86
-166.85
-153.57
-133.24
-109.90
-87.59
-68.74
-53.51
-40.18
-26.29
-9.75
10.34
33.59
58.53
82.96
104.21
119.42
125.99
122.18
107.71
83.95
53.59
19.95
-13.82
-45.28
-72.65
-94.49
-109.35
-115.68
-112.10
-98.11
-74.75
-44.97
-13.39
14.72
34.71
43.90
42.11
31.41
14.97
-4.17
-23.84
-42.81
-60.37
-75.96
-88.93
-98.82
-105.54
-109.42
-110.92
-110.26
-107.21
-101.28
-92.12
-79.92
-65.69
-51.14
-38.23
-28.68
-23.42
-22.35
-24.30
-27.47
-29.94
-30.38
-28.41
-24.61
-20.24
-16.69
-15.06
-16.00
-19.69
-25.70
-32.70
-38.25
-39.16
-32.86
-19.08
-0.93
15.60
23.86
19.53
2.66
-22.42
-49.33
-72.68
-90.13
-102.62
-113.02
-124.23
-137.71
-153.10
-168.26
-179.67
-183.08
-174.42
-151.22
-113.86
-66.01
-13.80
35.94
77.62
108.11
126.79
134.74
133.91
126.63
115.55
103.64
93.77
88.01
86.88
89.21
92.53
94.16
92.19
86.02
76.18
63.89
50.59
37.88
27.54
21.39
20.77
25.65
34.32
43.83
51.18
54.67
54.88
54.29
55.99
61.94
71.84
83.02
91.38
92.94
85.53
69.97
50.17
31.96
20.98
20.18
28.27
39.88
47.60
44.66
27.31
-4.36
-47.32
-97.07
-149.35
-200.57
-247.68
-287.64
-316.91
-331.80
-329.35
-308.52
-270.93
-221.02
-165.29
-110.72
-63.29
-26.29
0.37
19.96
37.52
57.87
83.57
113.89
145.02
171.33
188.29
194.24
190.70
180.82
167.31
151.05
130.96
105.30
72.16
32.18
-11.65
-55.44
-96.39
-133.37
-166.38
-195.44
-220.34
-243.29
-265.68
-287.46
-306.75
-320.18
-323.35
-312.21
-285.07
-244.70
-202.56
-170.97
-158.51
-167.37
-193.95
-231.17
-270.99
-306.31
-332.03
-349.83
-359.82
-359.12
-343.39
-310.60
-263.09
-206.96
-149.56
-67.88
41.64
165.06
278.95
366.65
425.04
460.06
480.07
491.77
500.81
504.10
498.91
485.12
465.07
441.47
416.22
388.90
360.56
333.23
305.03
274.98
243.15
210.39
177.51
145.66
117.26
96.35
86.80
87.86
96.87
110.11
123.95
135.37
142.48
144.49
141.47
133.22
117.91
94.58
64.44
31.09
-0.59
-26.18
-43.27
-52.16
-55.94
-59.86
-68.87
-85.72
-109.91
-137.82
-163.82
-181.94
-187.52
-178.36
-154.97
-119.96
-77.15
-30.69
15.43
57.68
93.19
120.10
137.89
147.27
149.72
146.92
140.23
130.62
118.91
105.96
92.91
80.85
70.48
61.98
55.00
48.83
42.65
35.60
26.78
15.22
0.06
-19.10
-41.86
-66.92
-92.24
-115.57
-135.08
-149.86
-160.27
-168.02
-176.04
-188.06
-207.74
-237.15
-275.29
-317.27
-354.96
-379.23
-383.01
-363.84
-324.72
-272.73
-216.02
-160.82
-109.95
-63.20
-19.12
23.16
63.17
99.51
130.83
156.47
176.07
188.66
192.25
184.40
163.83
132.30
95.45
61.67
39.48
34.36
46.78
72.40
104.37
136.47
165.32
190.83
214.86
238.98
262.96
284.61
300.85
309.30
309.34
302.25
290.13
274.75
256.76
235.85
211.49
183.93
154.49
125.19
97.88
73.38
51.07
29.29
6.42
-18.13
-43.31
-66.70
-85.50
-97.81
-103.53
-104.58
-104.18
-105.67
-111.29
-121.39
-134.61
-148.70
-161.53
-171.86
-179.37
-184.21
-186.52
-186.21
-183.21
-177.96
-171.74
-166.44
-163.89
-165.01
-169.31
-175.03
-179.97
-182.36
-181.52
-177.67
-171.25
-162.21
-149.92
-133.71
-113.72
-91.35
-68.58
-46.77
-25.47
-2.50
24.66
56.81
91.79
124.88
150.81
166.32
171.46
169.29
163.96
158.66
154.57
151.14
147.25
142.15
135.59
127.25
116.25
101.28
81.46
57.08
30.04
3.07
-21.34
-42.04
-59.57
-75.77
-93.03
-113.62
-139.40
-171.74
-211.22
-256.85
-305.35
-350.94
-386.18
-403.92
-399.53
-372.56
-326.99
-269.96
-209.52
-152.32
-102.29
-60.38
-25.43
4.67
31.97
57.95
83.56
109.45
136.06
163.49
191.23
217.95
241.61
259.71
270.03
271.29
263.68
249.22
231.70
216.26
208.14
210.90
224.48
244.33
262.04
267.98
254.54
218.68
162.53
91.95
14.09
-64.58
-138.86
-204.32
-256.52
-291.15
-305.08
-297.81
-272.12
-233.50
-188.46
-142.65
-99.80
-61.53
-27.92
1.55
27.13
48.50
64.82
75.29
80.01
80.40
79.05
78.92
82.17
89.38
99.60
111.16
122.54
132.84
141.40
147.17
148.44
143.31
130.67
110.98
86.21
59.02
31.65
5.37
-19.24
-41.53
-60.38
-74.31
-82.21
-84.07
-81.07
-74.96
-67.20
-58.19
-47.26
-33.26
-15.47
5.38
26.64
44.02
52.86
49.91
34.92
11.25
-15.16
-37.76
-51.85
-55.97
-51.89
-43.27
-33.81
-25.82
-19.69
-14.37
-8.20
0.08
10.75
22.93
34.81
44.20
49.38
49.71
45.81
39.27
31.88
25.00
19.33
15.15
12.66
12.09
13.50
16.13
18.26
17.44
11.40
-0.78
-18.04
-37.48
-55.28
-67.84
-72.59
-68.35
-55.25
-34.52
-8.33
20.33
48.05
71.62
88.88
99.34
104.44
107.01
110.08
115.58
123.52
132.12
138.80
141.74
140.70
137.09
132.94
129.66
127.46
125.60
123.30
120.46
117.55
114.71
110.81
103.19
88.51
64.34
30.24
-11.77
-58.01
-104.20
-146.34
-181.28
-206.85
-222.02
-227.02
-223.39
-213.31
-198.74
-180.57
-158.58
-132.14
-101.43
-68.31
-36.26
-9.36
9.27
18.35
18.59
11.77
-0.24
-16.26
-35.87
-59.00
-85.37
-114.21
-144.44
-175.07
-205.32
-234.55
-261.59
-284.30
-299.38
-302.97
-291.88
-265.05
-224.34
-174.34
-121.19
-70.70
-26.95
8.40
35.58
55.67
69.58
77.87
81.05
80.30
77.76
76.19
78.23
85.43
97.77
113.98
132.22
150.79
168.25
183.08
193.27
196.46
190.68
175.66
153.42
128.10
104.56
86.52
75.29
69.72
67.25
65.47
63.02
59.38
54.07
45.89
33.28
15.40
-6.55
-29.27
-48.50
-60.98
-65.92
-64.87
-60.21
-53.37
-43.94
-30.48
-12.33
8.82
28.91
43.11
48.01
43.33
32.04
19.23
10.06
8.01
13.86
25.67
39.65
51.61
58.47
59.35
55.80
50.96
48.16
49.50
55.09
63.33
71.70
77.82
80.11
77.98
71.66
62.09
50.79
39.72
30.97
26.26
26.49
31.27
38.82
46.15
49.59
45.44
30.81
4.51
-32.17
-75.26
-118.65
-155.54
-180.15
-189.17
-182.22
-161.53
-130.99
-95.34
-59.59
-28.56
-6.37
4.40
3.62
-6.10
-19.94
-32.46
-39.34
-38.71
-31.27
-19.41
-5.94
7.00
18.31
27.60
34.77
39.59
41.81
41.57
39.87
38.61
40.11
46.39
58.33
75.19
94.66
113.11
126.22
129.58
119.60
94.72
56.43
9.77
-37.57
-77.27
-103.18
-113.31
-110.26
-99.60
-87.31
-77.37
-70.95
-67.06
-64.17
-61.50
-59.35
-58.58
-59.76
-62.81
-67.11
-71.89
-76.32
-79.40
-79.68
-75.32
-64.68
-47.11
-23.61
3.11
29.29
51.13
65.81
72.03
70.27
62.46
51.41
40.16
31.09
25.33
22.18
19.35
14.00
4.29
-9.69
-25.85
-41.13
-53.04
-60.69
-65.07
-68.15
-71.52
-75.16
-77.81
-77.89
-74.60
-68.37
-59.98
-50.14
-39.15
-26.90
-12.56
3.93
21.28
37.14
48.48
54.05
53.92
49.14
41.41
34.22
30.34
30.69
33.99
36.74
37.47
36.07
33.55
32.00
36.20
49.63
72.52
101.66
130.51
156.05
177.34
194.59
209.05
225.40
247.07
274.45
304.34
329.52
346.76
354.83
353.56
322.64
252.50
149.23
33.67
-56.85
-118.49
-155.34
-171.79
-174.70
-167.96
-152.39
-130.19
-105.85
-85.33
-75.82
-77.84
-88.35
-103.17
-117.84
-126.72
-126.58
-117.94
-104.83
-94.19
-88.88
-88.98
-93.01
-98.46
-101.43
-99.16
-90.89
-77.99
-64.10
-51.40
-41.59
-36.25
-36.05
-39.71
-44.76
-48.56
-49.39
-47.64
-44.26
-40.86
-39.00
-39.21
-40.54
-41.42
-40.68
-38.29
-35.43
-33.09
-31.35
-29.08
-24.08
-14.13
2.05
24.34
51.35
81.02
111.31
140.42
166.50
187.29
200.01
201.69
190.16
164.77
126.87
79.36
25.97
-29.48
-83.29
-131.84
-171.49
-198.97
-212.29
-211.73
-200.06
-181.77
-161.38
-141.62
-122.79
-103.41
-81.92
-58.26
-34.30
-12.90
3.83
15.78
24.85
33.57
43.59
54.72
65.23
72.99
76.66
76.28
73.02
68.58
64.63
62.60
63.63
68.38
76.72
87.45
98.47
107.50
112.79
113.63
110.10
102.48
90.88
75.37
56.37
34.85
12.06
-10.97
-33.60
-55.15
-74.08
-87.71
-93.03
-88.34
-74.78
-56.54
-39.29
-27.45
-22.21
-21.13
-19.96
-15.22
-5.91
6.53
19.78
32.44
44.79
58.12
73.45
90.41
107.19
121.36
130.80
134.27
131.18
121.10
103.42
77.39
42.69
0.07
-48.30
-98.95
-147.57
-189.75
-221.74
-241.31
-248.28
-244.69
-234.35
-221.76
-211.00
-204.64
-203.36
-206.07
-210.41
-213.36
-211.97
-203.85
-187.60
-163.14
-131.65
-95.30
-56.88
-19.18
15.42
44.96
67.83
82.44
87.27
81.15
63.87
36.97
4.16
-28.80
-55.27
-69.45
-68.32
-52.75
-27.25
1.64
27.71
47.04
58.79
64.65
67.25
68.72
69.88
70.41
69.66
67.39
64.01
60.26
56.59
52.84
48.30
42.10
33.95
24.36
14.67
6.50
1.15
-0.97
-0.42
1.53
3.43
4.25
3.68
2.08
0.21
-1.20
-1.82
-1.77
-1.57
-1.85
-3.12
-5.62
-9.33
-14.02
-19.36
-24.94
-30.20
-34.42
-36.76
-36.47
-33.13
-26.88
-18.42
-8.89
0.58
9.14
16.43
22.54
27.77
32.39
36.47
39.88
42.41
43.97
44.65
44.74
44.59
44.44
44.36
44.23
43.94
43.41
42.77
42.25
42.11
42.49
43.25
44.08
44.55
44.31
43.20
41.28
38.78
36.03
33.33
30.85
28.64
26.61
24.58
22.36
19.80
16.90
13.85
10.92
8.41
6.47
5.00
3.69
2.11
-0.05
-2.90
-6.27
-9.83
-13.30
-16.48
-19.34
-21.96
-24.45
-26.94
-29.57
-32.53
-35.94
-39.71
-43.42
-46.21
-47.05
-45.06
-39.87
-31.83
-21.92
-11.42
-1.53
7.01
13.99
19.60
24.18
27.92
30.80
32.63
33.29
32.80
31.47
29.73
28.00
26.52
25.34
24.41
23.65
23.13
22.95
23.20
23.85
24.70
25.44
25.78
25.54
24.73
23.48
22.05
20.66
19.50
18.61
17.93
17.33
16.62
15.65
14.35
12.72
10.86
8.91
7.03
5.30
3.71
2.16
0.46
-1.54
-3.90
-6.59
-9.46
-12.35
-15.12
-17.65
-19.91
-21.95
-23.90
-25.97
-28.45
-31.51
-35.11
-38.85
-41.95
-43.43
-42.43
-38.50
-31.82
-23.19
-13.71
-4.53
3.53
10.12
15.23
19.12
22.07
24.28
25.87
26.92
27.45
27.52
27.19
26.56
25.72
24.78
23.86
23.04
22.37
21.83
21.36
20.89
20.30
19.51
18.44
17.08
15.47
13.69
11.90
10.23
8.77
7.53
6.38
5.14
3.58
1.59
-0.80
-3.39
-5.95
-8.28
-10.38
-12.44
-14.73
-17.53
-20.89
-24.69
-28.66
-32.46
-35.77
-38.27
-39.70
-39.89
-38.86
-36.81
-34.18
-31.47
-29.09
-27.24
-25.89
-24.77
-23.49
-21.62
-18.78
-14.77
-9.62
-3.57
2.92
9.31
15.15
20.12
24.13
27.22
29.51
31.07
32.00
32.38
32.37
32.13
31.82
31.49
31.07
30.46
29.58
28.44
27.20
26.05
25.13
24.39
23.69
22.80
21.62
20.17
18.61
17.12
15.82
14.70
13.71
12.76
11.82
10.84
9.83
8.77
7.70
6.68
5.76
4.96
4.19
3.32
2.21
0.82
-0.76
-2.35
-3.77
-4.94
-5.94
-6.96
-8.23
-9.87
-11.87
-14.02
-16.02
-17.61
-18.69
-19.38
-20.01
-20.95
-22.49
-24.71
-27.37
-29.98
-31.86
-32.28
-30.67
-26.82
-20.98
-13.83
-6.25
0.88
6.98
11.87
15.65
18.59
20.92
22.76
24.13
24.98
25.22
24.81
23.73
22.06
20.01
17.89
16.01
14.61
13.79
13.52
13.67
14.08
14.59
15.00
15.16
14.93
14.26
13.24
12.02
10.83
9.82
9.05
8.44
7.88
7.25
6.51
5.68
4.85
4.13
3.54
3.09
2.71
2.32
1.87
1.31
0.62
-0.19
-1.09
-2.01
-2.84
-3.51
-4.00
-4.35
-4.65
-5.00
-5.43
-5.98
-6.62
-7.32
-8.05
-8.74
-9.36
-9.93
-10.60
-11.60
-13.11
-15.05
-16.92
-17.92
-17.20
-14.28
-9.25
-2.81
4.04
10.28
14.98
17.35
16.69
12.52
4.84
-5.60
-17.38
-28.80
-38.49
-45.88
-51.11
-54.65
-56.59
-56.41
-53.14
-45.85
-34.31
-19.13
-1.65
16.55
34.07
49.91
63.48
74.52
83.08
89.48
94.37
98.52
102.64
107.03
111.35
114.66
115.75
113.61
107.91
99.20
88.78
78.28
69.22
62.58
58.70
57.33
57.74
58.88
59.56
58.71
55.70
50.43
43.29
34.82
25.30
14.56
2.25
-11.84
-27.26
-42.98
-57.68
-70.37
-80.77
-89.39
-97.04
-104.32
-111.20
-117.04
-120.96
-122.16
-120.18
-114.87
-106.25
-94.51
-80.02
-63.50
-46.09
-29.18
-14.09
-1.68
7.86
14.97
20.41
24.82
28.46
31.02
31.90
30.54
26.67
20.52
12.65
3.70
-5.80
-15.55
-25.50
-35.66
-46.13
-56.96
-68.11
-79.33
-90.00
-99.09
-105.30
-107.46
-104.91
-97.70
-86.48
-72.12
-55.31
-36.32
-15.11
8.49
34.62
63.47
95.34
130.26
167.39
204.46
237.81
263.24
277.50
279.44
270.37
253.22
231.29
207.05
182.02
157.36
134.83
117.13
107.39
107.98
119.28
139.08
163.09
186.11
203.47
212.27
211.95
204.09
191.50
177.15
163.11
150.08
137.60
124.60
110.04
93.18
73.65
51.53
27.35
2.33
-21.64
-42.44
-58.54
-69.74
-77.50
-84.44
-93.23
-105.42
-120.89
-138.26
-155.71
-171.76
-185.49
-196.22
-203.06
-204.89
-200.85
-190.91
-176.36
-159.63
-143.71
-131.24
-123.74
-121.21
-122.20
-124.35
-125.20
-123.08
-117.64
-109.96
-102.21
-97.00
-96.65
-102.82
-116.24
-136.70
-163.21
-194.20
-227.68
-261.56
-293.74
-322.21
-345.02
-360.49
-367.63
-366.58
-359.01
-347.66
-335.51
-324.38
-314.16
-302.90
-287.88
-267.15
-240.60
-210.21
-179.17
-150.44
-125.68
-104.78
-86.21
-67.67
-46.79
-21.82
7.69
40.34
72.68
99.89
117.34
122.41
115.78
101.38
84.87
71.48
64.40
64.33
70.27
80.76
94.59
110.77
127.96
144.09
156.63
163.61
164.48
160.53
154.32
148.68
145.46
145.07
146.74
149.29
151.72
153.38
153.49
150.71
143.27
129.73
110.05
86.19
61.85
41.12
27.01
20.25
19.41
21.75
24.59
26.25
26.25
24.88
22.77
20.66
19.41
19.97
22.94
27.90
33.02
35.37
32.02
21.57
5.09
-14.13
-31.87
-44.75
-51.53
-53.22
-52.21
-50.85
-50.47
-51.21
-52.71
-55.02
-59.06
-66.17
-76.97
-90.17
-102.12
-107.45
-100.76
-78.66
-41.05
8.53
63.94
118.06
164.46
198.52
217.86
222.20
212.91
192.46
163.86
130.34
95.11
61.17
31.10
6.68
-11.45
-23.95
-32.52
-39.21
-45.61
-52.34
-59.09
-65.05
-69.51
-72.20
-73.38
-73.62
-73.55
-73.61
-73.89
-74.13
-73.73
-72.04
-68.62
-63.48
-57.24
-50.95
-45.74
-42.39
-41.07
-41.25
-42.04
-42.54
-42.25
-41.16
-39.67
-38.36
-37.74
-38.06
-39.27
-41.02
-42.68
-43.47
-42.62
-39.60
-34.31
-27.16
-18.91
-10.41
-2.36
4.85
11.04
16.09
19.83
22.08
22.77
22.10
20.53
18.55
16.44
14.13
11.25
7.38
2.43
-3.26
-8.94
-13.80
-17.32
-19.54
-20.95
-22.33
-24.30
-27.11
-30.50
-33.68
-35.44
-34.32
-29.09
-19.31
-5.88
8.93
21.93
30.25
32.60
29.96
25.37
22.70
25.09
33.67
47.31
63.25
78.22
89.60
95.99
97.26
94.23
88.19
80.64
73.11
67.01
63.36
62.50
63.87
66.13
67.65
67.25
64.69
60.81
56.88
53.94
52.27
51.45
51.05
51.22
52.94
57.54
65.84
77.43
90.70
103.53
114.28
122.49
128.67
133.58
137.41
139.50
138.91
135.36
129.80
124.30
121.12
121.63
125.71
132.08
139.17
145.95
152.17
157.74
162.02
163.34
159.41
148.10
128.21
99.79
64.10
23.73
-17.15
-52.72
-76.05
-80.97
-64.67
-29.86
14.99
57.92
87.55
97.03
85.87
58.85
22.83
-16.57
-56.65
-97.01
-137.57
-176.84
-211.62
-238.42
-255.39
-263.50
-265.99
-266.82
-268.58
-271.32
-272.65
-268.74
-255.45
-229.33
-188.35
-132.93
-67.01
1.33
60.89
100.16
111.31
93.35
52.98
2.17
-46.25
-82.87
-103.87
-110.52
-106.70
-96.32
-81.99
-65.04
-46.57
-28.12
-11.73
0.93
9.15
13.57
15.82
17.74
20.46
23.99
27.28
28.78
27.28
22.51
15.33
7.49
1.13
-1.73
0.36
8.05
20.94
37.52
55.17
70.63
80.81
83.53
78.03
65.08
46.86
26.85
9.52
-0.36
0.96
14.68
38.32
65.97
90.01
103.71
103.61
90.50
68.69
44.16
22.42
7.13
-0.37
-0.74
4.08
11.69
19.85
26.98
32.23
35.06
34.75
30.40
21.63
9.47
-3.28
-12.95
-17.09
-16.31
-14.72
-18.06
-30.54
-52.30
-79.25
-105.18
-124.89
-136.13
-139.30
-135.57
-125.08
-106.69
-79.24
-43.34
-2.16
39.30
75.63
102.43
116.76
117.34
104.63
81.12
51.51
21.92
-1.94
-16.76
-22.98
-24.32
-25.80
-31.24
-41.44
-54.04
-64.96
-70.45
-68.95
-61.73
-52.03
-43.35
-37.77
-35.16
-33.60
-30.78
-25.43
-17.89
-9.65
-2.14
4.30
10.67
18.47
28.54
40.10
50.68
57.17
57.50
51.98
43.64
37.17
36.97
45.19
60.78
80.13
98.83
113.76
124.10
131.02
136.05
139.48
139.56
133.26
117.84
92.36
58.23
18.68
-22.58
-62.45
-98.90
-130.67
-156.82
-176.52
-189.33
-195.73
-197.41
-196.88
-196.62
-198.19
-201.59
-205.34
-207.12
-204.72
-196.81
-183.49
-166.26
-147.70
-130.82
-118.25
-111.72
-111.60
-116.90
-125.63
-135.15
-142.58
-145.01
-139.93
-125.55
-101.26
-67.99
-28.03
15.71
60.69
105.30
148.55
189.06
224.18
249.99
262.62
260.07
243.41
216.65
185.10
153.30
123.66
96.54
71.37
47.91
26.80
9.01
-4.99
-15.97
-25.66
-35.79
-47.14
-59.14
-70.07
-77.48
-78.98
-72.65
-57.65
-34.45
-5.14
26.75
56.85
80.98
96.19
101.53
98.18
88.82
76.83
65.25
56.13
50.35
47.63
46.88
46.64
45.52
42.55
37.38
30.22
21.61
12.32
3.16
-5.15
-12.13
-17.59
-21.79
-25.34
-28.99
-33.16
-37.73
-42.02
-45.12
-46.43
-45.97
-44.35
-42.35
-40.40
-38.39
-35.78
-32.07
-27.06
-20.98
-14.16
-6.90
0.59
8.00
14.67
19.60
21.70
20.26
15.32
7.85
-0.46
-7.54
-11.34
-10.18
-3.11
9.76
27.20
46.88
65.81
80.95
89.77
90.91
84.36
71.44
54.33
35.41
16.57
-1.13
-17.55
-32.98
-47.65
-61.24
-72.80
-81.05
-84.80
-83.54
-77.56
-67.94
-56.12
-43.58
-31.49
-20.53
-10.99
-2.91
3.78
9.16
13.39
16.71
19.47
21.94
24.21
26.10
27.26
27.39
26.44
24.67
22.60
20.75
19.47
18.83
18.66
18.67
18.59
18.23
17.56
16.60
15.44
14.16
12.86
11.67
10.59
9.51
8.06
5.87
2.73
-1.03
-4.46
-6.15
-4.77
0.43
9.14
19.97
30.81
39.26
43.22
41.12
32.45
17.97
0.08
-17.43
-30.16
-34.21
-27.31
-9.10
19.08
54.80
94.98
135.84
172.77
200.63
214.90
213.22
196.54
169.05
136.87
105.89
80.12
60.87
47.04
36.02
24.48
9.00
-13.49
-45.11
-85.81
-132.30
-177.98
-214.50
-234.50
-234.51
-216.41
-186.62
-153.36
-123.43
-100.16
-83.40
-71.31
-62.40
-56.76
-55.47
-59.12
-66.61
-75.01
-80.70
-80.80
-74.08
-60.94
-42.80
-21.44
1.47
24.26
45.15
62.24
74.05
80.13
81.43
80.05
78.31
77.76
78.42
79.15
78.53
76.01
72.56
70.22
71.04
75.83
83.58
91.81
97.63
99.09
95.99
89.94
83.92
80.99
83.26
90.85
101.55
110.99
113.52
103.64
77.45
34.51
-21.56
-83.14
-139.93
-181.50
-200.25
-193.99
-167.05
-129.34
-92.58
-67.17
-58.73
-66.91
-86.68
-110.97
-133.56
-150.39
-159.82
-159.53
-147.74
-123.14
-86.35
-41.32
4.67
43.32
68.65
78.65
79.72
80.01
86.56
101.63
121.30
137.25
140.73
126.38
91.87
43.28
-14.35
-76.64
-140.35
-202.08
-256.79
-297.53
-317.19
-314.05
-285.62
-237.57
-178.39
-115.83
-54.06
7.12
70.55
154.75
235.62
310.39
369.71
404.67
410.54
388.78
346.50
293.64
239.39
186.86
140.81
99.80
61.15
22.21
-19.20
-64.72
-115.11
-169.49
-226.49
-278.18
-318.41
-342.72
-350.21
-344.22
-330.92
-316.67
-305.24
-297.63
-288.37
-271.84
-243.20
-200.58
-146.02
-85.17
-26.03
23.06
55.07
68.36
65.36
52.46
37.55
26.95
23.28
25.53
31.04
38.23
49.05
67.48
96.82
136.27
179.37
215.49
233.73
227.24
195.88
146.05
88.13
32.79
-11.95
-42.15
-57.64
-60.74
-54.59
-41.90
-24.33
-2.56
23.08
51.86
81.77
109.48
130.96
142.85
143.83
135.23
120.42
103.37
87.09
72.65
59.55
46.81
34.11
22.23
12.55
5.95
2.00
-1.11
-5.85
-14.08
-25.86
-39.08
-50.02
-54.81
-51.30
-40.50
-26.61
-15.42
-11.24
-14.22
-19.59
-19.85
-8.83
14.63
45.58
75.49
96.74
106.52
107.52
105.31
103.96
102.75
96.43
78.56
45.82
0.22
-51.74
-102.31
-145.71
-179.29
-202.50
-215.03
-215.57
-202.48
-175.46
-136.81
-91.13
-43.55
2.53
46.30
88.65
130.00
168.25
198.36
213.75
208.79
180.93
131.66
66.07
-8.48
-84.09
-153.65
-211.84
-255.51
-283.73
-297.37
-298.33
-288.84
-270.92
-246.07
-215.38
-179.82
-140.64
-99.71
-59.55
-23.22
6.49
28.21
42.83
53.53
64.50
78.58
95.23
110.34
118.11
114.39
99.31
77.67
56.94
43.79
41.20
47.63
58.45
68.60
74.85
76.81
76.17
75.11
74.96
75.57
75.73
74.13
70.26
64.62
58.36
52.45
46.92
40.78
32.63
21.75
8.88
-3.76
-13.27
-17.30
-15.12
-7.91
1.73
10.89
17.48
20.84
21.70
21.53
21.79
23.29
26.00
29.24
32.15
34.07
34.78
34.54
33.85
33.24
33.11
33.54
34.39
35.41
36.36
37.07
37.50
37.67
37.61
37.37
36.96
36.40
35.73
34.96
34.08
33.02
31.73
30.11
28.13
25.78
23.08
20.17
17.32
14.93
13.48
13.39
14.79
17.40
20.54
23.31
24.79
24.29
21.41
16.09
8.56
-0.77
-11.28
-22.13
-32.41
-41.31
-48.24
-53.05
-56.01
-57.82
-59.37
-61.59
-65.15
-70.34
-76.94
-84.30
-91.46
-97.43
-101.39
-102.79
-101.40
-97.29
-90.78
-82.40
-72.90
-63.00
-53.21
-43.65
-34.06
-24.02
-13.29
-1.97
9.47
20.43
30.67
40.50
50.70
62.04
74.55
87.04
97.02
101.34
97.33
84.04
62.92
37.71
13.24
-6.16
-18.12
-22.93
-23.08
-22.03
-22.76
-26.73
-33.71
-42.34
-51.01
-58.57
-64.52
-68.78
-71.27
-71.67
-69.62
-65.05
-58.56
-51.48
-45.49
-42.00
-41.56
-43.57
-46.49
-48.30
-47.29
-42.59
-34.41
-23.84
-12.38
-1.40
8.25
16.31
22.96
28.54
33.31
37.42
40.95
44.01
46.78
49.41
51.97
54.35
56.38
57.87
58.77
59.17
59.28
59.32
59.42
59.62
59.92
60.24
60.50
60.58
60.32
59.57
58.21
56.24
53.77
51.01
48.18
45.38
42.64
39.89
37.08
34.18
31.21
28.20
25.24
22.38
19.70
17.22
14.89
12.58
10.08
7.20
3.87
0.20
-3.56
-7.08
-10.18
-12.86
-15.30
-17.80
-20.60
-23.84
-27.52
-31.46
-35.31
-38.57
-40.63
-40.94
-39.15
-35.30
-29.79
-23.27
-16.42
-9.70
-3.33
2.65
8.22
13.26
17.58
21.02
23.54
25.32
26.65
27.78
28.82
29.68
30.16
30.15
29.67
28.91
28.17
27.65
27.44
27.44
27.45
27.30
26.83
26.02
24.84
23.33
21.53
19.54
17.51
15.61
13.99
12.68
11.57
10.48
9.21
7.68
5.93
4.09
2.30
0.66
-0.86
-2.36
-3.97
-5.77
-7.76
-9.88
-12.03
-14.12
-16.12
-18.03
-19.89
-21.75
-23.69
-25.81
-28.20
-30.91
-33.86
-36.74
-39.04
-40.11
-39.42
-36.75
-32.27
-26.49
-20.06
-13.59
-7.47
-1.87
3.22
7.83
11.95
15.48
18.37
20.58
22.18
23.28
24.00
24.40
24.46
24.16
23.49
22.60
21.68
20.99
20.66
20.69
20.88
20.99
20.79
20.17
19.16
17.90
16.53
15.20
13.97
12.85
11.79
10.69
9.52
8.24
6.94
5.68
4.52
3.45
2.42
1.36
0.27
-0.85
-1.96
-3.05
-4.20
-5.44
-6.84
-8.36
-9.93
-11.46
-12.88
-14.19
-15.47
-16.79
-18.24
-19.88
-21.77
-23.95
-26.42
-29.00
-31.39
-33.10
-33.65
-32.65
-29.99
-25.91
-20.89
-15.52
-10.27
-5.41
-0.97
3.11
6.88
10.29
13.19
15.45
16.95
17.78
18.05
17.96
17.67
17.23
16.67
15.99
15.24
14.53
13.98
13.68
13.66
13.84
14.06
14.16
13.96
13.38
12.39
11.11
9.70
8.35
7.22
6.35
5.68
5.09
4.51
3.87
3.17
2.43
1.63
0.74
-0.26
-1.38
-2.56
-3.70
-4.72
-5.56
-6.23
-6.76
-7.23
-7.75
-8.46
-9.47
-10.82
-12.44
-14.15
-15.70
-16.96
-17.93
-18.81
-19.88
-21.39
-23.40
-25.77
-28.19
-30.33
-31.85
-32.48
-32.03
-30.37
-27.51
-23.57
-18.89
-13.87
-8.89
-4.21
0.07
3.96
7.46
10.54
13.13
15.15
16.61
17.58
18.16
18.44
18.50
18.36
18.05
17.58
16.98
16.29
15.58
14.90
14.30
13.83
13.44
13.08
12.66
12.16
11.60
11.03
10.46
9.89
9.23
8.42
7.46
6.41
5.41
4.58
4.02
3.70
3.54
3.40
3.19
2.78
2.09
1.12
-0.11
-1.50
-2.89
-4.15
-5.14
-5.85
-6.36
-6.84
-7.49
-8.45
-9.78
-11.40
-13.14
-14.82
-16.25
-17.36
-18.18
-18.83
-19.48
-20.31
-21.44
-22.90
-24.58
-26.19
-27.33
-27.58
-26.60
-24.36
-21.01
-16.92
-12.47
-8.01
-3.79
0.01
3.31
6.07
8.35
10.27
11.94
13.47
14.83
15.94
16.68
16.99
16.94
16.61
16.12
15.56
15.01
14.47
13.97
13.51
13.11
12.73
12.35
11.90
11.30
10.54
9.65
8.72
7.87
7.13
6.52
5.96
5.35
4.66
3.94
3.27
2.71
2.27
1.84
1.30
0.56
-0.36
-1.36
-2.32
-3.14
-3.82
-4.46
-5.23
-6.23
-7.50
-8.93
-10.34
-11.57
-12.57
-13.39
-14.15
-15.01
-16.03
-17.25
-18.63
-20.17
-21.84
-23.57
-25.10
-26.04
-25.98
-24.63
-22.02
-18.46
-14.43
-10.40
-6.63
-3.17
0.06
3.11
5.93
8.38
10.32
11.71
12.64
13.28
13.78
14.18
14.47
14.59
14.50
14.22
13.81
13.34
12.89
12.51
12.20
11.94
11.67
11.34
10.93
10.46
9.97
9.50
9.06
8.61
8.08
7.43
6.67
5.84
5.02
4.24
3.52
2.84
2.15
1.43
0.70
-0.05
-0.79
-1.49
-2.14
-2.72
-3.20
-3.61
-4.01
-4.47
-5.09
-5.91
-6.93
-8.10
-9.35
-10.61
-11.82
-12.91
-13.85
-14.65
-15.38
-16.17
-17.17
-18.47
-20.03
-21.66
-23.03
-23.76
-23.54
-22.25
-19.91
-16.76
-13.11
-9.30
-5.63
-2.32
0.52
2.87
4.81
6.48
8.01
9.44
10.68
11.63
12.14
12.20
11.87
11.33
10.75
10.26
9.92
9.73
9.68
9.73
9.86
10.02
10.13
10.09
9.84
9.42
8.88
8.31
7.77
7.25
6.72
6.15
5.53
4.88
4.23
3.62
3.05
2.53
2.05
1.66
1.36
1.15
0.93
0.62
0.15
-0.53
-1.37
-2.30
-3.24
-4.10
-4.86
-5.53
-6.20
-7.00
-8.03
-9.33
-10.86
-12.44
-13.91
-15.15
-16.16
-17.07
-18.05
-19.21
-20.59
-22.13
-23.71
-25.20
-26.44
-27.21
-27.26
-26.34
-24.36
-21.40
-17.79
-13.92
-10.18
-6.80
-3.83
-1.23
1.13
3.34
5.48
7.53
9.46
11.15
12.48
13.40
13.90
14.13
14.27
14.43
14.64
14.79
14.74
14.42
13.88
13.29
12.83
12.60
12.55
12.55
12.43
12.08
11.50
10.76
9.92
9.06
8.18
7.25
6.31
5.37
4.50
3.75
3.18
2.78
2.50
2.23
1.88
1.37
0.70
-0.09
-0.89
-1.66
-2.39
-3.12
-3.90
-4.70
-5.45
-6.11
-6.68
-7.24
-7.92
-8.79
-9.83
-10.95
-12.06
-13.08
-14.04
-15.02
-16.08
-17.26
-18.56
-20.00
-21.62
-23.44
-25.46
-27.49
-29.23
-30.25
-30.14
-28.66
-25.82
-21.92
-17.36
-12.62
-8.06
-3.92
-0.27
2.90
5.70
8.19
10.44
12.43
14.08
15.34
16.16
16.61
16.80
16.84
16.79
16.66
16.41
16.06
15.67
15.34
15.18
15.16
15.20
15.12
14.82
14.29
13.63
12.96
12.41
11.99
11.67
11.38
11.03
10.54
9.88
9.03
8.09
7.18
6.45
6.00
5.81
5.72
5.57
5.19
4.56
3.70
2.70
1.65
0.59
-0.44
-1.44
-2.40
-3.32
-4.19
-5.00
-5.76
-6.48
-7.20
-8.02
-9.04
-10.32
-11.81
-13.37
-14.81
-16.03
-17.07
-18.11
-19.40
-21.12
-23.29
-25.80
-28.33
-30.53
-31.96
-32.24
-31.13
-28.55
-24.69
-19.96
-14.89
-9.95
-5.48
-1.60
1.76
4.73
7.42
9.88
12.09
13.99
15.55
16.75
17.58
18.09
18.33
18.38
18.32
18.20
18.04
17.83
17.57
17.28
17.02
16.79
16.58
16.31
15.91
15.35
14.67
13.97
13.36
12.84
12.34
11.73
10.92
9.89
8.74
7.61
6.66
5.94
5.46
5.13
4.84
4.52
4.12
3.70
3.27
2.83
2.31
1.56
0.47
-0.93
-2.51
-3.96
-5.03
-5.59
-5.73
-5.69
-5.78
-6.22
-7.04
-8.14
-9.34
-10.51
-11.64
-12.78
-14.06
-15.60
-17.44
-19.53
-21.74
-23.93
-25.84
-27.23
-27.82
-27.36
-25.69
-22.76
-18.76
-14.05
-9.12
-4.51
-0.60
2.46
4.79
6.65
8.33
9.95
11.46
12.72
13.58
14.03
14.16
14.10
13.92
13.62
13.17
12.61
12.03
11.58
11.36
11.36
11.47
11.48
11.30
10.89
10.40
9.97
9.75
9.74
9.86
9.95
9.87
9.58
9.13
8.63
8.16
7.70
7.19
6.50
5.58
4.48
3.37
2.47
1.94
1.86
2.17
2.72
3.33
3.78
3.94
3.76
3.26
2.52
1.62
0.57
-0.60
-1.92
-3.31
-4.69
-5.89
-6.81
-7.46
-7.95
-8.53
-9.40
-10.75
-12.58
-14.75
-17.03
-19.09
-20.60
-21.22
-20.73
-19.04
-16.27
-12.69
-8.75
-4.90
-1.50
1.27
3.43
5.13
6.56
7.83
8.95
9.86
10.46
10.74
10.75
10.61
10.48
10.47
10.60
10.83
11.09
11.30
11.45
11.52
11.51
11.39
11.10
10.63
10.02
9.38
8.85
8.51
8.35
8.22
7.91
7.26
6.25
5.01
3.79
2.81
2.18
1.88
1.76
1.64
1.37
0.85
0.07
-0.87
-1.83
-2.68
-3.33
-3.84
-4.35
-5.06
-6.05
-7.28
-8.56
-9.68
-10.54
-11.20
-11.83
-12.61
-13.66
-14.99
-16.57
-18.29
-20.01
-21.49
-22.41
-22.42
-21.29
-19.01
-15.76
-11.93
-7.92
-4.06
-0.59
2.38
4.83
6.78
8.30
9.42
10.18
10.57
10.60
10.31
9.83
9.31
8.91
8.68
8.60
8.59
8.57
8.55
8.58
8.73
8.98
9.21
9.28
9.05
8.48
7.68
6.84
6.15
5.68
5.42
5.24
5.00
4.63
4.12
3.53
2.92
2.29
1.56
0.65
-0.51
-1.86
-3.27
-4.54
-5.51
-6.18
-6.69
-7.30
-8.23
-9.60
-11.30
-13.09
-14.72
-16.00
-16.98
-17.87
-18.96
-20.49
-22.52
-24.86
-27.08
-28.64
-29.03
-27.98
-25.50
-21.87
-17.57
-13.05
-8.70
-4.72
-1.21
1.81
4.36
6.44
8.07
9.22
9.81
9.76
9.04
7.78
6.27
4.95
4.24
4.41
5.47
7.21
9.33
11.47
13.35
14.82
15.77
16.20
16.15
15.70
14.98
14.15
13.35
12.72
12.31
12.09
11.92
11.63
11.07
10.16
9.00
7.73
6.54
5.55
4.76
4.08
3.37
2.52
1.46
0.26
-1.01
-2.20
-3.24
-4.10
-4.90
-5.79
-6.92
-8.37
-10.08
-11.92
-13.75
-15.46
-17.02
-18.44
-19.80
-21.17
-22.66
-24.37
-26.38
-28.59
-30.70
-32.24
-32.68
-31.64
-29.04
-25.12
-20.37
-15.34
-10.46
-6.00
-2.04
1.46
4.56
7.32
9.80
12.00
13.94
15.61
16.99
18.06
18.79
19.22
19.43
19.52
19.61
19.76
20.01
20.30
20.54
20.64
20.53
20.16
19.56
18.77
17.84
16.85
15.83
14.80
13.79
12.81
11.87
10.99
10.20
9.53
8.98
8.53
8.11
7.64
7.08
6.42
5.70
4.91
4.04
3.02
1.81
0.42
-1.04
-2.41
-3.57
-4.45
-5.13
-5.78
-6.57
-7.63
-8.95
-10.42
-11.85
-13.08
-14.04
-14.80
-15.57
-16.63
-18.19
-20.27
-22.71
-25.21
-27.46
-29.16
-30.12
-30.14
-29.09
-26.90
-23.64
-19.56
-15.08
-10.65
-6.55
-2.86
0.54
3.86
7.19
10.44
13.37
15.75
17.45
18.53
19.14
19.46
19.61
19.55
19.24
18.67
17.94
17.22
16.70
16.41
16.28
16.18
15.98
15.64
15.24
14.84
14.48
14.10
13.58
12.86
12.02
11.22
10.66
10.42
10.40
10.34
9.97
9.15
7.90
6.44
5.00
3.77
2.79
2.01
1.33
0.65
-0.08
-0.87
-1.72
-2.61
-3.48
-4.32
-5.10
-5.85
-6.67
-7.64
-8.80
-10.09
-11.36
-12.46
-13.33
-14.03
-14.75
-15.69
-17.02
-18.74
-20.74
-22.77
-24.55
-25.76
-26.10
-25.33
-23.34
-20.21
-16.25
-11.91
-7.67
-3.90
-0.71
1.99
4.41
6.77
9.16
11.56
13.85
15.92
17.66
18.97
19.82
20.20
20.17
19.85
19.38
18.92
18.64
18.59
18.77
19.06
19.28
19.17
18.52
17.22
15.33
13.07
10.78
8.81
7.36
6.46
5.99
5.69
5.36
4.86
4.22
3.54
2.98
2.61
2.42
2.29
2.07
1.64
1.01
0.22
-0.59
-1.36
-2.05
-2.74
-3.50
-4.41
-5.45
-6.50
-7.42
-8.10
-8.53
-8.82
-9.16
-9.69
-10.47
-11.46
-12.57
-13.75
-15.04
-16.53
-18.29
-20.21
-22.03
-23.34
-23.76
-23.07
-21.26
-18.52
-15.19
-11.66
-8.23
-5.08
-2.29
0.17
2.34
4.27
6.00
7.54
8.90
10.02
10.89
11.45
11.70
11.66
11.40
11.01
10.63
10.39
10.40
10.69
11.20
11.79
12.25
12.38
12.08
11.37
10.42
9.44
8.62
8.04
7.63
7.31
6.97
6.62
6.32
6.20
6.32
6.67
7.10
7.44
7.52
7.24
6.56
5.51
4.11
2.39
0.41
-1.71
-3.86
-5.87
-7.65
-9.18
-10.52
-11.75
-12.99
-14.26
-15.58
-16.99
-18.54
-20.32
-22.40
-24.81
-27.44
-30.12
-32.59
-34.53
-35.63
-35.64
-34.43
-32.01
-28.60
-24.54
-20.26
-16.16
-12.54
-9.57
-7.21
-5.21
-3.13
-0.44
3.21
7.79
12.79
17.40
20.78
22.37
22.05
20.03
16.67
12.39
7.66
3.16
-0.18
-1.40
0.13
4.41
10.61
17.36
23.12
26.65
27.35
25.28
21.10
15.83
10.61
6.47
4.11
3.78
5.28
8.08
11.49
14.85
17.65
19.56
20.40
20.14
18.87
16.80
14.24
11.50
8.87
6.48
4.35
2.45
0.70
-0.92
-2.39
-3.69
-4.84
-5.91
-7.03
-8.37
-10.06
-12.21
-14.83
-17.79
-20.81
-23.55
-25.67
-26.97
-27.49
-27.50
-27.43
-27.66
-28.38
-29.50
-30.61
-31.18
-30.72
-28.96
-25.95
-21.99
-17.54
-12.99
-8.59
-4.42
-0.45
3.35
6.96
10.28
13.20
15.63
17.56
19.05
20.18
21.05
21.75
22.34
22.84
23.29
23.70
24.05
24.32
24.45
24.36
23.99
23.30
22.33
21.20
20.06
19.03
18.18
17.44
16.69
15.77
14.58
13.11
11.46
9.73
8.05
6.48
5.06
3.82
2.79
1.97
1.33
0.82
0.36
-0.08
-0.50
-0.89
-1.29
-1.76
-2.44
-3.43
-4.74
-6.26
-7.81
-9.21
-10.30
-11.05
-11.48
-11.66
-11.67
-11.60
-11.59
-11.74
-12.16
-12.91
-13.97
-15.29
-16.76
-18.29
-19.85
-21.44
-23.10
-24.82
-26.54
-28.07
-29.17
-29.58
-29.09
-27.57
-25.01
-21.57
-17.51
-13.19
-8.95
-5.10
-1.77
0.98
3.27
5.23
6.96
8.56
10.01
11.27
12.27
12.93
13.25
13.30
13.25
13.27
13.46
13.85
14.33
14.75
15.02
15.13
15.15
15.20
15.31
15.44
15.45
15.21
14.67
13.88
12.95
12.02
11.18
10.50
10.01
9.70
9.59
9.63
9.79
9.95
9.99
9.82
9.36
8.61
7.59
6.37
5.04
3.70
2.41
1.18
-0.02
-1.24
-2.50
-3.78
-5.00
-6.14
-7.19
-8.20
-9.21
-10.21
-11.13
-11.91
-12.54
-13.11
-13.74
-14.54
-15.55
-16.73
-18.02
-19.36
-20.78
-22.31
-23.97
-25.67
-27.22
-28.33
-28.68
-28.01
-26.23
-23.41
-19.80
-15.78
-11.73
-7.97
-4.66
-1.80
0.72
3.06
5.35
7.65
9.95
12.13
14.11
15.77
17.04
17.89
18.33
18.41
18.22
17.84
17.40
17.01
16.70
16.49
16.32
16.09
15.70
15.09
14.25
13.22
12.07
10.92
9.85
8.99
8.38
8.00
7.74
7.43
6.91
6.13
5.18
4.21
3.36
2.64
1.98
1.24
0.30
-0.80
-1.90
-2.79
-3.32
-3.50
-3.44
-3.35
-3.39
-3.63
-4.05
-4.55
-5.04
-5.48
-5.93
-6.46
-7.11
-7.92
-8.84
-9.85
-10.95
-12.15
-13.49
-14.99
-16.67
-18.53
-20.61
-22.92
-25.40
-27.89
-30.04
-31.39
-31.49
-30.05
-27.07
-22.90
-18.08
-13.20
-8.72
-4.87
-1.67
0.99
3.18
4.92
6.16
6.91
7.29
7.52
7.86
8.52
9.55
10.83
12.18
13.35
14.25
14.83
15.08
15.04
14.70
14.07
13.16
12.09
11.02
10.13
9.56
9.34
9.39
9.59
9.81
9.99
10.13
10.26
10.39
10.50
10.52
10.40
10.09
9.58
8.87
8.01
7.06
6.14
5.35
4.80
4.55
4.55
4.69
4.86
4.93
4.80
4.40
3.70
2.70
1.50
0.20
-1.07
-2.24
-3.27
-4.19
-5.04
-5.87
-6.71
-7.61
-8.65
-9.89
-11.39
-13.12
-15.04
-17.11
-19.30
-21.62
-23.98
-26.18
-27.90
-28.73
-28.31
-26.48
-23.31
-19.12
-14.45
-9.82
-5.66
-2.21
0.55
2.80
4.76
6.60
8.35
9.90
11.14
12.00
12.53
12.81
12.99
13.11
13.19
13.22
13.19
13.12
13.08
13.08
13.12
13.17
13.14
12.98
12.62
12.02
11.20
10.21
9.19
8.24
7.45
6.81
6.21
5.55
4.74
3.85
3.02
2.36
1.96
1.72
1.47
1.00
0.21
-0.86
-2.05
-3.18
-4.12
-4.88
-5.62
-6.53
-7.72
-9.17
-10.73
-12.19
-13.45
-14.51
-15.49
-16.54
-17.81
-19.37
-21.20
-23.22
-25.22
-26.84
-27.64
-27.22
-25.33
-22.06
-17.78
-13.06
-8.44
-4.26
-0.64
2.45
5.10
7.36
9.26
10.81
12.10
13.23
14.28
15.28
16.14
16.74
16.98
16.89
16.58
16.22
15.95
15.80
15.74
15.67
15.57
15.43
15.29
15.12
14.86
14.41
13.70
12.78
11.74
10.74
9.87
9.17
8.57
8.01
7.40
6.71
5.95
5.12
4.29
3.53
2.93
2.51
2.25
1.98
1.55
0.78
-0.32
-1.63
-2.89
-3.90
-4.57
-4.93
-5.15
-5.38
-5.75
-6.35
-7.23
-8.42
-9.91
-11.64
-13.47
-15.26
-16.91
-18.45
-20.01
-21.78
-23.90
-26.35
-28.89
-31.12
-32.51
-32.65
-31.29
-28.52
-24.67
-20.23
-15.69
-11.40
-7.52
-4.06
-0.97
1.82
4.38
6.76
9.03
11.21
13.27
15.11
16.56
17.52
17.98
18.05
17.93
17.80
17.75
17.79
17.88
17.96
17.96
17.84
17.57
17.13
16.52
15.77
14.93
14.08
13.23
12.38
11.52
10.62
9.67
8.72
7.79
6.92
6.13
5.47
4.94
4.59
4.41
4.35
4.38
4.41
4.39
4.26
3.99
3.52
2.85
2.00
1.02
0.06
-0.73
-1.21
-1.33
-1.14
-0.83
-0.60
-0.69
-1.27
-2.36
-3.90
-5.76
-7.78
-9.82
-11.76
-13.51
-14.97
-16.10
-16.94
-17.68
-18.55
-19.70
-21.12
-22.47
-23.24
-22.96
-21.38
-18.67
-15.35
-12.04
-9.20
-7.02
-5.38
-4.01
-2.63
-1.11
0.61
2.49
4.51
6.66
8.92
11.16
13.21
14.86
15.94
16.40
16.24
15.52
14.26
12.49
10.26
7.70
5.10
2.80
1.16
0.36
0.41
1.11
2.19
3.33
4.35
5.15
5.73
6.13
6.40
6.60
6.76
6.89
6.99
7.04
6.97
6.70
6.16
5.30
4.16
2.82
1.43
0.10
-1.05
-1.98
-2.64
-3.02
-3.11
-2.97
-2.73
-2.58
-2.75
-3.33
-4.33
-5.63
-7.04
-8.44
-9.79
-11.11
-12.45
-13.84
-15.30
-16.83
-18.44
-20.15
-21.89
-23.48
-24.59
-24.87
-24.05
-22.10
-19.28
-16.01
-12.76
-9.86
-7.42
-5.36
-3.52
-1.73
0.07
1.91
3.79
5.73
7.76
9.87
11.98
13.90
15.43
16.37
16.70
16.54
16.12
15.73
15.61
15.83
16.31
16.84
17.18
17.15
16.70
15.91
14.99
14.13
13.44
12.93
12.54
12.18
11.78
11.30
10.73
10.05
9.18
8.10
6.81
5.44
4.19
3.20
2.54
2.08
1.58
0.84
-0.23
-1.55
-2.87
-3.95
-4.61
-4.86
-4.83
-4.75
-4.81
-5.25
-6.25
-7.97
-10.51
-13.76
-17.44
-21.07
-24.12
-26.13
-26.89
-26.49
-25.31
-23.87
-22.67
-21.99
-21.74
-21.56
-20.91
-19.40
-16.88
-13.55
-9.81
-6.11
-2.70
0.40
3.32
6.19
8.98
11.52
13.55
14.93
15.68
16.00
16.17
16.43
16.87
17.42
17.96
18.37
18.63
18.80
19.00
19.27
19.52
19.54
19.04
17.81
15.77
13.13
10.26
7.57
5.39
3.90
3.12
2.96
3.32
4.06
4.96
5.72
6.03
5.68
4.64
3.11
1.41
-0.16
-1.41
-2.32
-2.96
-3.45
-3.88
-4.28
-4.65
-5.02
-5.38
-5.78
-6.26
-6.88
-7.73
-8.86
-10.27
-11.88
-13.53
-15.05
-16.29
-17.25
-18.03
-18.84
-19.89
-21.31
-23.04
-24.82
-26.30
-27.05
-26.82
-25.48
-23.12
-19.97
-16.27
-12.26
-8.15
-4.06
-0.10
3.61
6.97
9.87
12.26
14.14
15.57
16.64
17.47
18.17
18.80
19.38
19.83
20.06
19.98
19.56
18.89
18.08
17.29
16.59
15.96
15.32
14.56
13.65
12.63
11.61
10.68
9.90
9.25
8.67
8.07
7.37
6.49
5.45
4.28
3.09
1.98
1.02
0.17
-0.69
-1.66
-2.75
-3.85
-4.75
-5.26
-5.33
-5.11
-4.88
-4.93
-5.40
-6.24
-7.26
-8.22
-9.02
-9.65
-10.18
-10.66
-11.06
-11.30
-11.33
-11.20
-11.08
-11.16
-11.63
-12.58
-13.95
-15.59
-17.24
-18.56
-19.20
-18.86
-17.35
-14.72
-11.22
-7.20
-3.09
0.79
4.19
6.96
9.00
10.22
10.59
10.18
9.26
8.20
7.41
7.26
7.92
9.30
11.10
12.87
14.19
14.73
14.32
12.99
10.95
8.54
6.13
4.06
2.59
1.80
1.61
1.85
2.25
2.54
2.51
2.04
1.14
-0.07
-1.40
-2.66
-3.71
-4.50
-5.07
-5.50
-5.85
-6.14
-6.36
-6.50
-6.57
-6.58
-6.59
-6.66
-6.82
-7.06
-7.39
-7.78
-8.22
-8.73
-9.28
-9.90
-10.55
-11.22
-11.94
-12.76
-13.78
-15.07
-16.63
-18.32
-19.86
-20.91
-21.18
-20.49
-18.87
-16.49
-13.57
-10.32
-6.91
-3.45
-0.09
3.03
5.75
7.96
9.64
10.83
11.61
12.10
12.37
12.52
12.61
12.68
12.68
12.54
12.19
11.68
11.15
10.80
10.79
11.13
11.69
12.23
12.59
12.70
12.55
12.23
11.72
11.03
10.13
9.05
7.92
6.89
6.07
5.50
5.13
4.88
4.66
4.42
4.17
3.90
3.62
3.30
2.90
2.40
1.79
1.10
0.36
-0.40
-1.16
-1.92
-2.72
-3.58
-4.52
-5.57
-6.68
-7.82
-8.92
-9.95
-10.93
-11.91
-13.00
-14.31
-15.91
-17.80
-19.89
-21.97
-23.75
-24.92
-25.23
-24.54
-22.92
-20.55
-17.70
-14.66
-11.64
-8.82
-6.31
-4.14
-2.26
-0.52
1.28
3.25
5.34
7.32
8.83
9.63
9.71
9.33
8.99
9.12
9.93
11.37
13.09
14.69
15.76
16.05
15.43
13.89
11.68
9.41
8.10
8.89
12.49
18.68
26.09
32.50
35.68
34.24
28.20
18.87
8.25
-1.75
-9.86
-15.51
-18.66
-19.44
-18.08
-14.96
-10.73
-6.29
-2.54
-0.13
0.78
0.58
0.02
-0.08
0.83
2.71
4.92
6.34
5.83
2.74
-2.74
-9.47
-15.70
-19.72
-20.50
-18.05
-13.35
-7.90
-3.17
-0.08
1.07
0.56
-1.10
-3.35
-5.75
-8.06
-10.16
-11.98
-13.46
-14.47
-14.79
-14.24
-12.74
-10.37
-7.41
-4.22
-1.06
1.96
4.93
8.01
11.20
14.30
16.81
18.10
17.63
15.23
11.15
6.15
1.25
-2.52
-4.37
-3.95
-1.40
2.68
7.44
11.92
15.25
16.81
16.29
13.79
9.79
5.05
0.44
-3.27
-5.53
-6.19
-5.36
-3.38
-0.70
2.22
4.93
6.99
8.03
7.83
6.45
4.29
2.03
0.35
-0.29
0.18
1.35
2.56
3.12
2.58
0.90
-1.61
-4.33
-6.63
-8.03
-8.44
-8.26
-8.42
-10.15
-14.66
-22.64
-33.80
-46.63
-58.58
-66.73
-68.62
-63.10
-50.63
-33.15
-13.37
6.05
23.14
36.82
46.80
53.24
56.45
56.84
54.94
51.42
47.10
42.79
39.04
36.09
33.78
31.71
29.50
26.93
24.02
21.05
18.35
16.16
14.49
13.16
11.86
10.37
8.65
6.80
5.14
4.03
3.65
3.97
4.79
5.83
7.15
8.91
11.32
14.49
18.20
21.78
24.28
24.73
22.42
17.47
10.26
1.45
-8.13
-17.58
-26.20
-33.45
-39.27
-44.04
-47.92
-51.47
-55.25
-59.35
-63.43
-66.95
-69.31
-70.37
-70.52
-70.07
-70.33
-73.35
-81.20
-92.82
-105.18
-113.20
-111.52
-101.09
-81.94
-55.36
-24.09
9.52
41.79
69.45
90.57
104.47
111.35
112.59
109.44
103.09
94.83
85.91
77.34
69.74
63.06
56.77
50.73
44.69
38.56
32.58
27.15
22.68
19.38
17.08
15.20
13.43
11.40
8.97
6.33
3.82
1.84
0.59
-0.03
-0.39
-0.68
-1.13
-1.84
-2.78
-3.90
-5.13
-6.38
-7.59
-8.67
-9.51
-10.06
-10.37
-10.59
-10.90
-11.37
-11.98
-12.60
-13.07
-13.32
-13.36
-13.30
-13.23
-13.18
-13.11
-12.95
-12.70
-12.49
-12.56
-13.14
-14.35
-16.10
-18.10
-20.02
-21.58
-22.69
-23.35
-23.62
-23.48
-22.84
-21.57
-19.61
-17.08
-14.17
-11.13
-8.10
-5.15
-2.28
0.52
3.24
5.82
8.21
10.35
12.20
13.74
14.95
15.80
16.27
16.35
16.05
15.37
14.39
13.26
12.19
11.40
10.99
10.97
11.18
11.46
11.70
11.86
11.97
12.04
11.98
11.64
10.90
9.69
8.13
6.42
4.80
3.44
2.39
1.63
1.14
0.90
0.89
1.09
1.42
1.74
1.91
1.81
1.42
0.74
-0.19
-1.35
-2.68
-4.10
-5.49
-6.68
-7.58
-8.14
-8.44
-8.65
-8.92
-9.40
-10.11
-10.97
-11.77
-12.25
-12.22
-11.73
-11.09
-10.76
-11.06
-11.80
-12.11
-10.63
-6.02
2.38
14.05
27.23
39.43
48.21
51.94
50.20
43.76
34.16
23.25
12.67
3.65
-3.19
-7.95
-11.50
-15.35
-21.19
-30.19
-42.27
-55.69
-67.47
-74.44
-74.47
-67.35
-54.73
-39.16
-22.71
-6.09
11.34
30.42
50.91
70.71
86.30
94.12
92.27
81.53
65.05
47.04
30.98
18.28
8.08
-2.00
-14.38
-30.17
-48.57
-66.98
-81.90
-90.09
-89.48
-79.80
-62.47
-40.18
-16.04
6.99
26.58
41.09
49.62
51.87
48.19
39.53
27.31
12.92
-2.66
-18.99
-35.81
-52.25
-66.37
-75.22
-75.87
-66.71
-48.53
-24.53
0.76
22.95
39.09
47.91
49.33
43.65
31.18
12.68
-9.71
-31.93
-48.60
-54.73
-47.88
-29.45
-4.39
20.70
40.25
51.71
55.84
55.31
52.47
47.65
39.06
24.14
1.73
-26.30
-54.80
-76.76
-85.83
-78.76
-56.77
-25.08
9.11
39.24
61.43
75.08
81.82
83.86
82.37
76.88
65.75
47.45
21.68
-9.62
-42.19
-70.00
-86.80
-88.07
-72.90
-44.73
-10.44
21.91
45.95
58.85
61.55
57.28
49.53
40.24
29.40
15.81
-1.66
-22.93
-46.33
-68.83
-86.75
-96.70
-96.46
-85.69
-66.11
-41.12
-14.83
9.04
27.98
40.87
47.70
49.07
45.77
38.59
28.18
14.98
-0.91
-19.45
-40.03
-60.63
-77.52
-86.01
-82.20
-65.01
-37.11
-4.32
26.60
50.38
64.79
70.41
69.15
62.51
50.85
33.94
12.27
-11.86
-34.40
-50.78
-57.68
-54.37
-42.84
-26.88
-10.37
4.11
15.86
25.63
34.51
42.98
50.45
55.70
57.59
55.87
51.36
45.58
40.10
35.88
33.05
31.01
28.90
26.02
22.17
17.65
13.11
9.20
6.31
4.45
3.28
2.31
1.06
-0.68
-2.92
-5.42
-7.89
-10.09
-11.92
-13.43
-14.77
-16.15
-17.71
-19.56
-21.72
-24.14
-26.76
-29.49
-32.20
-34.74
-36.84
-38.13
-38.31
-37.12
-34.58
-30.93
-26.58
-21.97
-17.46
-13.25
-9.36
-5.74
-2.25
1.21
4.69
8.15
11.42
14.26
16.46
17.89
18.57
18.70
18.52
18.25
18.06
18.01
18.14
18.41
18.78
19.11
19.27
19.14
18.69
18.02
17.31
16.78
16.54
16.54
16.61
16.52
16.10
15.35
14.40
13.41
12.53
11.75
10.98
10.05
8.93
7.65
6.40
5.30
4.41
3.66
2.89
2.05
1.14
0.27
-0.46
-1.04
-1.56
-2.16
-2.95
-3.97
-5.16
-6.42
-7.70
-9.01
-10.40
-11.87
-13.42
-14.95
-16.41
-17.77
-19.12
-20.60
-22.31
-24.24
-26.15
-27.62
-28.15
-27.32
-24.98
-21.29
-16.73
-11.91
-7.41
-3.63
-0.72
1.41
3.03
4.47
5.96
7.59
9.30
10.91
12.25
13.24
13.89
14.26
14.36
14.16
13.63
12.89
12.17
11.82
12.05
12.86
13.95
14.88
15.27
14.97
14.06
12.83
11.54
10.37
9.37
8.54
7.86
7.35
6.99
6.73
6.49
6.18
5.78
5.28
4.68
3.97
3.11
2.07
0.88
-0.36
-1.49
-2.42
-3.15
-3.79
-4.52
-5.49
-6.80
-8.45
-10.36
-12.37
-14.29
-15.94
-17.20
-18.11
-18.86
-19.76
-21.10
-23.02
-25.45
-28.02
-30.25
-31.60
-31.65
-30.28
-27.61
-23.96
-19.78
-15.46
-11.30
-7.43
-3.86
-0.56
2.54
5.40
7.96
10.12
11.84
13.10
14.01
14.68
15.24
15.74
16.20
16.59
16.92
17.19
17.42
17.64
17.83
17.95
17.94
17.74
17.29
16.58
15.67
14.64
13.62
12.75
12.07
11.55
11.06
10.51
9.80
8.96
8.06
7.17
6.36
5.65
5.05
4.52
4.07
3.69
3.35
3.02
2.65
2.18
1.57
0.86
0.08
-0.68
-1.38
-2.02
-2.65
-3.31
-4.08
-4.98
-6.03
-7.21
-8.50
-9.87
-11.32
-12.87
-14.54
-16.35
-18.33
-20.51
-22.92
-25.57
-28.37
-31.09
-33.31
-34.51
-34.22
-32.23
-28.65
-23.92
-18.68
-13.52
-8.88
-4.95
-1.71
0.96
3.22
5.24
7.12
8.94
10.74
12.50
14.16
15.62
16.78
17.57
17.95
17.93
17.58
17.03
16.41
15.86
15.51
15.41
15.54
15.83
16.14
16.37
16.40
16.18
15.69
14.93
13.91
12.72
11.47
10.35
9.52
9.08
8.98
9.05
9.04
8.77
8.19
7.42
6.60
5.84
5.13
4.35
3.38
2.19
0.90
-0.33
-1.34
-2.15
-2.88
-3.74
-4.84
-6.20
-7.65
-9.03
-10.18
-11.11
-11.91
-12.74
-13.75
-15.03
-16.60
-18.43
-20.46
-22.56
-24.47
-25.88
-26.39
-25.67
-23.65
-20.49
-16.61
-12.50
-8.50
-4.73
-1.20
2.17
5.34
8.15
10.38
11.87
12.65
12.87
12.80
12.65
12.59
12.69
12.95
13.41
14.02
14.72
15.43
15.99
16.26
16.14
15.62
14.76
13.72
12.68
11.84
11.30
11.06
10.98
10.88
10.57
9.94
9.00
7.80
6.49
5.23
4.12
3.26
2.63
2.19
1.85
1.48
1.00
0.36
-0.40
-1.24
-2.06
-2.82
-3.48
-4.07
-4.63
-5.26
-6.04
-6.99
-8.08
-9.22
-10.31
-11.30
-12.17
-12.97
-13.79
-14.70
-15.74
-16.92
-18.15
-19.29
-20.09
-20.30
-19.65
-18.02
-15.45
-12.16
-8.52
-4.95
-1.76
0.85
2.86
4.38
5.56
6.55
7.41
8.15
8.72
9.10
9.32
9.44
9.52
9.62
9.75
9.92
10.14
10.41
10.70
10.91
10.93
10.69
10.20
9.54
8.84
8.19
7.59
7.01
6.40
5.76
5.14
4.63
4.26
4.02
3.83
3.64
3.41
3.16
2.91
2.66
2.33
1.84
1.15
0.33
-0.46
-1.08
-1.45
-1.64
-1.84
-2.23
-2.87
-3.66
-4.45
-5.05
-5.46
-5.74
-6.08
-6.60
-7.35
-8.25
-9.20
-10.11
-10.96
-11.77
-12.62
-13.59
-14.74
-16.04
-17.43
-18.77
-19.89
-20.57
-20.62
-19.94
-18.51
-16.40
-13.82
-11.00
-8.18
-5.55
-3.18
-1.09
0.79
2.54
4.21
5.80
7.23
8.40
9.21
9.64
9.77
9.73
9.67
9.66
9.74
9.90
10.09
10.29
10.47
10.60
10.64
10.53
10.22
9.71
9.04
8.32
7.68
7.24
7.03
7.03
7.11
7.14
7.02
6.72
6.33
5.92
5.55
5.20
4.80
4.32
3.75
3.18
2.67
2.28
2.00
1.78
1.58
1.37
1.13
0.85
0.49
0.02
-0.58
-1.31
-2.10
-2.87
-3.54
-4.06
-4.42
-4.66
-4.85
-5.07
-5.42
-5.95
-6.69
-7.61
-8.67
-9.84
-11.07
-12.30
-13.48
-14.55
-15.48
-16.31
-17.10
-17.87
-18.58
-19.04
-19.02
-18.27
-16.71
-14.42
-11.70
-8.86
-6.16
-3.73
-1.60
0.21
1.69
2.77
3.44
3.70
3.69
3.58
3.59
3.86
4.46
5.30
6.24
7.07
7.60
7.71
7.42
6.85
6.21
5.72
5.52
5.65
6.03
6.49
6.84
6.97
6.82
6.46
6.01
5.60
5.27
4.98
4.67
4.29
3.82
3.32
2.84
2.42
2.04
1.65
1.23
0.83
0.52
0.36
0.35
0.34
0.17
-0.31
-1.08
-2.04
-3.00
-3.83
-4.49
-5.10
-5.78
-6.62
-7.63
-8.71
-9.77
-10.72
-11.55
-12.31
-13.05
-13.85
-14.74
-15.71
-16.68
-17.53
-18.04
-18.04
-17.36
-15.97
-13.95
-11.47
-8.70
-5.86
-3.15
-0.73
1.25
2.73
3.78
4.55
5.26
6.04
6.95
7.89
8.68
9.17
9.31
9.17
8.91
8.71
8.71
8.95
9.41
9.97
10.48
10.79
10.78
10.40
9.73
8.90
8.05
7.31
6.73
6.29
5.96
5.71
5.56
5.52
5.57
5.63
5.59
5.34
4.87
4.27
3.67
3.20
2.86
2.54
2.13
1.55
0.88
0.29
-0.11
-0.31
-0.48
-0.82
-1.50
-2.50
-3.66
-4.76
-5.66
-6.39
-7.09
-7.95
-9.05
-10.35
-11.71
-12.96
-13.98
-14.78
-15.48
-16.23
-17.17
-18.36
-19.77
-21.27
-22.67
-23.78
-24.37
-24.27
-23.38
-21.67
-19.24
-16.35
-13.33
-10.52
-8.14
-6.23
-4.64
-3.13
-1.46
0.49
2.67
4.91
7.01
8.80
10.17
11.09
11.60
11.78
11.77
11.69
11.63
11.68
11.84
12.12
12.47
12.81
13.09
13.22
13.14
12.81
12.30
11.73
11.30
11.11
11.18
11.36
11.43
11.22
10.70
9.96
9.18
8.50
7.97
7.50
7.02
6.49
5.91
5.35
4.86
4.44
4.05
3.61
3.05
2.37
1.57
0.69
-0.23
-1.13
-2.02
-2.85
-3.62
-4.30
-4.92
-5.53
-6.23
-7.16
-8.38
-9.88
-11.47
-12.96
-14.17
-15.08
-15.85
-16.74
-17.96
-19.67
-21.83
-24.29
-26.76
-28.88
-30.27
-30.57
-29.56
-27.23
-23.82
-19.79
-15.60
-11.67
-8.18
-5.15
-2.46
0.05
2.52
5.00
7.43
9.71
11.69
13.25
14.31
14.88
15.01
14.81
14.42
14.03
13.80
13.87
14.29
14.96
15.72
16.36
16.73
16.81
16.69
16.51
16.35
16.22
16.03
15.68
15.10
14.26
13.23
12.07
10.87
9.69
8.66
7.85
7.34
7.12
7.09
7.09
6.94
6.51
5.78
4.80
3.69
2.55
1.47
0.47
-0.40
-1.07
-1.53
-1.80
-2.00
-2.34
-3.03
-4.21
-5.87
-7.85
-9.91
-11.83
-13.48
-14.91
-16.27
-17.79
-19.65
-21.95
-24.63
-27.49
-30.21
-32.42
-33.73
-33.77
-32.29
-29.26
-24.89
-19.61
-14.05
-8.82
-4.33
-0.74
2.06
4.31
6.28
8.10
9.77
11.24
12.42
13.30
13.95
14.47
14.92
15.32
15.67
15.92
16.07
16.18
16.30
16.51
16.78
17.03
17.09
16.83
16.18
15.20
14.08
13.02
12.17
11.54
11.07
10.60
10.05
9.37
8.60
7.80
6.99
6.19
5.37
4.54
3.73
2.95
2.22
1.50
0.72
-0.20
-1.26
-2.43
-3.63
-4.84
-6.10
-7.48
-9.07
-10.85
-12.76
-14.63
-16.37
-17.93
-19.39
-20.92
-22.68
-24.83
-27.40
-30.32
-33.31
-35.93
-37.64
-37.91
-36.44
-33.26
-28.74
-23.43
-17.95
-12.74
-8.05
-3.92
-0.27
3.00
6.02
8.88
11.60
14.18
16.53
18.53
20.07
21.11
21.72
22.04
22.23
22.41
22.64
22.94
23.28
23.60
23.82
23.86
23.66
23.21
22.54
21.71
20.78
19.80
18.79
17.82
16.93
16.18
15.53
14.87
14.08
13.05
11.84
10.59
9.51
8.73
8.24
7.90
7.51
6.90
6.02
4.92
3.75
2.61
1.57
0.60
-0.35
-1.34
-2.38
-3.44
-4.52
-5.64
-6.88
-8.29
-9.94
-11.79
-13.80
-15.92
-18.10
-20.34
-22.61
-24.88
-27.12
-29.34
-31.61
-34.07
-36.81
-39.75
-42.60
-44.90
-46.11
-45.77
-43.67
-39.84
-34.61
-28.45
-21.92
-15.52
-9.62
-4.44
0.03
3.94
7.49
10.89
14.26
17.60
20.84
23.82
26.42
28.49
29.93
30.71
30.85
30.42
29.52
28.29
26.88
25.47
24.21
23.21
22.55
22.19
22.09
22.17
22.34
22.55
22.71
22.69
22.37
21.63
20.43
18.84
17.04
15.25
13.68
12.46
11.60
11.03
10.59
10.12
9.48
8.60
7.50
6.24
4.92
3.62
2.41
1.33
0.38
-0.48
-1.31
-2.18
-3.12
-4.14
-5.23
-6.40
-7.70
-9.22
-11.01
-13.06
-15.19
-17.17
-18.77
-19.91
-20.73
-21.49
-22.53
-24.10
-26.32
-29.16
-32.47
-35.94
-39.11
-41.36
-41.99
-40.51
-36.78
-31.16
-24.41
-17.41
-10.92
-5.31
-0.58
3.51
7.15
10.48
13.49
16.13
18.37
20.23
21.71
22.76
23.30
23.30
22.85
22.15
21.48
21.07
21.00
21.19
21.49
21.72
21.75
21.54
21.11
20.48
19.70
18.82
17.91
16.99
16.09
15.23
14.42
13.64
12.89
12.14
11.35
10.49
9.53
8.50
7.42
6.33
5.23
4.08
2.84
1.51
0.16
-1.14
-2.31
-3.36
-4.35
-5.41
-6.65
-8.13
-9.85
-11.71
-13.59
-15.37
-16.98
-18.45
-19.90
-21.51
-23.43
-25.76
-28.45
-31.26
-33.79
-35.50
-35.87
-34.52
-31.37
-26.68
-21.04
-15.14
-9.60
-4.76
-0.65
2.93
6.24
9.44
12.53
15.34
17.66
19.34
20.37
20.89
21.07
21.12
21.17
21.27
21.41
21.54
21.62
21.60
21.49
21.26
20.86
20.23
19.30
18.09
16.70
15.30
14.06
13.13
12.54
12.22
12.07
11.98
11.86
11.68
11.45
11.16
10.77
10.22
9.47
8.52
7.41
6.27
5.23
4.42
3.87
3.55
3.37
3.19
2.89
2.40
1.67
0.69
-0.57
-2.07
-3.75
-5.47
-7.07
-8.44
-9.55
-10.51
-11.50
-12.73
-14.27
-16.06
-17.90
-19.56
-20.92
-22.00
-23.01
-24.19
-25.78
-27.89
-30.37
-32.92
-35.02
-36.13
-35.79
-33.80
-30.26
-25.57
-20.31
-15.06
-10.23
-5.99
-2.31
0.96
3.97
6.81
9.49
11.99
14.27
16.28
17.98
19.30
20.18
20.58
20.55
20.23
19.75
19.30
18.97
18.80
18.76
18.78
18.79
18.68
18.36
17.77
16.93
15.93
14.91
14.01
13.29
12.70
12.11
11.42
10.56
9.63
8.71
7.87
7.12
6.39
5.63
4.85
4.13
3.52
3.04
2.60
2.08
1.42
0.62
-0.24
-1.06
-1.80
-2.48
-3.17
-3.87
-4.54
-5.12
-5.57
-5.95
-6.35
-6.89
-7.64
-8.63
-9.84
-11.23
-12.73
-14.21
-15.54
-16.64
-17.51
-18.29
-19.18
-20.40
-22.08
-24.24
-26.73
-29.27
-31.45
-32.79
-32.85
-31.33
-28.25
-23.90
-18.86
-13.74
-9.00
-4.86
-1.31
1.76
4.52
7.02
9.26
11.21
12.81
14.08
15.01
15.62
15.94
15.98
15.85
15.66
15.53
15.52
15.63
15.77
15.83
15.74
15.50
15.16
14.75
14.32
13.86
13.38
12.91
12.47
12.03
11.51
10.81
9.88
8.81
7.74
6.85
6.23
5.87
5.65
5.48
5.30
5.13
4.99
4.89
4.77
4.54
4.14
3.58
2.95
2.36
1.88
1.50
1.10
0.48
-0.49
-1.86
-3.52
-5.27
-6.90
-8.30
-9.49
-10.60
-11.74
-12.97
-14.26
-15.52
-16.65
-17.59
-18.31
-18.81
-19.13
-19.38
-19.72
-20.35
-21.45
-23.12
-25.29
-27.64
-29.66
-30.78
-30.53
-28.75
-25.60
-21.49
-16.99
-12.56
-8.45
-4.75
-1.38
1.70
4.51
6.99
9.10
10.82
12.20
13.28
14.13
14.77
15.20
15.42
15.41
15.21
14.90
14.63
14.53
14.67
15.01
15.40
15.66
15.66
15.37
14.89
14.31
13.71
13.10
12.42
11.63
10.70
9.62
8.42
7.18
6.02
5.07
4.48
4.30
4.42
4.66
4.79
4.63
4.16
3.43
2.57
1.69
0.86
0.12
-0.51
-0.99
-1.31
-1.51
-1.69
-1.96
-2.44
-3.21
-4.23
-5.39
-6.54
-7.57
-8.44
-9.16
-9.79
-10.32
-10.77
-11.19
-11.68
-12.46
-13.70
-15.52
-17.89
-20.66
-23.61
-26.48
-28.94
-30.62
-31.12
-30.11
-27.52
-23.61
-18.95
-14.19
-9.93
-6.42
-3.64
-1.35
0.68
2.61
4.47
6.24
7.90
9.47
10.97
12.34
13.48
14.27
14.67
14.75
14.67
14.66
14.85
15.23
15.70
16.08
16.25
16.13
15.74
15.11
14.29
13.32
12.25
11.18
10.24
9.54
9.13
8.92
8.71
8.30
7.59
6.61
5.54
4.59
3.90
3.48
3.19
2.87
2.40
1.74
0.93
0.02
-0.96
-2.00
-3.04
-4.01
-4.82
-5.41
-5.83
-6.18
-6.62
-7.31
-8.30
-9.59
-11.12
-12.81
-14.53
-16.14
-17.52
-18.63
-19.51
-20.36
-21.38
-22.72
-24.31
-25.84
-26.81
-26.72
-25.25
-22.41
-18.54
-14.16
-9.77
-5.71
-2.10
1.07
3.87
6.26
8.15
9.44
10.13
10.31
10.20
10.04
9.96
9.99
10.06
10.12
10.16
10.27
10.53
11.00
11.65
12.33
12.88
13.15
13.08
12.70
12.10
11.36
10.53
9.62
8.68
7.75
6.93
6.31
5.91
5.73
5.66
5.57
5.33
4.89
4.22
3.38
2.47
1.59
0.84
0.27
-0.11
-0.34
-0.51
-0.72
-1.07
-1.58
-2.24
-3.00
-3.80
-4.62
-5.50
-6.50
-7.70
-9.12
-10.71
-12.35
-13.93
-15.35
-16.61
-17.76
-18.92
-20.19
-21.63
-23.28
-25.11
-27.06
-28.96
-30.58
-31.57
-31.57
-30.29
-27.64
-23.76
-18.98
-13.77
-8.61
-3.89
0.08
3.18
5.37
6.79
7.68
8.41
9.28
10.52
12.14
14.00
15.78
17.21
18.11
18.48
18.50
18.40
18.36
18.48
18.75
19.07
19.36
19.58
19.67
19.60
19.31
18.72
17.82
16.69
15.47
14.37
13.56
13.13
13.02
13.06
13.02
12.72
12.07
11.11
9.96
8.79
7.74
6.88
6.15
5.45
4.66
3.72
2.64
1.44
0.20
-1.03
-2.26
-3.47
-4.64
-5.72
-6.65
-7.39
-7.99
-8.56
-9.26
-10.26
-11.63
-13.30
-15.13
-16.89
-18.45
-19.77
-20.96
-22.19
-23.68
-25.56
-27.85
-30.44
-33.05
-35.24
-36.50
-36.32
-34.43
-30.89
-26.08
-20.66
-15.25
-10.33
-6.13
-2.62
0.32
2.84
5.04
6.99
8.74
10.33
11.76
12.99
14.00
14.78
15.40
15.89
16.30
16.60
16.78
16.85
16.91
17.05
17.30
17.60
17.79
17.70
17.26
16.51
15.58
14.63
13.77
13.02
12.35
11.72
11.10
10.49
9.87
9.25
8.61
7.97
7.31
6.64
5.91
5.07
4.10
3.03
1.91
0.80
-0.28
-1.38
-2.57
-3.92
-5.43
-7.04
-8.60
-10.03
-11.29
-12.41
-13.51
-14.70
-16.05
-17.57
-19.22
-20.96
-22.79
-24.80
-27.14
-29.92
-33.09
-36.37
-39.24
-41.06
-41.26
-39.52
-35.90
-30.80
-24.85
-18.71
-12.94
-7.86
-3.58
-0.00
3.07
5.85
8.50
11.09
13.58
15.85
17.77
19.21
20.10
20.47
20.43
20.18
19.91
19.81
19.98
20.44
21.12
21.85
22.45
22.73
22.55
21.88
20.81
19.53
18.26
17.16
16.32
15.72
15.22
14.72
14.13
13.47
12.77
12.07
11.38
10.69
9.99
9.27
8.56
7.89
7.29
6.76
6.23
5.62
4.78
3.64
2.19
0.53
-1.17
-2.72
-4.01
-5.06
-6.06
-7.23
-8.78
-10.81
-13.25
-15.96
-18.75
-21.46
-23.95
-26.15
-28.01
-29.61
-31.11
-32.78
-34.84
-37.27
-39.72
-41.52
-41.92
-40.40
-36.88
-31.74
-25.62
-19.19
-12.93
-7.09
-1.75
3.06
7.27
10.84
13.76
16.09
17.96
19.50
20.80
21.93
22.91
23.74
24.41
24.93
25.30
25.55
25.72
25.85
25.99
26.11
26.17
26.07
25.75
25.18
24.39
23.47
22.54
21.69
20.95
20.26
19.57
18.81
17.94
17.02
16.09
15.18
14.29
13.42
12.53
11.61
10.68
9.77
8.93
8.13
7.36
6.54
5.56
4.32
2.79
1.01
-0.88
-2.70
-4.32
-5.74
-7.03
-8.31
-9.62
-10.95
-12.23
-13.42
-14.60
-15.91
-17.48
-19.38
-21.56
-23.90
-26.32
-28.77
-31.22
-33.52
-35.34
-36.21
-35.65
-33.41
-29.58
-24.62
-19.15
-13.74
-8.73
-4.18
0.01
3.98
7.74
11.18
14.14
16.49
18.21
19.33
19.97
20.21
20.13
19.81
19.38
18.97
18.73
18.73
18.98
19.40
19.84
20.15
20.22
20.00
19.48
18.65
17.57
16.32
15.04
13.90
13.04
12.51
12.20
11.92
11.48
10.79
9.90
9.00
8.23
7.64
7.17
6.66
5.94
4.91
3.57
1.99
0.33
-1.26
-2.68
-3.87
-4.88
-5.87
-6.99
-8.37
-10.00
-11.75
-13.45
-14.94
-16.18
-17.26
-18.33
-19.53
-20.92
-22.52
-24.25
-25.97
-27.44
-28.36
-28.38
-27.21
-24.75
-21.11
-16.67
-11.90
-7.26
-3.02
0.72
4.06
7.10
9.89
12.37
14.40
15.83
16.63
16.90
16.82
16.61
16.42
16.32
16.30
16.33
16.36
16.38
16.34
16.21
15.95
15.54
15.01
14.42
13.80
13.18
12.56
11.93
11.31
10.73
10.23
9.77
9.28
8.70
7.96
7.09
6.15
5.27
4.51
3.91
3.46
3.09
2.73
2.31
1.78
1.10
0.27
-0.66
-1.66
-2.65
-3.61
-4.50
-5.35
-6.18
-7.04
-7.94
-8.89
-9.90
-10.95
-12.05
-13.21
-14.43
-15.68
-16.94
-18.20
-19.52
-20.97
-22.66
-24.62
-26.79
-28.92
-30.64
-31.48
-31.08
-29.22
-26.01
-21.81
-17.12
-12.47
-8.20
-4.45
-1.18
1.73
4.36
6.73
8.84
10.68
12.28
13.65
14.77
15.57
15.99
16.04
15.83
15.50
15.22
15.05
14.99
15.02
15.04
15.02
14.90
14.61
14.12
13.39
12.50
11.56
10.70
10.01
9.49
9.09
8.75
8.40
7.99
7.49
6.92
6.31
5.75
5.31
5.00
4.76
4.38
3.72
2.74
1.59
0.51
-0.27
-0.72
-1.04
-1.47
-2.18
-3.14
-4.16
-5.01
-5.59
-5.97
-6.35
-6.92
-7.75
-8.75
-9.76
-10.67
-11.45
-12.14
-12.83
-13.56
-14.34
-15.16
-16.03
-17.01
-18.17
-19.55
-21.10
-22.62
-23.79
-24.28
-23.84
-22.38
-20.00
-16.93
-13.44
-9.78
-6.17
-2.73
0.44
3.33
5.95
8.33
10.48
12.37
13.94
15.11
15.87
16.27
16.37
16.23
15.88
15.35
14.72
14.08
13.56
13.22
13.06
12.99
12.89
12.71
12.43
12.09
11.68
11.18
10.48
9.53
8.34
6.97
5.58
4.32
3.30
2.57
2.08
1.74
1.41
1.00
0.44
-0.24
-0.96
-1.60
-2.07
-2.35
-2.43
-2.38
-2.28
-2.25
-2.39
-2.79
-3.48
-4.41
-5.46
-6.49
-7.34
-7.92
-8.24
-8.40
-8.56
-8.82
-9.25
-9.85
-10.57
-11.34
-12.13
-12.90
-13.64
-14.39
-15.23
-16.28
-17.65
-19.34
-21.17
-22.77
-23.64
-23.30
-21.55
-18.51
-14.61
-10.44
-6.52
-3.13
-0.31
2.06
4.14
5.96
7.47
8.59
9.27
9.55
9.56
9.47
9.41
9.47
9.61
9.78
9.92
9.97
9.95
9.90
9.90
9.99
10.13
10.25
10.20
9.88
9.26
8.39
7.40
6.44
5.64
5.07
4.77
4.70
4.77
4.90
5.01
5.05
4.95
4.68
4.21
3.50
2.57
1.51
0.47
-0.41
-1.00
-1.28
-1.37
-1.43
-1.64
-2.11
-2.86
-3.81
-4.88
-5.94
-6.91
-7.73
-8.40
-9.00
-9.67
-10.56
-11.74
-13.20
-14.78
-16.32
-17.71
-18.96
-20.22
-21.63
-23.24
-24.89
-26.27
-26.97
-26.70
-25.37
-23.08
-20.11
-16.78
-13.34
-9.98
-6.83
-3.94
-1.34
0.94
2.97
4.83
6.62
8.41
10.10
11.55
12.60
13.13
13.23
13.09
12.98
13.09
13.46
13.98
14.46
14.73
14.74
14.53
14.18
13.78
13.32
12.79
12.18
11.51
10.88
10.35
9.97
9.71
9.49
9.24
8.92
8.53
8.13
7.80
7.57
7.43
7.30
7.04
6.57
5.83
4.87
3.81
2.74
1.75
0.86
0.05
-0.69
-1.37
-1.99
-2.56
-3.14
-3.77
-4.47
-5.21
-5.91
-6.48
-6.90
-7.19
-7.43
-7.72
-8.11
-8.64
-9.30
-10.11
-11.09
-12.24
-13.55
-15.03
-16.66
-18.51
-20.59
-22.88
-25.21
-27.26
-28.62
-28.93
-27.99
-25.89
-22.89
-19.39
-15.74
-12.19
-8.88
-5.84
-3.11
-0.69
1.39
3.16
4.64
5.86
6.87
7.72
8.44
9.04
9.54
9.93
10.23
10.47
10.70
11.01
11.44
11.99
12.58
13.10
13.42
13.50
13.40
13.20
12.98
12.78
12.56
12.28
11.95
11.63
11.39
11.23
11.07
10.76
10.19
9.35
8.40
7.56
6.99
6.74
6.72
6.73
6.58
6.19
5.54
4.69
3.73
2.75
1.80
0.92
0.14
-0.53
-1.06
-1.43
-1.66
-1.76
-1.85
-2.02
-2.38
-3.00
-3.90
-5.01
-6.25
-7.50
-8.63
-9.57
-10.33
-11.02
-11.87
-13.14
-15.00
-17.42
-20.11
-22.57
-24.23
-24.69
-23.76
-21.52
-18.25
-14.32
-10.11
-6.00
-2.23
0.99
3.62
5.77
7.58
9.18
10.58
11.66
12.27
12.38
12.09
11.64
11.26
11.07
11.05
11.07
11.03
10.93
10.90
11.05
11.40
11.85
12.19
12.24
11.95
11.43
10.86
10.44
10.26
10.23
10.22
10.07
9.76
9.33
8.88
8.49
8.15
7.75
7.18
6.34
5.26
4.02
2.76
1.60
0.57
-0.35
-1.21
-2.09
-2.99
-3.93
-4.89
-5.88
-6.90
-7.97
-9.09
-10.25
-11.41
-12.52
-13.56
-14.54
-15.51
-16.50
-17.58
-18.76
-20.10
-21.57
-23.15
-24.72
-26.05
-26.88
-26.91
-25.92
-23.82
-20.70
-16.78
-12.42
-7.98
-3.77
-0.01
3.22
5.92
8.10
9.83
11.16
12.13
12.80
13.23
13.50
13.70
13.90
14.12
14.34
14.54
14.67
14.75
14.82
14.92
15.08
15.25
15.33
15.18
14.75
14.08
13.35
12.74
12.38
12.26
12.26
12.19
11.91
11.42
10.82
10.27
9.88
9.65
9.51
9.30
8.86
8.12
7.07
5.81
4.50
3.32
2.40
1.78
1.34
0.91
0.33
-0.50
-1.56
-2.77
-4.02
-5.29
-6.55
-7.82
-9.10
-10.33
-11.50
-12.61
-13.75
-15.01
-16.49
-18.19
-20.07
-22.05
-24.11
-26.25
-28.42
-30.43
-31.97
-32.63
-32.05
-30.10
-26.89
-22.75
-18.10
-13.34
-8.77
-4.63
-1.03
1.95
4.31
6.14
7.54
8.63
9.52
10.23
10.81
11.32
11.81
12.33
12.86
13.35
13.74
14.01
14.18
14.30
14.40
14.45
14.42
14.27
14.01
13.66
13.25
12.79
12.25
11.63
10.91
10.16
9.43
8.76
8.13
7.46
6.67
5.70
4.55
3.29
2.03
0.88
-0.12
-0.97
-1.73
-2.52
-3.43
-4.55
-5.94
-7.60
-9.48
-11.42
-13.25
-14.81
-16.07
-17.09
-18.05
-19.18
-20.63
-22.46
-24.55
-26.59
-28.18
-28.89
-28.35
-26.39
-23.06
-18.66
-13.64
-8.50
-3.67
0.57
4.10
6.95
9.23
11.07
12.59
13.83
14.80
15.50
15.90
16.05
16.03
15.92
15.85
15.86
15.94
16.04
16.12
16.14
16.12
16.10
16.08
16.02
15.81
15.33
14.54
13.46
12.22
10.99
9.92
9.09
8.51
8.15
7.95
7.83
7.68
7.41
6.92
6.18
5.20
4.08
2.90
1.73
0.60
-0.51
-1.56
-2.58
-3.57
-4.60
-5.76
-7.11
-8.67
-10.36
-12.07
-13.69
-15.17
-16.54
-17.93
-19.46
-21.26
-23.39
-25.83
-28.46
-31.07
-33.32
-34.80
-35.09
-33.89
-31.14
-27.04
-22.04
-16.73
-11.58
-6.89
-2.77
0.85
4.03
6.82
9.20
11.16
12.72
13.95
14.93
15.71
16.35
16.87
17.33
17.75
18.11
18.40
18.59
18.73
18.89
19.11
19.37
19.53
19.44
19.01
18.31
17.51
16.81
16.32
15.99
15.70
15.27
14.65
13.86
13.02
12.24
11.56
10.98
10.41
9.78
9.01
8.08
7.01
5.85
4.65
3.44
2.21
0.96
-0.36
-1.75
-3.19
-4.64
-6.05
-7.40
-8.74
-10.10
-11.51
-12.97
-14.44
-15.83
-17.07
-18.15
-19.15
-20.19
-21.47
-23.10
-25.13
-27.45
-29.80
-31.81
-33.05
-33.17
-31.94
-29.36
-25.67
-21.24
-16.47
-11.72
-7.26
-3.21
0.41
3.65
6.59
9.31
11.86
14.24
16.41
18.32
19.89
21.08
21.81
22.04
21.75
20.98
19.89
18.71
17.73
17.17
17.13
17.49
17.97
18.20
17.89
16.96
15.58
14.07
12.76
11.83
11.27
10.85
10.34
9.56
8.52
7.35
6.26
5.43
4.94
4.74
4.73
4.75
4.69
4.52
4.26
3.96
3.64
3.22
2.62
1.77
0.69
-0.49
-1.59
-2.48
-3.14
-3.70
-4.34
-5.20
-6.30
-7.60
-8.97
-10.35
-11.70
-13.07
-14.47
-15.95
-17.50
-19.10
-20.79
-22.62
-24.66
-26.89
-29.12
-30.95
-31.90
-31.51
-29.56
-26.21
-21.87
-17.13
-12.49
-8.25
-4.46
-1.07
1.97
4.63
6.87
8.69
10.17
11.47
12.76
14.09
15.39
16.53
17.34
17.76
17.84
17.74
17.61
17.56
17.55
17.46
17.17
16.61
15.82
14.94
14.08
13.32
12.63
11.97
11.33
10.78
10.40
10.20
10.12
9.99
9.65
9.00
8.05
6.93
5.82
4.86
4.09
3.52
3.12
2.84
2.67
2.53
2.32
1.90
1.18
0.15
-1.04
-2.15
-2.97
-3.41
-3.57
-3.67
-4.01
-4.75
-5.91
-7.36
-8.90
-10.39
-11.75
-12.98
-14.14
-15.32
-16.59
-18.05
-19.77
-21.70
-23.68
-25.42
-26.48
-26.47
-25.14
-22.47
-18.70
-14.24
-9.57
-5.11
-1.10
2.35
5.26
7.69
9.68
11.24
12.38
13.08
13.43
13.51
13.47
13.40
13.35
13.34
13.39
13.50
13.68
13.93
14.21
14.46
14.61
14.63
14.48
14.14
13.60
12.87
12.00
11.08
10.23
9.54
9.00
8.52
7.95
7.20
6.27
5.25
4.26
3.43
2.77
2.29
1.92
1.59
1.23
0.79
0.20
-0.53
-1.38
-2.28
-3.14
-3.86
-4.42
-4.83
-5.17
-5.52
-5.95
-6.50
-7.21
-8.10
-9.14
-10.29
-11.46
-12.56
-13.53
-14.38
-15.19
-16.07
-17.13
-18.39
-19.69
-20.81
-21.40
-21.17
-19.87
-17.44
-14.00
-9.88
-5.56
-1.53
1.81
4.30
5.98
7.05
7.74
8.19
8.46
8.51
8.34
8.05
7.77
7.62
7.65
7.82
8.04
8.24
8.40
8.53
8.66
8.75
8.77
8.71
8.59
8.43
8.25
8.01
7.66
7.19
6.62
6.06
5.60
5.24
4.90
4.45
3.84
3.07
2.31
1.71
1.36
1.23
1.18
1.00
0.57
-0.14
-1.06
-1.99
-2.81
-3.44
-3.91
-4.31
-4.78
-5.38
-6.14
-7.03
-8.03
-9.13
-10.33
-11.61
-12.92
-14.20
-15.42
-16.60
-17.80
-19.16
-20.74
-22.53
-24.36
-25.95
-27.00
-27.19
-26.34
-24.42
-21.52
-17.88
-13.83
-9.70
-5.84
-2.47
0.27
2.41
4.11
5.58
7.02
8.55
10.17
11.77
13.22
14.36
15.15
15.59
15.78
15.86
15.92
16.00
16.06
16.03
15.88
15.62
15.37
15.24
15.29
15.50
15.75
15.88
15.77
15.35
14.60
13.56
12.25
10.72
9.04
7.33
5.72
4.31
3.11
2.06
1.02
-0.13
-1.42
-2.81
-4.18
-5.43
-6.53
-7.49
-8.31
-8.95
-9.36
-9.49
-9.38
-9.10
-8.79
-8.56
-8.45
-8.43
-8.45
-8.53
-8.71
-9.11
-9.84
-10.93
-12.33
-13.93
-15.62
-17.35
-19.18
-21.22
-23.48
-25.85
-27.98
-29.41
-29.68
-28.52
-25.91
-22.11
-17.54
-12.68
-7.96
-3.68
0.01
3.06
5.49
7.35
8.68
9.52
9.95
10.07
10.01
9.90
9.83
9.82
9.86
9.97
10.19
10.60
11.27
12.19
13.29
14.39
15.33
15.98
16.25
16.13
15.65
14.88
13.96
13.06
12.32
11.85
11.61
11.51
11.40
11.18
10.85
10.43
9.98
9.51
9.02
8.47
7.87
7.25
6.63
6.03
5.42
4.79
4.12
3.44
2.72
1.95
1.09
0.12
-0.94
-2.04
-3.10
-4.09
-5.01
-5.90
-6.76
-7.60
-8.41
-9.24
-10.18
-11.34
-12.79
-14.47
-16.25
-17.99
-19.58
-21.07
-22.59
-24.22
-25.92
-27.44
-28.33
-28.18
-26.73
-24.02
-20.37
-16.24
-12.09
-8.23
-4.77
-1.67
1.13
3.66
5.92
7.83
9.37
10.57
11.52
12.29
12.96
13.51
13.89
14.02
13.92
13.75
13.66
13.83
14.28
14.85
15.31
15.47
15.24
14.69
13.98
13.26
12.60
12.01
11.48
11.00
10.58
10.19
9.77
9.20
8.41
7.43
6.41
5.53
4.94
4.62
4.45
4.24
3.89
3.39
2.82
2.24
1.66
1.07
0.41
-0.31
-1.03
-1.73
-2.46
-3.31
-4.40
-5.76
-7.31
-8.88
-10.31
-11.46
-12.30
-12.90
-13.39
-13.93
-14.69
-15.80
-17.33
-19.22
-21.25
-23.12
-24.47
-24.97
-24.41
-22.69
-19.92
-16.32
-12.24
-8.07
-4.13
-0.65
2.27
4.64
6.52
7.96
8.98
9.60
9.86
9.87
9.78
9.77
9.93
10.28
10.75
11.23
11.65
12.03
12.45
13.00
13.69
14.43
15.07
15.43
15.45
15.07
14.35
13.37
12.22
10.96
9.65
8.33
7.02
5.73
4.48
3.35
2.43
1.80
1.46
1.32
1.25
1.08
0.75
0.26
-0.31
-0.88
-1.41
-1.90
-2.40
-2.93
-3.51
-4.11
-4.74
-5.42
-6.20
-7.12
-8.21
-9.45
-10.75
-12.06
-13.32
-14.50
-15.64
-16.83
-18.22
-19.96
-22.14
-24.71
-27.42
-29.86
-31.56
-32.11
-31.31
-29.20
-26.01
-22.08
-17.74
-13.29
-8.96
-4.90
-1.23
1.99
4.77
7.14
9.15
10.87
12.34
13.59
14.65
15.51
16.13
16.48
16.56
16.44
16.23
16.09
16.14
16.42
16.86
17.30
17.60
17.63
17.38
16.90
16.28
15.60
14.94
14.34
13.81
13.34
12.92
12.49
12.02
11.46
10.79
10.00
9.12
8.18
7.22
6.28
5.38
4.54
3.79
3.18
2.75
2.51
2.39
2.25
1.96
1.38
0.45
-0.78
-2.16
-3.53
-4.73
-5.75
-6.64
-7.57
-8.66
-9.94
-11.38
-12.84
-14.19
-15.36
-16.37
-17.31
-18.32
-19.49
-20.90
-22.58
-24.58
-26.89
-29.38
-31.79
-33.69
-34.59
-34.10
-32.04
-28.57
-24.10
-19.16
-14.25
-9.71
-5.69
-2.18
0.89
3.68
6.29
8.79
11.20
13.41
15.28
16.69
17.57
17.96
18.00
17.85
17.67
17.55
17.51
17.58
17.74
17.93
18.08
18.06
17.75
17.03
15.93
14.55
13.11
11.79
10.78
10.14
9.88
9.92
10.17
10.50
10.82
10.99
10.91
10.52
9.79
8.74
7.49
6.20
5.00
4.03
3.32
2.84
2.52
2.28
2.07
1.89
1.77
1.72
1.67
1.51
1.10
0.32
-0.83
-2.26
-3.80
-5.24
-6.43
-7.32
-7.97
-8.55
-9.26
-10.27
-11.66
-13.39
-15.39
-17.55
-19.76
-21.97
-24.02
-25.63
-26.37
-25.69
-23.16
-18.59
-12.20
-4.62
3.31
10.75
17.19
22.54
27.24
32.01
37.58
44.34
52.12
60.30
68.01
74.53
79.65
83.81
87.90
92.91
99.47
107.60
116.70
125.92
134.56
142.33
149.52
156.69
164.61
174.03
185.58
199.55
215.46
231.49
244.26
249.46
243.47
225.05
196.27
161.76
126.75
94.85
66.87
41.36
16.36
-8.89
-33.19
-54.17
-69.70
-79.09
-83.24
-83.93
-82.84
-81.03
-79.10
-77.69
-77.80
-80.76
-87.76
-99.53
-115.97
-136.19
-158.86
-182.67
-206.60
-229.90
-251.74
-270.79
-285.19
-292.89
-292.50
-284.10
-269.65
-252.51
-236.34
-223.89
-216.18
-212.58
-211.50
-211.29
-210.97
-210.32
-209.44
-208.28
-206.29
-202.46
-195.78
-185.61
-171.96
-155.50
-137.26
-118.32
-99.52
-81.43
-64.33
-48.33
-33.37
-19.23
-5.47
8.56
23.57
40.04
58.00
76.89
95.62
112.85
127.24
137.81
144.09
146.16
144.56
140.17
133.93
126.71
119.12
111.54
104.15
97.07
90.41
84.32
78.92
74.27
70.30
66.81
63.59
60.42
57.20
53.90
50.56
47.26
44.01
40.81
37.60
34.30
30.87
27.31
23.68
20.04
16.50
13.11
9.92
6.93
4.14
1.49
-1.07
-3.63
-6.28
-9.09
-12.09
-15.26
-18.56
-21.91
-25.30
-28.76
-32.34
-36.03
-39.68
-42.90
-45.15
-45.86
-44.70
-41.62
-36.96
-31.23
-24.96
-18.55
-12.25
-6.15
-0.32
5.13
10.09
14.43
18.12
21.11
23.45
25.14
26.21
26.72
26.79
26.58
26.36
26.35
26.73
27.56
28.74
30.07
31.28
32.13
32.48
32.32
31.75
30.94
30.04
29.18
28.41
27.76
27.25
26.87
26.59
26.34
26.01
25.49
24.74
23.78
22.73
21.72
20.84
20.07
19.33
18.52
17.58
16.52
15.41
14.31
13.22
12.03
10.64
8.99
7.11
5.12
3.20
1.46
-0.09
-1.56
-3.17
-5.15
-7.65
-10.64
-13.96
-17.22
-20.04
-22.09
-23.25
-23.71
-23.88
-24.35
-25.66
-28.10
-31.54
-35.40
-38.76
-40.60
-40.14
-37.02
-31.45
-24.10
-15.87
-7.67
-0.20
6.09
11.08
14.88
17.76
20.02
21.91
23.50
24.74
25.48
25.69
25.45
25.01
24.64
24.51
24.62
24.86
25.12
25.36
25.59
25.86
26.10
26.15
25.80
24.95
23.68
22.22
20.89
19.91
19.32
18.97
18.62
18.07
17.25
16.19
15.00
13.75
12.46
11.14
9.78
8.38
6.94
5.47
4.00
2.54
1.18
-0.02
-1.03
-1.94
-2.92
-4.23
-6.00
-8.21
-10.68
-13.10
-15.22
-16.97
-18.44
-19.87
-21.50
-23.55
-26.10
-29.11
-32.37
-35.47
-37.72
-38.36
-36.74
-32.62
-26.32
-18.69
-10.80
-3.64
2.24
6.73
10.06
12.60
14.62
16.27
17.59
18.62
19.45
20.19
20.94
21.75
22.56
23.25
23.68
23.76
23.53
23.13
22.79
22.69
22.90
23.32
23.68
23.67
23.00
21.57
19.47
17.00
14.56
12.52
11.12
10.44
10.32
10.48
10.62
10.47
9.92
8.98
7.73
6.30
4.79
3.28
1.85
0.54
-0.58
-1.53
-2.34
-3.15
-4.12
-5.44
-7.25
-9.58
-12.35
-15.34
-18.27
-20.90
-23.12
-24.98
-26.67
-28.48
-30.67
-33.40
-36.69
-40.37
-43.99
-46.93
-48.38
-47.70
-44.58
-39.20
-32.20
-24.48
-16.91
-10.09
-4.31
0.45
4.37
7.71
10.69
13.49
16.13
18.55
20.58
22.05
22.92
23.22
23.10
22.72
22.17
21.53
20.85
20.22
19.70
19.33
19.03
18.68
18.11
17.19
15.86
14.14
12.13
10.01
8.04
6.52
5.74
5.91
7.10
9.24
12.10
15.36
18.58
21.27
22.91
23.09
21.58
18.43
13.97
8.69
3.18
-2.06
-6.64
-10.33
-13.11
-15.12
-16.66
-18.11
-19.78
-21.71
-23.62
-24.96
-25.21
-24.13
-21.96
-19.41
-17.33
-16.35
-16.63
-17.85
-19.49
-21.08
-22.38
-23.41
-24.17
-24.55
-24.23
-22.70
-19.37
-13.66
-5.14
6.25
19.97
34.70
48.51
59.33
65.67
67.13
64.59
59.82
54.78
50.88
48.51
46.89
44.22
38.28
27.11
10.04
-11.62
-34.29
-52.92
-62.55
-60.12
-45.78
-22.82
3.58
28.27
47.76
60.84
68.03
70.38
68.50
62.13
50.68
34.06
13.55
-8.13
-27.33
-40.67
-46.19
-43.99
-36.14
-25.75
-15.84
-8.30
-3.66
-1.37
-0.53
-0.54
-1.30
-2.96
-5.52
-8.45
-10.84
-11.72
-10.65
-7.90
-4.51
-1.82
-0.97
-2.39
-5.72
-9.98
-14.03
-17.04
-18.74
-19.47
-19.95
-20.95
-22.96
-26.12
-30.08
-34.24
-37.84
-40.17
-40.72
-39.28
-35.96
-31.15
-25.45
-19.44
-13.61
-8.25
-3.44
0.82
4.58
7.86
10.63
12.90
14.68
16.05
17.09
17.86
18.37
18.63
18.68
18.64
18.63
18.77
19.10
19.52
19.87
19.95
19.63
18.85
17.68
16.26
14.76
13.36
12.12
11.09
10.21
9.40
8.59
7.71
6.74
5.68
4.57
3.50
2.57
1.89
1.50
1.35
1.23
0.92
0.21
-0.91
-2.31
-3.75
-5.02
-6.04
-6.92
-7.90
-9.21
-10.97
-13.11
-15.40
-17.54
-19.32
-20.72
-21.93
-23.31
-25.19
-27.68
-30.60
-33.35
-35.06
-34.89
-32.29
-27.29
-20.55
-13.23
-6.62
-1.69
1.34
3.14
5.10
8.82
15.39
24.89
36.20
47.35
56.28
61.57
62.93
61.20
57.90
54.61
52.35
51.30
50.68
48.92
44.01
34.12
18.47
-1.99
-24.27
-43.99
-56.73
-59.53
-52.02
-36.35
-16.25
4.40
22.78
37.57
48.59
56.09
60.07
59.96
54.72
43.41
25.92
3.64
-20.34
-41.78
-56.49
-61.73
-57.22
-45.03
-28.59
-11.17
5.02
18.81
29.18
34.42
32.05
20.05
-1.38
-28.71
-55.53
-74.61
-80.81
-73.12
-54.94
-32.45
-11.99
2.11
8.31
7.20
0.30
-10.77
-24.34
-38.22
-49.50
-55.11
-52.89
-42.61
-26.19
-6.93
11.73
27.36
38.98
46.67
50.80
51.41
48.06
40.23
28.04
12.72
-3.39
-17.46
-27.05
-30.99
-29.74
-25.07
-19.28
-14.22
-10.73
-8.61
-7.08
-5.37
-3.11
-0.37
2.57
5.50
8.40
11.36
14.34
17.13
19.29
20.41
20.27
19.02
17.13
15.25
13.95
13.47
13.67
14.07
14.07
13.26
11.65
9.85
8.86
9.68
12.77
17.62
22.90
26.97
28.60
27.53
24.43
20.30
15.66
9.96
1.70
-10.79
-28.33
-50.14
-73.77
-95.77
-112.69
-122.04
-122.80
-115.44
-101.56
-83.30
-62.91
-42.44
-23.50
-7.32
5.34
14.18
19.45
21.87
22.47
22.34
22.33
22.79
23.64
24.49
24.91
24.68
23.89
22.84
21.87
21.22
20.93
20.89
20.91
20.79
20.38
19.65
18.66
17.54
16.47
15.61
15.02
14.65
14.35
13.92
13.24
12.29
11.19
10.12
9.24
8.59
8.15
7.82
7.46
6.97
6.26
5.27
4.01
2.56
1.08
-0.21
-1.10
-1.55
-1.65
-1.60
-1.62
-1.84
-2.30
-2.95
-3.73
-4.60
-5.56
-6.56
-7.58
-8.58
-9.59
-10.68
-11.94
-13.41
-15.05
-16.71
-18.25
-19.62
-20.93
-22.40
-24.24
-26.46
-28.79
-30.64
-31.25
-30.00
-26.69
-21.69
-15.84
-10.13
-5.19
-0.99
3.12
8.12
14.67
22.84
32.01
41.19
49.49
56.40
61.74
65.52
67.70
68.20
67.06
64.50
60.85
56.12
49.70
40.20
26.10
6.57
-17.59
-43.68
-67.68
-85.46
-94.16
-93.04
-83.47
-68.21
-50.24
-32.03
-15.17
-0.55
11.21
19.64
24.47
25.87
24.59
21.80
18.72
16.25
14.68
13.77
12.92
11.56
9.41
6.63
3.65
1.02
-0.84
-1.84
-2.18
-2.31
-2.66
-3.50
-4.85
-6.45
-7.96
-9.11
-9.79
-10.11
-10.33
-10.69
-11.36
-12.34
-13.48
-14.61
-15.66
-16.69
-17.85
-19.37
-21.36
-23.79
-26.46
-28.98
-30.89
-31.74
-31.21
-29.21
-25.88
-21.58
-16.79
-11.90
-7.11
-2.43
2.27
7.11
12.05
16.90
21.33
25.06
27.91
29.91
31.20
31.95
32.27
32.18
31.67
30.76
29.58
28.31
27.14
26.18
25.40
24.71
24.04
23.43
23.00
22.87
23.01
23.27
23.40
23.14
22.37
21.11
19.51
17.75
15.94
14.10
12.19
10.12
7.78
5.09
2.00
-1.46
-5.12
-8.71
-11.88
-14.30
-15.78
-16.25
-15.86
-14.89
-13.68
-12.63
-12.06
-12.19
-13.06
-14.52
-16.27
-17.96
-19.34
-20.34
-21.09
-21.82
-22.71
-23.83
-25.11
-26.37
-27.47
-28.36
-29.04
-29.62
-30.19
-30.87
-31.71
-32.67
-33.54
-33.94
-33.43
-31.62
-28.42
-24.07
-19.10
-14.13
-9.66
-5.95
-2.98
-0.61
1.35
3.05
4.59
6.07
7.50
8.87
10.13
11.21
12.04
12.65
13.08
13.42
13.69
13.90
14.03
14.03
13.92
13.69
13.35
12.90
12.35
11.72
11.04
10.37
9.76
9.26
8.88
8.56
8.26
7.92
7.52
7.08
6.67
6.34
6.09
5.85
5.51
5.00
4.30
3.46
2.57
1.69
0.80
-0.17
-1.24
-2.39
-3.53
-4.55
-5.39
-6.14
-6.91
-7.89
-9.20
-10.84
-12.73
-14.72
-16.64
-18.39
-19.88
-21.03
-21.75
-21.98
-21.71
-20.98
-19.91
-18.58
-16.94
-14.77
-11.77
-7.70
-2.53
3.44
9.64
15.42
20.25
23.86
26.21
27.43
27.65
26.99
25.52
23.41
20.97
18.60
16.70
15.45
14.77
14.30
13.62
12.43
10.70
8.77
7.09
6.06
5.82
6.24
6.96
7.59
7.84
7.60
6.91
5.90
4.74
3.59
2.60
1.87
1.46
1.31
1.28
1.14
0.68
-0.22
-1.53
-3.09
-4.68
-6.08
-7.20
-8.07
-8.75
-9.34
-9.84
-10.19
-10.40
-10.51
-10.74
-11.34
-12.55
-14.45
-16.88
-19.41
-21.50
-22.55
-22.10
-19.98
-16.40
-11.94
-7.38
-3.54
-0.97
0.20
0.31
-0.03
-0.21
0.11
0.90
1.67
1.73
0.44
-2.62
-7.37
-13.23
-19.15
-23.93
-26.50
-26.26
-23.29
-18.26
-12.15
-5.95
-0.33
4.39
8.13
10.92
12.77
13.71
13.87
13.53
13.06
12.78
12.80
13.04
13.25
13.25
13.02
12.72
12.60
12.81
13.33
13.94
14.31
14.19
13.52
12.41
11.12
9.96
9.12
8.69
8.65
8.87
9.25
9.67
10.08
10.40
10.58
10.53
10.15
9.37
8.23
6.82
5.34
4.02
3.01
2.40
2.12
2.00
1.90
1.71
1.39
0.95
0.45
-0.09
-0.70
-1.36
-2.08
-2.82
-3.55
-4.27
-5.03
-5.94
-7.08
-8.45
-10.00
-11.62
-13.20
-14.73
-16.23
-17.80
-19.44
-21.18
-22.95
-24.68
-26.28
-27.58
-28.34
-28.28
-27.13
-24.81
-21.49
-17.53
-13.41
-9.57
-6.24
-3.46
-1.14
0.89
2.77
4.59
6.35
8.01
9.47
10.62
11.40
11.85
12.06
12.17
12.33
12.63
13.07
13.58
14.10
14.54
14.86
15.04
15.07
14.92
14.59
14.05
13.35
12.56
11.78
11.11
10.58
10.17
9.80
9.37
8.79
8.04
7.14
6.17
5.23
4.42
3.79
3.36
3.09
2.86
2.56
2.07
1.33
0.32
-0.92
-2.32
-3.74
-5.03
-6.10
-6.93
-7.60
-8.32
-9.30
-10.60
-12.17
-13.78
-15.22
-16.35
-17.20
-17.95
-18.86
-20.15
-21.91
-24.07
-26.35
-28.29
-29.36
-29.14
-27.41
-24.32
-20.28
-15.85
-11.53
-7.59
-4.08
-0.91
2.05
4.82
7.27
9.23
10.52
11.08
11.01
10.56
9.99
9.56
9.44
9.68
10.26
11.10
12.10
13.17
14.19
15.03
15.58
15.74
15.48
14.85
13.92
12.80
11.64
10.55
9.66
9.03
8.64
8.35
8.00
7.45
6.65
5.65
4.57
3.57
2.73
2.10
1.63
1.22
0.74
0.06
-0.95
-2.35
-4.07
-6.00
-8.00
-9.94
-11.79
-13.56
-15.28
-16.92
-18.45
-19.79
-20.94
-22.05
-23.32
-25.03
-27.33
-30.19
-33.30
-36.15
-38.08
-38.56
-37.30
-34.35
-30.07
-25.01
-19.72
-14.61
-9.96
-5.86
-2.30
0.81
3.60
6.19
8.69
11.09
13.33
15.29
16.85
17.99
18.74
19.22
19.53
19.73
19.85
19.91
19.98
20.12
20.38
20.77
21.21
21.56
21.68
21.45
20.86
19.96
18.88
17.77
16.72
15.76
14.85
13.93
12.95
11.93
10.94
10.10
9.46
9.00
8.59
8.05
7.19
5.91
4.19
2.15
-0.03
-2.22
-4.32
-6.33
-8.28
-10.19
-12.02
-13.68
-15.11
-16.32
-17.44
-18.66
-20.18
-22.12
-24.50
-27.27
-30.26
-33.27
-35.97
-37.94
-38.73
-37.98
-35.58
-31.75
-26.95
-21.73
-16.53
-11.58
-6.92
-2.43
1.94
6.19
10.24
13.97
17.26
20.05
22.31
24.01
25.19
25.87
26.09
25.95
25.59
25.18
24.90
24.85
25.02
25.28
25.47
25.42
25.08
24.47
23.67
22.78
21.82
20.82
19.77
18.72
17.74
16.85
16.03
15.21
14.32
13.31
12.16
10.90
9.56
8.15
6.71
5.30
3.99
2.78
1.59
0.26
-1.39
-3.42
-5.75
-8.11
-10.23
-11.96
-13.38
-14.71
-16.30
-18.39
-21.13
-24.43
-28.06
-31.62
-34.61
-36.44
-36.59
-34.75
-30.99
-25.75
-19.76
-13.76
-8.35
-3.76
0.09
3.47
6.70
9.90
13.00
15.80
18.05
19.60
20.51
20.94
21.14
21.29
21.47
21.68
21.83
21.89
21.82
21.61
21.27
20.77
20.10
19.27
18.32
17.30
16.26
15.21
14.21
13.28
12.45
11.74
11.15
10.64
10.15
9.62
9.03
8.36
7.61
6.77
5.82
4.72
3.50
2.18
0.88
-0.32
-1.35
-2.26
-3.16
-4.20
-5.51
-7.07
-8.76
-10.38
-11.74
-12.79
-13.64
-14.52
-15.75
-17.58
-20.10
-23.23
-26.64
-29.82
-32.16
-33.10
-32.33
-29.83
-25.93
-21.17
-16.10
-11.19
-6.65
-2.53
1.25
4.81
8.17
11.31
14.10
16.38
17.99
18.88
19.10
18.83
18.31
17.79
17.44
17.31
17.40
17.65
18.02
18.47
18.94
19.29
19.35
18.98
18.15
16.96
15.65
14.44
13.42
12.56
11.76
10.93
10.07
9.27
8.65
8.19
7.83
7.42
6.88
6.19
5.45
4.76
4.17
3.67
3.20
2.68
2.01
1.11
-0.08
-1.54
-3.19
-4.89
-6.49
-7.93
-9.27
-10.64
-12.15
-13.83
-15.58
-17.21
-18.55
-19.56
-20.31
-21.03
-21.93
-23.16
-24.73
-26.49
-28.21
-29.61
-30.40
-30.29
-29.13
-26.86
-23.63
-19.71
-15.46
-11.24
-7.31
-3.83
-0.85
1.65
3.71
5.44
6.92
8.27
9.54
10.80
12.07
13.30
14.45
15.42
16.15
16.57
16.75
16.78
16.78
16.83
16.92
16.97
16.90
16.68
16.32
15.84
15.24
14.50
13.63
12.72
11.91
11.36
11.12
11.12
11.19
11.10
10.72
9.98
8.96
7.78
6.56
5.40
4.36
3.45
2.68
2.07
1.69
1.58
1.72
1.98
2.17
2.04
1.47
0.46
-0.79
-2.07
-3.19
-4.17
-5.15
-6.41
-8.17
-10.51
-13.32
-16.30
-19.09
-21.41
-23.13
-24.28
-25.03
-25.63
-26.30
-27.28
-28.65
-30.39
-32.27
-33.89
-34.79
-34.51
-32.86
-29.88
-25.91
-21.43
-16.91
-12.64
-8.71
-5.08
-1.65
1.64
4.73
7.51
9.88
11.78
13.24
14.34
15.17
15.82
16.32
16.72
17.05
17.37
17.70
18.06
18.41
18.69
18.82
18.74
18.40
17.78
16.91
15.92
14.91
14.00
13.26
12.64
12.04
11.34
10.44
9.36
8.19
7.07
6.11
5.35
4.73
4.17
3.59
2.94
2.27
1.68
1.23
0.97
0.87
0.86
0.85
0.78
0.59
0.27
-0.22
-0.90
-1.81
-2.91
-4.12
-5.33
-6.40
-7.30
-8.08
-8.84
-9.70
-10.70
-11.84
-13.04
-14.24
-15.39
-16.54
-17.75
-19.12
-20.70
-22.45
-24.20
-25.66
-26.42
-26.15
-24.69
-22.12
-18.77
-15.06
-11.35
-7.86
-4.65
-1.71
0.93
3.11
4.70
5.59
5.87
5.77
5.62
5.64
5.90
6.34
6.79
7.14
7.36
7.52
7.70
7.95
8.26
8.59
8.86
9.05
9.09
8.97
8.67
8.20
7.62
7.03
6.53
6.16
5.90
5.66
5.31
4.76
3.96
2.97
1.87
0.81
-0.13
-0.86
-1.40
-1.77
-2.04
-2.29
-2.55
-2.87
-3.27
-3.76
-4.40
-5.22
-6.25
-7.48
-8.87
-10.29
-11.65
-12.90
-14.04
-15.15
-16.31
-17.60
-19.07
-20.78
-22.69
-24.72
-26.62
-28.04
-28.56
-27.87
-25.87
-22.74
-18.87
-14.75
-10.76
-7.14
-3.92
-1.04
1.58
4.00
6.21
8.16
9.79
11.09
12.03
12.67
13.03
13.15
13.07
12.85
12.59
12.41
12.42
12.64
13.04
13.48
13.84
14.03
14.05
13.90
13.61
13.15
12.46
11.60
10.63
9.72
9.03
8.60
8.39
8.25
8.06
7.73
7.24
6.63
5.95
5.23
4.45
3.61
2.64
1.56
0.35
-0.91
-2.13
-3.21
-4.09
-4.80
-5.46
-6.26
-7.34
-8.76
-10.45
-12.27
-14.09
-15.78
-17.31
-18.70
-20.03
-21.40
-22.93
-24.68
-26.67
-28.79
-30.78
-32.27
-32.84
-32.11
-29.89
-26.28
-21.64
-16.54
-11.53
-7.07
-3.35
-0.36
2.10
4.27
6.35
8.48
10.64
12.75
14.65
16.18
17.22
17.77
17.90
17.76
17.56
17.43
17.48
17.71
18.06
18.48
18.88
19.14
19.17
18.87
18.19
17.18
16.02
14.89
14.01
13.44
13.16
13.00
12.77
12.34
11.66
10.81
9.89
9.01
8.20
7.44
6.67
5.85
5.01
4.24
3.64
3.25
3.00
2.73
2.30
1.57
0.54
-0.71
-2.03
-3.33
-4.58
-5.82
-7.13
-8.58
-10.20
-11.93
-13.69
-15.42
-17.13
-18.89
-20.81
-22.99
-25.45
-28.05
-30.49
-32.38
-33.27
-32.82
-30.88
-27.57
-23.26
-18.47
-13.74
-9.43
-5.67
-2.39
0.60
3.48
6.30
9.00
11.46
13.60
15.38
16.86
18.12
19.21
20.11
20.81
21.29
21.56
21.67
21.70
21.68
21.63
21.48
21.20
20.75
20.14
19.41
18.63
17.87
17.16
16.49
15.84
15.17
14.48
13.77
13.05
12.26
11.35
10.30
9.15
8.01
7.04
6.28
5.71
5.19
4.52
3.59
2.37
0.95
-0.54
-1.95
-3.19
-4.28
-5.27
-6.27
-7.38
-8.64
-10.05
-11.50
-12.89
-14.13
-15.20
-16.12
-16.95
-17.80
-18.81
-20.06
-21.57
-23.17
-24.56
-25.32
-25.07
-23.65
-21.10
-17.71
-13.89
-10.00
-6.26
-2.80
0.39
3.29
5.90
8.17
10.09
11.66
12.95
14.02
14.94
15.69
16.24
16.51
16.50
16.28
15.96
15.68
15.53
15.56
15.75
16.06
16.44
16.79
17.04
17.11
16.97
16.59
16.01
15.26
14.39
13.48
12.61
11.84
11.21
10.63
9.92
8.86
7.35
5.48
3.46
1.59
0.03
-1.25
-2.42
-3.68
-5.14
-6.75
-8.37
-9.90
-11.29
-12.61
-13.96
-15.35
-16.70
-17.86
-18.72
-19.24
-19.55
-19.81
-20.19
-20.76
-21.49
-22.27
-22.97
-23.41
-23.41
-22.82
-21.50
-19.43
-16.75
-13.75
-10.74
-7.96
-5.49
-3.23
-1.02
1.24
3.52
5.69
7.57
9.04
10.07
10.75
11.17
11.43
11.59
11.63
11.56
11.37
11.12
10.87
10.69
10.65
10.73
10.92
11.12
11.27
11.28
11.08
10.60
9.81
8.76
7.57
6.44
5.55
5.00
4.71
4.51
4.20
3.68
2.97
2.19
1.46
0.84
0.24
-0.41
-1.12
-1.85
-2.49
-2.97
-3.36
-3.85
-4.60
-5.72
-7.16
-8.74
-10.20
-11.34
-12.06
-12.36
-12.37
-12.26
-12.18
-12.25
-12.53
-13.03
-13.77
-14.68
-15.67
-16.60
-17.23
-17.35
-16.73
-15.32
-13.18
-10.56
-7.77
-5.08
-2.69
-0.66
1.03
2.49
3.79
4.99
6.13
7.23
8.32
9.38
10.40
11.29
11.95
12.26
12.17
11.73
11.04
10.30
9.66
9.18
8.85
8.58
8.28
7.90
7.47
7.05
6.70
6.42
6.17
5.86
5.41
4.82
4.13
3.41
2.76
2.27
1.95
1.82
1.79
1.74
1.53
1.05
0.26
-0.70
-1.53
-1.85
-1.36
-0.03
1.85
3.71
4.92
5.00
3.84
1.61
-1.28
-4.37
-7.30
-9.88
-12.00
-13.64
-14.84
-15.71
-16.42
-17.17
-18.10
-19.17
-20.18
-20.78
-20.64
-19.57
-17.59
-14.95
-11.97
-8.92
-5.97
-3.16
-0.55
1.77
3.67
5.04
5.87
6.27
6.38
6.28
6.00
5.47
4.74
3.90
3.19
2.80
2.87
3.39
4.23
5.19
6.10
6.82
7.28
7.48
7.48
7.36
7.21
7.10
7.09
7.16
7.32
7.53
7.76
7.95
8.00
7.83
7.44
6.89
6.31
5.79
5.41
5.14
4.94
4.72
4.40
3.90
3.23
2.41
1.56
0.81
0.22
-0.26
-0.77
-1.47
-2.45
-3.67
-5.02
-6.39
-7.77
-9.30
-11.09
-13.26
-15.70
-18.19
-20.38
-21.98
-22.78
-22.70
-21.78
-20.13
-17.95
-15.46
-12.87
-10.39
-8.13
-6.10
-4.22
-2.39
-0.54
1.33
3.17
4.88
6.42
7.79
8.97
9.95
10.70
11.22
11.54
11.81
12.20
12.83
13.70
14.66
15.47
15.86
15.69
14.96
13.82
12.47
11.17
10.10
9.36
8.91
8.67
8.47
8.16
7.63
6.81
5.74
4.49
3.18
1.90
0.74
-0.25
-1.07
-1.73
-2.27
-2.71
-3.06
-3.34
-3.56
-3.76
-3.97
-4.29
-4.78
-5.44
-6.18
-6.84
-7.30
-7.56
-7.77
-8.17
-8.99
-10.34
-12.15
-14.21
-16.27
-18.06
-19.37
-19.99
-19.74
-18.55
-16.48
-13.76
-10.78
-7.91
-5.45
-3.47
-1.91
-0.62
0.54
1.63
2.60
3.41
4.03
4.49
4.86
5.23
5.68
6.19
6.75
7.35
7.99
8.71
9.52
10.35
11.12
11.70
12.06
12.26
12.47
12.85
13.44
14.18
14.85
15.22
15.10
14.47
13.42
12.13
10.78
9.51
8.38
7.39
6.48
5.61
4.73
3.82
2.87
1.90
0.93
-0.08
-1.19
-2.51
-4.08
-5.90
-7.82
-9.72
-11.43
-12.88
-14.09
-15.15
-16.17
-17.23
-18.42
-19.74
-21.19
-22.73
-24.28
-25.67
-26.65
-26.90
-26.13
-24.22
-21.28
-17.62
-13.70
-9.91
-6.49
-3.42
-0.59
2.12
4.72
7.07
9.03
10.48
11.43
11.99
12.34
12.59
12.82
13.04
13.19
13.23
13.12
12.88
12.59
12.38
12.28
12.31
12.33
12.17
11.70
10.87
9.79
8.63
7.56
6.65
5.93
5.33
4.81
4.36
3.98
3.70
3.51
3.39
3.27
3.08
2.76
2.29
1.72
1.13
0.61
0.24
-0.00
-0.19
-0.46
-0.94
-1.70
-2.72
-3.92
-5.16
-6.36
-7.49
-8.59
-9.78
-11.18
-12.93
-15.09
-17.67
-20.51
-23.34
-25.75
-27.31
-27.68
-26.74
-24.64
-21.67
-18.19
-14.51
-10.80
-7.15
-3.65
-0.42
2.35
4.50
5.96
6.80
7.23
7.50
7.79
8.19
8.71
9.30
10.03
11.00
12.31
13.94
15.74
17.44
18.74
19.49
19.69
19.50
19.17
18.88
18.73
18.74
18.91
19.15
19.35
19.31
18.76
17.56
15.68
13.37
11.01
9.01
7.62
6.78
6.16
5.34
3.95
1.94
-0.51
-3.00
-5.19
-6.88
-8.05
-8.84
-9.41
-9.87
-10.30
-10.72
-11.18
-11.73
-12.43
-13.31
-14.35
-15.53
-16.82
-18.24
-19.81
-21.58
-23.47
-25.30
-26.75
-27.42
-26.91
-25.02
-21.81
-17.62
-12.98
-8.45
-4.44
-1.15
1.47
3.62
5.49
7.24
8.86
10.30
11.47
12.35
12.99
13.47
13.87
14.18
14.36
14.36
14.20
14.01
13.92
14.04
14.38
14.79
15.10
15.19
15.05
14.81
14.61
14.51
14.48
14.36
14.02
13.36
12.43
11.35
10.29
9.38
8.66
8.07
7.49
6.72
5.66
4.30
2.75
1.19
-0.19
-1.31
-2.19
-2.93
-3.63
-4.34
-5.10
-5.94
-6.93
-8.15
-9.68
-11.52
-13.62
-15.89
-18.23
-20.54
-22.69
-24.44
-25.49
-25.51
-24.28
-21.80
-18.30
-14.18
-9.93
-5.90
-2.30
0.81
3.46
5.65
7.38
8.64
9.46
9.99
10.36
10.70
11.02
11.25
11.30
11.14
10.83
10.46
10.12
9.80
9.46
9.07
8.62
8.21
7.90
7.71
7.56
7.29
6.79
6.03
5.10
4.12
3.24
2.47
1.78
1.12
0.47
-0.12
-0.62
-1.00
-1.34
-1.74
-2.32
-3.14
-4.23
-5.50
-6.85
-8.14
-9.27
-10.21
-10.97
-11.67
-12.47
-13.55
-14.99
-16.79
-18.71
-20.40
-21.43
-21.45
-20.32
-18.13
-15.22
-11.95
-8.62
-5.41
-2.35
0.56
3.24
5.54
7.33
8.59
9.41
9.98
10.43
10.79
10.99
11.01
10.86
10.69
10.69
10.98
11.58
12.33
13.04
13.49
13.59
13.33
12.78
12.05
11.22
10.36
9.48
8.64
7.90
7.30
6.86
6.51
6.08
5.40
4.40
3.14
1.82
0.65
-0.27
-0.98
-1.65
-2.47
-3.54
-4.83
-6.26
-7.70
-9.08
-10.38
-11.59
-12.70
-13.74
-14.77
-15.90
-17.29
-19.03
-21.09
-23.32
-25.41
-26.98
-27.66
-27.18
-25.48
-22.68
-19.09
-15.08
-11.04
-7.23
-3.79
-0.76
1.90
4.28
6.47
8.50
10.38
12.05
13.41
14.39
14.99
15.32
15.53
15.75
16.05
16.40
16.68
16.81
16.76
16.57
16.35
16.21
16.18
16.21
16.18
15.98
15.53
14.87
14.04
13.14
12.21
11.31
10.51
9.83
9.35
9.08
8.94
8.81
8.50
7.82
6.65
5.00
2.96
0.78
-1.26
-2.88
-3.90
-4.30
-4.26
-4.06
-4.01
-4.33
-5.07
-6.16
-7.44
-8.78
-10.12
-11.42
-12.70
-13.96
-15.20
-16.45
-17.83
-19.50
-21.55
-23.92
-26.29
-28.16
-28.97
-28.32
-26.14
-22.72
-18.59
-14.35
-10.46
-7.13
-4.37
-2.06
-0.12
1.47
2.68
3.47
3.90
4.12
4.32
4.67
5.26
6.07
7.06
8.17
9.38
10.62
11.80
12.78
13.44
13.70
13.60
13.26
12.86
12.49
12.15
11.78
11.29
10.63
9.79
8.85
7.90
7.02
6.24
5.55
4.88
4.20
3.44
2.58
1.58
0.39
-1.01
-2.66
-4.52
-6.49
-8.42
-10.18
-11.72
-13.04
-14.25
-15.44
-16.68
-17.99
-19.36
-20.82
-22.43
-24.20
-26.06
-27.77
-28.93
-29.07
-27.80
-24.87
-20.24
-14.07
-6.72
1.36
9.64
17.60
24.79
30.89
35.71
39.20
41.26
41.79
40.56
37.40
32.27
25.46
17.66
9.84
3.09
-1.72
-4.08
-4.06
-2.18
0.73
3.77
6.28
7.84
8.41
8.15
7.36
6.38
5.56
5.16
5.33
6.11
7.37
8.90
10.39
11.50
11.99
11.66
10.46
8.44
5.81
2.87
-0.06
-2.66
-4.64
-5.76
-5.82
-4.77
-2.84
-0.58
1.15
1.51
-0.04
-3.52
-8.46
-14.18
-20.15
-26.21
-32.43
-38.88
-45.31
-51.10
-55.39
-57.43
