1565015109.00
64.000000
-0.00
-0.00
-0.00
-0.00
-0.00
-0.00
-0.00
-0.00
-0.00
-0.00
0.00
0.01
0.01
-0.00
-0.03
-0.05
-0.05
0.00
0.13
0.36
0.66
1.01
1.37
1.72
2.06
2.40
2.79
3.24
3.80
4.42
5.06
5.66
6.20
6.68
7.15
7.68
8.31
9.14
10.09
11.04
11.88
12.56
13.14
13.76
14.65
15.96
17.91
20.32
22.90
25.38
27.58
29.57
31.68
34.32
37.81
42.54
48.15
54.10
59.83
64.97
69.58
74.14
79.34
85.71
93.76
103.00
112.62
121.73
129.77
136.75
143.30
150.75
157.77
166.64
177.95
191.79
206.97
220.57
228.25
225.36
208.53
176.87
132.76
80.05
23.07
-34.94
-92.44
-149.16
-205.23
-260.37
-313.74
-363.87
-409.83
-450.91
-486.50
-515.74
-537.23
-549.22
-549.96
-538.37
-514.21
-478.67
-433.88
-382.45
-327.02
-269.84
-212.63
-156.66
-102.95
-52.37
-5.90
35.58
71.43
101.35
125.50
144.38
158.69
169.15
176.37
180.75
182.57
182.07
179.51
175.23
169.65
163.18
156.15
148.81
141.30
133.69
126.02
118.33
110.69
103.16
95.80
88.68
81.83
75.25
68.95
62.95
57.25
51.86
46.78
42.03
37.59
33.45
29.61
26.07
22.81
19.83
17.11
14.67
12.48
10.54
8.83
7.35
6.07
4.97
4.05
3.27
2.62
2.09
1.65
1.30
1.02
0.79
0.61
0.47
0.36
0.28
0.23
0.21
0.22
0.23
0.21
0.14
0.02
-0.14
-0.30
-0.42
-0.46
-0.43
-0.34
-0.24
-0.17
-0.17
-0.23
-0.31
-0.35
-0.31
-0.20
-0.05
0.05
0.02
-0.17
-0.47
-0.78
-0.95
-0.89
-0.60
-0.22
0.04
-0.02
-0.50
-1.31
-2.18
-2.77
-2.83
-2.33
-1.54
-0.90
-0.86
-1.64
-3.08
-4.70
-5.84
-6.00
-5.11
-3.59
-2.22
-1.75
-2.60
-4.60
-6.99
-8.88
-9.49
-8.60
-6.55
-4.08
-2.22
-2.01
-4.47
-10.07
-18.13
-26.43
-31.41
-29.31
-17.74
2.83
28.94
54.95
75.11
85.44
84.84
74.84
58.56
39.44
20.26
2.82
-12.03
-23.90
-32.56
-37.74
-39.26
-37.41
-33.06
-27.91
-23.66
-21.53
-21.62
-23.18
-25.27
-27.33
-29.40
-31.60
-33.45
-33.62
-30.38
-22.72
-11.13
2.38
15.06
24.44
29.21
29.37
25.90
20.18
13.52
6.86
0.70
-4.83
-9.73
-13.96
-17.26
-19.32
-19.87
-19.15
-17.77
-16.46
-15.56
-14.89
-14.00
-12.62
-11.02
-9.92
-10.12
-11.91
-14.67
-16.88
-16.82
-13.36
-6.40
2.04
9.66
14.29
14.88
11.90
7.30
3.62
2.85
5.60
10.99
17.40
23.17
27.31
29.83
31.73
33.98
36.56
38.08
36.57
30.91
21.74
11.47
3.33
0.54
4.35
13.00
22.13
26.87
24.26
14.31
-0.51
-16.46
-29.01
-34.65
-32.24
-23.28
-10.60
3.05
15.48
24.75
29.14
29.40
28.74
31.87
43.42
66.50
101.40
144.41
187.64
212.99
205.23
162.48
99.24
35.90
-13.69
-46.37
-66.08
-79.00
-90.43
-99.69
-102.79
-96.82
-82.60
-63.81
-44.42
-25.94
-7.87
11.41
33.10
56.55
78.32
93.05
96.32
84.39
61.31
36.56
19.02
12.77
16.75
26.94
38.86
49.52
57.04
61.67
63.86
63.67
60.61
55.31
48.47
40.47
31.66
21.40
10.00
-2.36
-15.88
-30.90
-47.79
-67.52
-92.43
-119.11
-147.80
-179.12
-213.29
-248.82
-281.87
-306.62
-317.35
-310.40
-285.36
-245.85
-196.45
-141.53
-84.57
-28.56
23.20
66.64
97.54
113.26
112.92
98.92
75.89
49.30
24.25
5.20
-4.23
-1.63
13.79
39.85
71.87
103.24
127.08
138.35
135.38
120.10
96.91
70.82
45.42
22.32
1.69
-16.35
-30.70
-39.15
-39.73
-32.31
-19.40
-5.72
3.86
6.37
1.75
-7.42
-17.70
-26.60
-33.63
-39.86
-46.83
-55.08
-63.66
-70.72
-74.59
-74.80
-72.37
-69.12
-66.68
-65.47
-64.29
-60.93
-53.20
-40.18
-22.63
-2.71
17.05
34.62
48.89
59.45
66.03
68.19
65.52
58.28
47.79
36.42
26.87
21.19
20.03
22.56
27.01
31.60
35.21
37.58
39.10
40.26
41.26
41.93
41.90
40.76
38.27
34.45
29.37
23.09
15.59
6.91
-2.71
-12.74
-22.26
-30.01
-34.59
-34.75
-29.70
-19.38
-4.44
13.93
34.23
54.71
73.38
88.16
97.00
98.32
91.72
78.56
62.04
46.42
35.23
30.06
30.05
32.46
33.93
32.08
26.49
19.05
12.87
10.13
11.14
14.56
18.55
21.78
23.94
25.38
26.48
26.89
24.51
16.52
1.09
-21.28
-47.97
-74.91
-97.83
-112.73
-116.66
-109.65
-94.73
-76.71
-60.59
-50.45
-48.46
-55.09
-68.54
-79.08
-77.48
-61.09
-35.51
-8.54
15.36
35.61
51.90
63.96
71.81
75.22
73.92
69.02
63.16
58.76
57.78
58.20
56.91
52.17
43.92
32.96
20.97
10.19
2.20
-3.05
-10.19
-24.93
-51.88
-89.45
-136.90
-193.07
-255.29
-318.54
-358.18
-355.26
-307.87
-232.13
-150.08
-79.56
-29.46
-0.12
13.86
19.80
21.14
18.48
12.07
3.60
-4.61
-10.10
-11.09
-7.16
0.82
9.77
16.41
19.64
21.05
22.87
26.86
33.76
43.23
54.24
65.28
74.99
83.54
92.95
105.88
124.60
150.37
183.79
216.95
243.70
259.31
262.10
253.95
238.78
220.59
201.62
181.78
159.28
133.19
103.75
73.08
44.43
20.63
2.93
-9.28
-17.94
-25.50
-33.28
-42.21
-52.66
-64.69
-78.08
-92.36
-106.75
-120.18
-131.40
-138.49
-139.77
-134.11
-121.43
-103.12
-82.05
-61.84
-45.88
-36.13
-32.39
-32.83
-34.96
-36.82
-37.61
-37.56
-37.17
-36.40
-34.37
-29.85
-22.31
-12.65
-3.14
3.51
5.35
2.15
-4.75
-13.16
-21.17
-27.84
-33.08
-37.01
-39.38
-39.43
-36.36
-30.04
-21.35
-12.04
-4.03
1.32
3.77
4.08
3.55
3.30
3.77
4.58
4.68
2.98
-0.99
-6.57
-11.77
-13.77
-9.88
1.38
19.45
41.82
64.89
85.30
101.07
112.00
119.29
124.82
130.39
137.19
145.50
154.42
161.85
164.76
160.16
146.18
123.17
93.80
62.30
33.02
9.04
-8.42
-19.66
-25.75
-27.96
-27.75
-27.01
-28.19
-33.77
-45.37
-62.96
-84.53
-106.64
-125.62
-138.77
-145.34
-146.49
-144.79
-143.29
-144.37
-148.72
-154.82
-159.10
-157.30
-146.60
-127.54
-104.54
-84.63
-74.46
-77.15
-90.73
-108.61
-122.09
-123.51
-108.30
-75.36
-26.08
36.59
108.02
181.43
248.38
300.72
333.59
347.64
348.67
344.69
341.86
341.93
342.58
339.87
331.05
316.37
298.77
282.10
268.83
259.64
253.70
249.56
245.59
240.18
232.46
222.83
212.89
203.85
195.65
186.51
173.93
156.32
133.73
108.73
84.84
64.64
47.04
28.44
4.90
-25.40
-61.45
-101.59
-143.08
-183.23
-219.33
-252.82
-287.19
-326.59
-373.74
-429.04
-492.88
-560.75
-622.95
-665.25
-680.41
-667.94
-633.49
-585.26
-531.52
-483.48
-446.89
-420.58
-395.33
-368.72
-341.48
-315.76
-291.97
-269.66
-255.36
-253.29
-262.43
-272.16
-279.43
-283.67
-285.70
-284.91
-237.93
-128.82
23.97
148.65
236.78
293.78
334.60
363.22
382.40
394.73
395.66
382.50
356.56
326.84
293.74
255.64
211.28
163.05
114.57
64.73
15.40
-26.30
-46.63
-40.59
-10.42
34.43
81.71
118.75
134.42
127.14
105.11
83.13
69.35
65.10
66.43
69.21
70.31
68.52
65.94
65.24
67.14
66.68
57.40
35.48
3.09
-34.62
-71.30
-101.45
-116.95
-114.14
-98.57
-82.76
-83.48
-101.34
-131.08
-165.54
-194.37
-210.26
-210.32
-196.03
-171.81
-142.80
-112.23
-82.42
-53.24
-22.73
10.38
44.75
76.61
101.59
116.74
122.21
119.69
112.85
106.56
104.96
109.95
120.81
134.84
148.49
158.76
162.99
160.01
150.34
135.25
115.97
93.31
67.91
40.73
13.70
-10.68
-29.34
-39.38
-39.19
-29.22
-12.02
8.62
28.86
45.94
58.37
65.81
68.44
66.57
60.51
51.04
39.71
28.85
21.09
18.56
22.20
31.40
44.27
58.18
70.49
79.01
82.26
79.53
70.87
57.20
40.20
22.16
5.50
-7.95
-17.40
-23.43
-27.62
-31.71
-36.81
-42.79
-48.45
-52.13
-52.62
-49.59
-43.63
-35.80
-27.06
-18.10
-9.42
-1.64
4.30
7.30
6.60
2.33
-4.28
-11.15
-15.99
-17.15
-14.05
-7.30
1.68
11.19
19.74
26.34
30.61
32.71
33.09
32.30
30.57
27.70
23.03
15.80
5.64
-6.98
-20.62
-33.20
-42.55
-47.01
-45.82
-39.14
-27.91
-13.58
2.19
17.71
31.39
41.99
48.68
51.20
49.75
44.98
37.83
29.42
20.94
13.51
8.05
5.02
4.49
6.03
8.99
12.65
16.43
19.97
23.08
25.55
27.05
27.14
25.31
21.27
15.09
7.30
-1.13
-9.00
-15.09
-18.44
-18.54
-15.43
-9.67
-2.22
5.78
13.13
18.87
22.31
23.08
21.19
16.94
10.98
4.21
-2.29
-7.38
-10.21
-10.37
-8.16
-4.48
-0.61
2.21
3.17
2.11
-0.50
-3.98
-7.68
-11.33
-15.06
-19.26
-24.23
-29.92
-35.76
-40.69
-43.45
-42.86
-38.24
-29.62
-17.79
-4.12
9.79
22.39
32.56
39.63
43.46
44.26
42.53
38.88
33.97
28.50
23.09
18.25
14.32
11.40
9.29
7.62
5.98
4.12
2.04
-0.09
-2.06
-3.85
-5.74
-8.26
-12.04
-17.51
-24.73
-33.19
-41.91
-49.53
-54.59
-55.86
-52.58
-44.70
-32.87
-18.39
-2.82
12.19
25.29
35.44
42.08
45.06
44.68
41.53
36.51
30.64
24.81
19.75
15.78
12.81
10.43
8.11
5.38
2.07
-1.62
-5.31
-8.55
-11.18
-13.43
-15.86
-19.18
-23.87
-29.88
-36.48
-42.48
-46.45
-47.19
-44.03
-36.97
-26.62
-13.99
-0.27
13.39
25.96
36.59
44.53
49.26
50.53
48.48
43.70
37.19
30.19
23.83
18.95
15.82
14.20
13.53
13.15
12.57
11.56
10.12
8.29
6.08
3.33
-0.28
-5.09
-11.33
-18.93
-27.32
-35.38
-41.66
-44.68
-43.35
-37.35
-27.24
-14.28
-0.05
13.88
26.37
36.68
44.48
49.62
52.01
51.61
48.51
43.09
36.09
28.59
21.74
16.43
13.09
11.57
11.26
11.38
11.26
10.55
9.22
7.40
5.24
2.72
-0.38
-4.38
-9.58
-16.07
-23.70
-31.98
-40.10
-46.98
-51.35
-52.01
-48.09
-39.40
-26.60
-11.13
5.09
20.16
32.62
41.66
47.10
49.15
48.17
44.56
38.70
31.21
22.93
14.91
8.18
3.52
1.17
0.81
1.72
3.02
4.00
4.23
3.65
2.39
0.63
-1.53
-4.15
-7.38
-11.38
-16.27
-22.00
-28.27
-34.50
-39.83
-43.20
-43.58
-40.23
-32.93
-22.11
-8.79
5.65
19.73
32.17
42.09
49.01
52.82
53.60
51.62
47.19
40.79
33.12
25.09
17.71
11.90
8.18
6.58
6.62
7.50
8.42
8.82
8.48
7.47
5.94
3.99
1.54
-1.54
-5.39
-10.05
-15.35
-21.01
-26.65
-31.82
-35.97
-38.49
-38.70
-36.00
-30.08
-21.12
-9.83
2.62
14.87
25.69
34.16
39.79
42.38
41.94
38.62
32.76
25.03
16.37
7.93
0.78
-4.34
-7.17
-7.96
-7.27
-5.80
-4.16
-2.86
-2.18
-2.33
-3.41
-5.45
-8.43
-12.23
-16.64
-21.39
-26.20
-30.79
-34.84
-37.94
-39.48
-38.75
-35.12
-28.33
-18.68
-7.15
4.92
16.17
25.54
32.47
36.72
38.19
36.84
32.71
26.10
17.79
8.93
0.82
-5.49
-9.46
-11.19
-11.21
-10.18
-8.70
-7.15
-5.78
-4.84
-4.57
-5.28
-7.15
-10.26
-14.51
-19.67
-25.44
-31.40
-37.01
-41.53
-44.08
-43.79
-40.04
-32.68
-22.18
-9.57
3.72
16.25
26.81
34.57
39.16
40.55
38.97
34.78
28.49
20.76
12.42
4.43
-2.28
-7.02
-9.50
-9.91
-8.84
-7.03
-5.16
-3.67
-2.76
-2.49
-2.95
-4.29
-6.72
-10.37
-15.17
-20.85
-26.95
-32.93
-38.20
-42.13
-44.03
-43.22
-39.20
-31.83
-21.51
-9.20
3.74
15.89
26.08
33.55
37.97
39.34
37.89
34.00
28.15
21.02
13.41
6.22
0.25
-3.90
-5.90
-5.80
-4.00
-1.14
2.02
4.74
6.46
6.86
5.84
3.49
-0.02
-4.44
-9.49
-14.83
-20.13
-25.06
-29.38
-32.88
-35.30
-36.16
-34.71
-30.06
-21.51
-8.94
6.94
24.46
41.40
55.37
64.46
67.57
64.56
56.15
43.58
28.40
12.23
-3.34
-16.81
-26.93
-32.85
-34.39
-32.10
-27.23
-21.40
-16.25
-12.90
-11.84
-12.86
-15.40
-18.86
-22.85
-27.30
-32.23
-37.66
-43.31
-48.66
-52.99
-55.53
-55.59
-52.72
-46.73
-37.81
-26.60
-14.12
-1.61
9.72
19.00
25.83
30.28
32.70
33.47
32.86
30.95
27.81
23.54
18.47
13.16
8.27
4.42
2.04
1.19
1.62
2.84
4.29
5.53
6.31
6.51
6.10
5.03
3.16
0.30
-3.70
-8.88
-15.10
-21.99
-28.93
-35.18
-39.84
-42.00
-40.90
-36.06
-27.50
-15.82
-2.21
11.86
24.85
35.56
43.21
47.52
48.52
46.41
41.48
34.14
25.12
15.46
6.47
-0.56
-4.71
-5.72
-4.00
-0.47
3.71
7.54
10.23
11.39
10.90
8.86
5.59
1.48
-3.02
-7.56
-11.97
-16.33
-20.88
-25.86
-31.34
-37.00
-42.10
-45.46
-45.77
-41.90
-33.34
-20.40
-4.32
13.00
29.44
43.12
52.71
57.56
57.64
53.41
45.66
35.47
24.08
12.80
2.73
-5.33
-11.09
-14.70
-16.64
-17.48
-17.69
-17.50
-16.94
-15.96
-14.62
-13.15
-11.98
-11.60
-12.39
-14.57
-18.15
-22.95
-28.63
-34.68
-40.30
-44.47
-46.05
-44.08
-38.07
-28.24
-15.53
-1.31
12.89
25.76
36.36
44.14
48.86
50.45
49.06
45.01
38.87
31.45
23.77
16.87
11.70
8.91
8.67
10.66
14.09
17.95
21.32
23.56
24.44
23.99
22.32
19.45
15.23
9.43
1.90
-7.18
-17.24
-27.33
-36.12
-42.22
-44.30
-41.43
-33.26
-20.25
-3.62
14.76
32.66
47.93
58.92
64.74
65.37
61.62
54.77
46.39
37.95
30.69
25.36
22.19
20.81
20.36
19.61
17.28
12.38
4.52
-5.89
-17.74
-29.49
-39.57
-46.88
-50.96
-52.02
-50.75
-48.02
-44.69
-41.39
-38.56
-36.30
-34.44
-32.53
-29.90
-25.85
-19.90
-12.00
-2.57
7.58
17.48
26.24
33.24
38.21
41.26
42.87
43.84
45.26
48.26
53.79
62.25
73.32
85.96
98.70
110.16
119.56
126.97
133.20
139.47
146.71
155.24
164.52
173.32
180.03
182.94
180.68
172.45
158.46
140.05
119.56
99.80
83.23
71.20
63.55
58.83
55.01
50.40
44.37
37.44
30.81
25.55
21.94
19.28
16.34
12.12
6.46
0.24
-5.15
-8.61
-9.99
-10.19
-10.77
-13.04
-17.54
-23.89
-31.12
-38.31
-45.02
-51.51
-58.60
-67.40
-78.93
-93.70
-111.38
-130.57
-148.96
-163.86
-173.02
-175.40
-171.45
-162.74
-151.17
-138.03
-123.69
-107.91
-90.62
-72.53
-55.16
-40.11
-28.31
-19.59
-12.93
-7.34
-2.57
0.70
1.35
-1.39
-7.43
-15.82
-25.25
-34.65
-43.52
-51.75
-59.42
-66.53
-73.07
-79.20
-85.33
-91.97
-99.35
-106.98
-113.58
-117.24
-116.05
-108.79
-95.37
-76.90
-55.29
-32.71
-11.10
8.04
23.62
34.85
41.28
42.92
40.47
35.38
29.62
25.22
23.71
25.72
30.93
38.20
45.98
52.62
56.80
57.78
55.58
50.83
44.54
37.58
30.40
22.90
14.63
5.14
-5.73
-17.76
-30.25
-42.25
-52.58
-59.99
-63.36
-62.07
-56.33
-47.26
-36.69
-26.57
-18.45
-13.16
-10.83
-11.19
-13.81
-18.14
-23.46
-28.78
-33.03
-35.39
-35.56
-33.95
-31.46
-29.11
-27.60
-27.22
-27.79
-29.01
-30.58
-32.36
-34.27
-36.30
-38.42
-40.61
-42.99
-45.80
-49.33
-53.70
-58.69
-63.48
-66.85
-67.49
-64.55
-58.07
-49.16
-39.66
-31.54
-26.29
-24.56
-26.19
-30.57
-36.86
-44.15
-51.36
-57.19
-60.27
-59.63
-55.16
-47.74
-38.81
-29.63
-20.61
-11.17
-0.33
12.57
27.28
42.84
58.07
72.10
84.35
94.10
100.14
100.75
94.56
81.73
64.79
48.44
38.21
38.47
50.70
72.91
100.26
126.80
147.33
158.79
160.78
155.10
144.79
132.91
121.65
111.77
102.83
93.49
82.38
68.89
53.65
38.60
26.18
18.07
14.27
12.84
10.71
5.12
-5.23
-19.78
-36.75
-54.12
-70.56
-85.67
-99.82
-113.62
-127.60
-141.88
-155.86
-168.05
-176.12
-177.41
-169.80
-152.57
-126.76
-94.72
-59.32
-23.08
12.13
44.76
73.27
95.83
110.61
116.24
112.14
98.88
78.38
54.08
30.65
13.15
5.55
9.19
22.15
39.79
56.52
67.90
71.88
68.87
60.73
49.49
36.62
23.06
9.58
-2.96
-13.84
-22.89
-30.73
-38.48
-47.02
-56.37
-65.41
-72.28
-75.06
-72.59
-64.84
-52.92
-38.76
-24.55
-12.32
-3.53
1.07
1.50
-1.56
-6.93
-13.21
-19.03
-23.37
-25.71
-26.08
-25.08
-23.58
-22.51
-22.61
-24.20
-27.15
-30.98
-35.02
-38.68
-41.60
-43.74
-45.32
-46.64
-47.99
-49.46
-50.98
-52.24
-52.75
-51.96
-49.33
-44.47
-37.34
-28.32
-18.16
-7.82
1.74
9.86
16.18
20.68
23.53
24.96
25.21
24.53
23.27
21.79
20.48
19.53
18.93
18.44
17.63
16.11
13.66
10.29
6.28
1.99
-2.27
-6.34
-10.29
-14.29
-18.58
-23.41
-28.97
-35.38
-42.43
-49.56
-55.73
-59.64
-60.05
-56.25
-48.37
-37.35
-24.72
-12.12
-0.89
8.10
14.43
18.01
18.91
17.38
13.84
8.90
3.38
-1.95
-6.38
-9.44
-10.92
-10.93
-9.79
-7.97
-6.03
-4.41
-3.45
-3.32
-4.05
-5.60
-7.90
-10.92
-14.66
-19.21
-24.70
-31.21
-38.58
-46.23
-53.12
-57.82
-58.93
-55.52
-47.53
-35.93
-22.44
-9.07
2.46
11.07
16.46
18.89
18.85
16.81
13.03
7.64
0.87
-6.80
-14.61
-21.75
-27.68
-32.47
-36.85
-41.92
-48.66
-57.36
-67.53
-77.97
-87.34
-94.62
-99.37
-101.68
-101.86
-100.16
-96.77
-91.94
-86.17
-80.13
-74.19
-67.83
-59.38
-46.56
-27.70
-2.98
25.11
52.47
75.17
91.27
101.52
108.75
116.09
125.25
135.92
146.42
155.20
162.02
168.04
174.84
183.14
191.95
198.92
201.43
197.95
188.69
175.43
160.73
146.87
135.08
125.57
117.85
111.39
106.10
102.49
101.06
101.45
101.89
99.35
90.39
72.65
46.05
13.55
-19.18
-45.14
-58.02
-54.16
-33.58
-0.22
39.22
76.90
105.65
120.24
118.29
100.65
71.32
36.84
4.89
-17.60
-26.56
-22.02
-8.04
9.23
24.31
34.57
40.56
44.74
49.21
54.06
57.35
56.31
49.14
36.24
20.02
3.82
-9.71
-19.64
-27.09
-34.31
-43.39
-55.00
-67.99
-79.91
-87.96
-90.20
-86.14
-76.82
-64.06
-49.79
-35.47
-22.00
-10.06
-0.40
6.12
8.74
7.15
1.84
-5.88
-14.14
-20.99
-25.05
-25.92
-24.30
-21.63
-19.47
-18.90
-20.21
-22.98
-26.43
-29.89
-32.98
-35.64
-38.05
-40.53
-43.36
-46.82
-50.95
-55.47
-59.58
-62.08
-61.72
-57.62
-49.66
-38.47
-25.31
-11.65
1.28
12.53
21.51
27.87
31.41
32.13
30.28
26.45
21.48
16.29
11.61
7.87
5.11
3.07
1.36
-0.38
-2.28
-4.26
-6.05
-7.35
-7.94
-7.86
-7.43
-7.26
-8.14
-10.78
-15.46
-21.80
-28.70
-34.58
-37.95
-37.92
-34.51
-28.69
-21.95
-15.78
-11.15
-8.38
-7.09
-6.62
-6.29
-5.68
-4.70
-3.61
-2.86
-2.85
-3.84
-5.79
-8.44
-11.38
-14.18
-16.50
-18.15
-19.09
-19.35
-19.09
-18.49
-17.78
-17.17
-16.83
-16.90
-17.46
-18.63
-20.58
-23.57
-27.87
-33.63
-40.62
-48.07
-54.65
-58.72
-58.78
-53.87
-43.94
-29.83
-13.10
4.41
20.97
35.18
46.14
53.42
57.04
57.45
55.38
51.70
47.18
42.38
37.54
32.75
28.09
23.70
19.86
16.80
14.66
13.31
12.44
11.59
10.37
8.48
5.82
2.44
-1.51
-5.83
-10.36
-15.02
-19.93
-25.39
-31.80
-39.41
-47.98
-56.63
-63.78
-67.58
-66.36
-59.30
-46.67
-29.88
-11.02
7.66
24.34
37.83
47.65
53.86
56.84
57.18
55.50
52.53
48.97
45.46
42.42
40.01
38.09
36.31
34.30
31.80
28.88
25.82
22.98
20.63
18.69
16.80
14.37
10.91
6.22
0.55
-5.57
-11.46
-16.67
-21.06
-24.87
-28.64
-32.94
-38.22
-44.65
-52.02
-59.61
-66.21
-70.34
-70.49
-65.63
-55.57
-41.10
-23.83
-5.74
11.31
25.97
37.47
45.56
50.35
52.12
51.30
48.44
44.19
39.24
34.22
29.60
25.70
22.59
20.23
18.48
17.17
16.16
15.34
14.61
13.87
12.99
11.78
10.05
7.70
4.66
1.08
-2.83
-6.78
-10.58
-14.15
-17.54
-20.87
-24.29
-27.92
-31.89
-36.36
-41.41
-46.88
-52.26
-56.50
-58.31
-56.42
-50.09
-39.40
-25.32
-9.39
6.65
21.31
33.52
42.68
48.63
51.45
51.48
49.27
45.56
41.18
36.92
33.32
30.55
28.47
26.69
24.87
22.81
20.54
18.19
15.89
13.69
11.56
9.53
7.62
5.89
4.30
2.68
0.80
-1.60
-4.61
-8.18
-12.06
-16.01
-19.77
-23.28
-26.59
-29.91
-33.52
-37.74
-42.67
-48.04
-53.10
-56.74
-57.72
-55.07
-48.42
-38.15
-25.27
-11.17
2.72
15.27
25.71
33.65
38.99
41.79
42.21
40.50
37.08
32.50
27.46
22.66
18.65
15.72
13.82
12.67
11.92
11.28
10.59
9.87
9.16
8.47
7.68
6.65
5.17
3.11
0.38
-3.02
-6.99
-11.28
-15.56
-19.42
-22.56
-24.94
-26.79
-28.66
-31.17
-34.76
-39.44
-44.71
-49.54
-52.65
-52.84
-49.25
-41.69
-30.63
-17.17
-2.76
11.12
23.19
32.66
39.17
42.84
43.96
42.95
40.16
35.95
30.74
25.08
19.65
15.08
11.78
9.77
8.74
8.17
7.65
6.97
6.16
5.36
4.62
3.90
3.04
1.93
0.56
-1.01
-2.71
-4.65
-7.15
-10.63
-15.52
-21.92
-29.51
-37.52
-44.99
-51.03
-55.16
-57.26
-57.44
-55.69
-51.67
-44.85
-34.78
-21.49
-5.72
11.15
27.38
41.29
51.59
57.59
59.28
57.22
52.36
45.82
38.59
31.39
24.67
18.64
13.39
9.04
5.63
3.19
1.68
1.03
1.20
2.13
3.73
5.77
7.89
9.67
10.79
11.17
11.05
10.90
11.29
12.71
15.33
18.95
23.02
26.81
29.70
31.43
32.20
32.65
33.68
36.12
40.46
46.80
54.80
63.83
72.95
81.12
87.29
90.78
91.40
89.56
86.09
81.87
77.45
72.91
67.97
62.25
55.58
48.18
40.57
33.30
26.77
21.13
16.26
11.94
7.93
4.03
0.08
-4.05
-8.35
-12.71
-16.99
-21.29
-26.23
-32.96
-42.82
-56.68
-74.29
-94.04
-113.36
-129.72
-141.58
-148.91
-152.70
-154.18
-153.83
-151.23
-145.59
-136.71
-125.80
-115.34
-108.34
-107.27
-113.01
-124.74
-140.24
-156.70
-171.55
-182.97
-189.83
-191.42
-186.95
-175.47
-156.01
-128.26
-93.08
-52.74
-10.63
29.55
64.60
92.27
111.26
120.94
121.16
112.28
95.61
73.71
50.24
29.32
14.35
7.09
7.23
12.75
20.77
28.63
34.70
38.53
40.72
42.23
43.89
45.94
48.09
49.64
49.86
48.29
44.83
39.76
33.77
27.93
23.60
22.16
24.54
30.76
39.67
49.08
56.45
59.81
58.60
53.79
47.54
42.23
39.56
39.95
42.51
45.50
46.89
45.00
38.91
28.77
15.82
2.14
-9.81
-17.84
-20.56
-17.69
-10.08
0.66
12.51
23.58
32.35
37.78
39.39
37.23
31.79
24.00
14.99
5.95
-2.11
-8.50
-12.94
-15.55
-16.70
-16.92
-16.67
-16.32
-16.13
-16.22
-16.76
-17.87
-19.69
-22.36
-25.97
-30.62
-36.48
-43.73
-52.31
-61.72
-70.79
-77.72
-80.49
-77.52
-68.15
-52.98
-33.67
-12.40
8.60
27.60
43.42
55.37
63.07
66.40
65.49
60.81
53.20
43.83
33.99
24.89
17.43
12.02
8.59
6.69
5.69
5.05
4.38
3.58
2.64
1.56
0.32
-1.27
-3.41
-6.39
-10.53
-16.15
-23.40
-32.06
-41.23
-49.40
-54.59
-54.95
-49.40
-38.02
-22.12
-3.78
14.72
31.48
45.24
55.38
61.70
64.10
62.64
57.56
49.56
39.76
29.60
20.48
13.32
8.38
5.25
3.18
1.46
-0.26
-1.96
-3.38
-4.32
-4.85
-5.39
-6.58
-9.05
-13.30
-19.52
-27.47
-36.44
-45.13
-51.86
-54.88
-52.84
-45.21
-32.58
-16.48
1.09
18.14
33.17
45.19
53.68
58.28
58.78
55.19
48.03
38.39
27.82
17.89
9.76
3.86
-0.11
-2.84
-4.97
-6.84
-8.44
-9.58
-10.18
-10.44
-10.83
-12.02
-14.70
-19.42
-26.32
-35.01
-44.39
-52.73
-58.00
-58.43
-53.00
-41.85
-26.22
-8.10
10.33
27.18
41.16
51.50
57.85
60.10
58.40
53.16
45.20
35.72
26.11
17.60
11.03
6.57
3.87
2.30
1.23
0.31
-0.53
-1.19
-1.66
-2.18
-3.24
-5.52
-9.61
-15.81
-23.90
-33.14
-42.25
-49.59
-53.49
-52.58
-46.21
-34.57
-18.78
-0.63
17.87
34.72
48.37
57.76
62.45
62.48
58.41
51.16
41.96
32.20
23.13
15.69
10.27
6.76
4.62
3.24
2.13
1.10
0.16
-0.62
-1.33
-2.38
-4.38
-8.03
-13.83
-21.82
-31.43
-41.36
-49.81
-54.78
-54.62
-48.50
-36.70
-20.56
-2.16
16.26
32.74
45.91
54.98
59.65
59.95
56.24
49.19
39.82
29.43
19.40
10.83
4.37
0.05
-2.59
-4.27
-5.66
-7.15
-8.86
-10.69
-12.62
-14.86
-17.90
-22.47
-29.27
-38.66
-50.44
-63.71
-76.87
-87.98
-95.08
-96.81
-92.78
-83.71
-71.27
-57.54
-44.45
-33.31
-24.70
-18.65
-14.89
-13.20
-13.40
-15.33
-18.67
-22.84
-27.01
-30.24
-31.54
-30.01
-24.96
-16.09
-3.65
11.44
27.61
42.89
55.32
63.35
66.19
63.83
57.00
46.87
34.93
22.79
12.16
4.65
1.57
3.60
10.54
21.36
34.33
47.54
59.26
68.34
74.24
76.96
76.77
74.07
69.35
63.20
56.35
49.55
43.45
38.39
34.46
31.42
29.01
27.04
25.49
24.38
23.58
22.77
21.30
18.48
13.67
6.58
-2.55
-12.88
-23.00
-31.22
-35.84
-35.71
-30.52
-20.98
-8.59
4.69
16.94
26.63
32.80
35.03
33.39
28.39
20.91
12.14
3.30
-4.62
-11.03
-15.89
-19.46
-22.15
-24.12
-25.33
-25.64
-24.99
-23.59
-21.97
-20.79
-20.69
-22.14
-25.23
-29.63
-34.52
-38.67
-40.65
-39.22
-33.69
-24.18
-11.63
2.43
16.23
28.16
37.01
42.07
43.13
40.50
34.91
27.44
19.30
11.59
5.04
-0.12
-4.05
-7.17
-9.84
-12.24
-14.32
-15.87
-16.71
-16.96
-17.08
-17.90
-20.37
-25.20
-32.50
-41.49
-50.51
-57.36
-59.90
-56.72
-47.66
-33.74
-16.91
0.65
17.06
31.04
41.83
49.01
52.30
51.60
47.11
39.56
30.17
20.41
11.67
4.80
-0.04
-3.25
-5.57
-7.66
-9.90
-12.29
-14.60
-16.60
-18.33
-20.21
-22.94
-27.35
-33.99
-42.83
-52.94
-62.56
-69.37
-71.10
-66.23
-54.46
-36.94
-15.85
6.18
26.83
44.46
58.22
67.79
73.03
73.91
70.52
63.33
53.38
42.17
31.43
22.59
16.44
13.00
11.62
11.29
11.12
10.51
9.27
7.47
5.27
2.71
-0.33
-4.14
-9.06
-15.40
-23.26
-32.52
-42.67
-52.78
-61.53
-67.35
-68.71
-64.46
-54.20
-38.49
-18.88
2.41
22.95
40.62
54.00
62.52
66.33
66.02
62.43
56.55
49.51
42.58
36.99
33.55
32.46
33.22
34.87
36.41
37.13
36.81
35.51
33.35
30.28
26.07
20.46
13.47
5.46
-2.89
-10.74
-17.46
-22.79
-26.97
-30.65
-34.65
-39.49
-44.99
-50.04
-52.76
-51.10
-43.62
-30.15
-12.03
8.29
28.02
44.85
57.52
65.80
70.15
71.24
69.62
65.73
60.05
53.36
46.66
41.02
37.19
35.27
34.73
34.65
34.14
32.77
30.66
28.32
26.27
24.71
23.30
21.36
18.10
12.99
5.95
-2.58
-11.81
-20.89
-29.07
-35.92
-41.36
-45.68
-49.37
-53.06
-57.31
-62.42
-68.18
-73.73
-77.58
-77.95
-73.28
-62.85
-47.16
-27.93
-7.62
11.27
26.84
38.13
45.15
48.44
48.76
46.80
43.11
38.27
33.03
28.26
24.77
23.08
23.21
24.67
26.73
28.67
29.99
30.51
30.31
29.52
28.29
26.68
24.66
22.15
19.05
15.29
10.86
5.84
0.47
-5.01
-10.32
-15.31
-19.95
-24.31
-28.54
-32.88
-37.59
-42.89
-48.81
-54.94
-60.36
-63.69
-63.36
-58.17
-47.73
-32.71
-14.78
3.91
21.21
35.49
45.90
52.24
54.84
54.25
51.15
46.28
40.47
34.62
29.66
26.33
25.05
25.78
28.03
30.99
33.72
35.44
35.76
34.75
32.85
30.73
28.88
27.49
26.41
25.24
23.58
21.26
18.36
15.14
11.86
8.59
5.17
1.27
-3.50
-9.49
-16.86
-25.58
-35.36
-45.52
-54.96
-62.19
-65.63
-63.93
-56.57
-44.12
-28.20
-11.16
4.55
17.09
25.57
30.10
31.45
30.64
28.54
25.73
22.53
19.25
16.26
13.99
12.80
12.82
13.86
15.50
17.24
18.72
19.77
20.37
20.53
20.13
18.94
16.70
13.35
9.07
4.36
-0.22
-4.19
-7.42
-10.11
-12.69
-15.62
-19.16
-23.27
-27.59
-31.72
-35.30
-38.17
-40.49
-42.63
-45.12
-48.39
-52.62
-57.44
-61.98
-64.90
-64.74
-60.34
-51.31
-38.19
-22.36
-5.73
9.83
22.86
32.57
38.82
41.94
42.52
41.19
38.52
34.98
30.96
26.82
22.86
19.37
16.56
14.55
13.32
12.78
12.74
13.06
13.62
14.35
15.22
16.08
16.76
16.97
16.50
15.18
12.98
10.01
6.51
2.76
-0.95
-4.33
-7.24
-9.61
-11.54
-13.22
-14.89
-16.76
-18.93
-21.36
-23.92
-26.45
-28.86
-31.26
-33.89
-37.10
-41.24
-46.45
-52.53
-58.86
-64.39
-67.70
-67.39
-62.41
-52.50
-38.44
-21.91
-5.09
9.92
21.70
29.74
34.32
36.20
36.12
34.65
32.13
28.82
25.13
21.59
18.83
17.27
17.03
17.85
19.22
20.57
21.46
21.74
21.43
20.71
19.71
18.37
16.49
13.76
10.00
5.24
-0.16
-5.67
-10.70
-14.85
-18.04
-20.37
-22.10
-23.43
-24.49
-25.33
-26.04
-26.71
-27.47
-28.42
-29.56
-30.85
-32.23
-33.73
-35.46
-37.62
-40.35
-43.66
-47.20
-50.17
-51.44
-49.71
-44.01
-34.02
-20.37
-4.50
11.74
26.55
38.66
47.46
52.93
55.37
55.20
52.81
48.67
43.29
37.36
31.63
26.80
23.33
21.35
20.65
20.80
21.29
21.76
22.01
22.00
21.73
21.16
20.15
18.53
16.25
13.35
10.09
6.75
3.62
0.89
-1.41
-3.38
-5.20
-7.06
-9.08
-11.29
-13.64
-15.97
-18.11
-19.96
-21.50
-22.88
-24.38
-26.40
-29.33
-33.40
-38.45
-43.86
-48.49
-50.88
-49.61
-43.78
-33.27
-18.89
-2.18
14.89
30.36
42.69
50.97
55.02
55.25
52.50
47.70
41.74
35.38
29.18
23.63
19.10
15.86
14.00
13.38
13.70
14.53
15.50
16.29
16.74
16.72
16.11
14.82
12.73
9.86
6.31
2.35
-1.72
-5.61
-9.17
-12.39
-15.38
-18.29
-21.13
-23.85
-26.23
-28.08
-29.32
-30.04
-30.58
-31.37
-32.81
-35.00
-37.63
-39.86
-40.48
-38.13
-31.75
-20.93
-6.13
11.34
29.57
46.50
60.36
70.00
75.03
75.65
72.46
66.23
57.75
47.86
37.45
27.49
18.93
12.48
8.44
6.58
6.25
6.66
7.17
7.47
7.61
7.78
8.18
8.71
9.06
8.78
7.50
5.09
1.73
-2.17
-6.19
-9.98
-13.48
-16.78
-20.21
-24.14
-28.85
-34.42
-40.54
-46.55
-51.41
-53.94
-53.10
-48.28
-39.53
-27.58
-13.69
0.65
14.00
25.21
33.56
38.72
40.74
39.92
36.74
31.82
25.83
19.51
13.52
8.32
4.14
0.96
-1.42
-3.16
-4.34
-4.92
-4.91
-4.46
-3.91
-3.75
-4.45
-6.25
-9.10
-12.74
-16.74
-20.78
-24.68
-28.46
-32.35
-36.62
-41.48
-46.78
-51.90
-55.80
-57.16
-54.80
-48.11
-37.36
-23.66
-8.71
5.69
18.10
27.70
34.25
37.88
38.91
37.59
34.21
29.11
22.83
16.05
9.49
3.77
-0.78
-4.14
-6.49
-8.06
-9.05
-9.52
-9.42
-8.76
-7.61
-6.21
-4.88
-4.02
-3.99
-5.09
-7.53
-11.50
-17.04
-24.00
-31.85
-39.58
-45.76
-48.78
-47.23
-40.33
-28.19
-11.91
6.77
25.74
43.12
57.49
68.06
74.64
77.35
76.51
72.42
65.44
56.07
45.08
33.52
22.48
12.84
4.92
-1.61
-7.57
-13.81
-20.76
-28.18
-35.23
-40.83
-44.19
-45.12
-44.15
-42.28
-40.67
-40.30
-41.70
-44.90
-49.36
-54.03
-57.48
-58.14
-54.73
-46.65
-34.28
-18.95
-2.68
12.36
24.34
32.19
35.67
35.21
31.64
25.87
18.78
11.17
3.77
-2.69
-7.68
-10.86
-12.29
-12.36
-11.70
-10.99
-10.74
-11.16
-12.21
-13.68
-15.34
-17.14
-19.24
-22.06
-26.04
-31.58
-38.69
-46.99
-55.59
-63.22
-68.40
-69.67
-65.94
-56.75
-42.52
-24.50
-4.58
15.17
32.94
47.41
57.89
64.08
65.99
63.81
58.05
49.57
39.66
29.84
21.48
15.48
12.01
10.58
10.32
10.36
10.13
9.47
8.47
7.27
5.88
4.09
1.56
-2.08
-7.16
-13.89
-22.17
-31.50
-40.79
-48.41
-52.57
-51.79
-45.55
-34.56
-20.57
-5.88
7.41
17.93
25.26
29.74
32.13
33.16
33.39
33.21
32.88
32.69
32.82
33.23
33.53
32.95
30.54
25.53
17.60
7.13
-4.84
-16.78
-27.10
-34.44
-38.05
-38.01
-35.20
-31.17
-27.82
-26.94
-29.78
-36.70
-46.92
-58.60
-69.11
-75.65
-75.87
-68.57
-53.99
-33.72
-10.23
13.77
35.93
54.58
68.67
77.72
81.64
80.67
75.43
66.90
56.36
45.18
34.61
25.65
18.98
14.95
13.63
14.78
17.79
21.70
25.28
27.26
26.71
23.17
16.85
8.44
-1.05
-10.65
-19.65
-27.76
-35.22
-42.58
-50.46
-59.14
-68.17
-76.16
-80.99
-80.42
-72.90
-58.23
-37.79
-14.16
9.62
30.94
48.15
60.66
68.62
72.50
72.78
69.87
64.30
56.83
48.50
40.50
33.91
29.39
27.07
26.57
27.17
28.10
28.74
28.73
28.02
26.68
24.79
22.27
18.88
14.29
8.25
0.73
-7.91
-17.06
-25.93
-33.81
-40.32
-45.45
-49.66
-53.70
-58.48
-64.73
-72.73
-81.93
-90.84
-97.16
-98.28
-92.03
-77.44
-55.14
-27.34
2.74
31.59
56.29
74.90
86.68
91.86
91.35
86.37
78.24
68.26
57.71
47.77
39.43
33.39
29.87
28.55
28.70
29.33
29.56
28.84
27.02
24.36
21.23
17.98
14.74
11.39
7.69
3.40
-1.54
-7.03
-12.74
-18.30
-23.40
-27.83
-31.59
-34.79
-37.76
-40.97
-45.02
-50.46
-57.49
-65.67
-73.71
-79.63
-81.17
-76.47
-64.68
-46.37
-23.41
1.46
25.36
45.87
61.41
71.32
75.70
75.15
70.57
63.04
53.80
44.11
35.20
28.11
23.44
21.37
21.50
23.14
25.44
27.67
29.34
30.21
30.15
29.09
26.93
23.67
19.44
14.52
9.31
4.08
-1.05
-6.20
-11.53
-17.10
-22.77
-28.21
-33.10
-37.31
-40.96
-44.43
-48.23
-52.83
-58.46
-64.88
-71.21
-75.94
-77.14
-72.97
-62.29
-45.18
-23.06
1.54
25.63
46.55
62.46
72.61
77.17
76.93
72.85
65.94
57.16
47.52
38.11
30.01
24.10
20.80
19.98
20.99
22.94
24.98
26.52
27.29
27.24
26.39
24.73
22.19
18.71
14.28
9.03
3.20
-2.94
-9.12
-15.13
-20.83
-26.13
-31.04
-35.55
-39.76
-43.81
-47.92
-52.36
-57.44
-63.30
-69.68
-75.71
-79.86
-80.25
-75.17
-63.71
-46.26
-24.55
-1.18
21.05
39.90
54.06
63.12
67.31
67.13
63.14
56.01
46.60
36.04
25.65
16.70
10.07
6.02
4.17
3.65
3.51
2.99
1.80
0.12
-1.58
-2.78
-3.14
-2.59
-1.44
-0.16
0.56
0.09
-2.13
-6.35
-12.48
-20.03
-28.16
-35.95
-42.58
-47.65
-51.26
-53.95
-56.47
-59.45
-62.97
-66.39
-68.38
-67.24
-61.44
-50.19
-33.83
-13.80
7.68
28.20
45.65
58.60
66.36
68.79
66.23
59.34
49.16
37.09
24.83
14.14
6.45
2.53
2.32
4.99
9.34
14.16
18.62
22.35
25.28
27.39
28.43
27.90
25.31
20.44
13.62
5.80
-1.71
-7.70
-11.45
-13.03
-13.29
-13.52
-15.08
-18.90
-25.19
-33.33
-41.89
-48.88
-52.07
-49.53
-40.16
-24.20
-3.29
19.74
41.71
59.81
72.32
78.65
79.05
74.13
64.51
50.87
34.10
15.54
-3.07
-19.93
-33.57
-43.25
-48.88
-50.99
-50.30
-47.50
-43.15
-37.65
-31.43
-25.01
-19.04
-14.26
-11.33
-10.53
-11.71
-14.28
-17.47
-20.59
-23.33
-25.85
-28.63
-32.28
-37.19
-43.30
-49.97
-55.88
-59.35
-58.68
-52.66
-40.94
-24.28
-4.33
16.73
36.79
54.18
67.88
77.40
82.65
83.78
81.12
75.25
67.11
57.87
48.80
40.99
35.13
31.35
29.38
28.66
28.65
28.92
29.19
29.22
28.77
27.50
25.06
21.25
16.07
9.79
2.87
-4.14
-10.77
-16.75
-22.08
-27.09
-32.28
-38.12
-44.75
-51.70
-57.85
-61.50
-60.93
-54.85
-42.94
-25.96
-5.62
15.82
36.09
53.29
66.13
73.95
76.67
74.67
68.79
60.18
50.22
40.30
31.60
24.91
20.56
18.52
18.44
19.94
22.63
26.13
30.00
33.56
35.92
36.06
33.13
26.69
16.89
4.46
-9.57
-24.21
-38.79
-53.16
-67.43
-81.78
-96.01
-109.36
-120.51
-127.74
-129.28
-123.79
-110.77
-90.96
-66.40
-40.12
-15.55
4.35
17.70
24.09
24.32
19.97
12.70
3.80
-5.85
-15.75
-25.37
-34.12
-41.30
-46.31
-48.82
-48.93
-47.09
-44.10
-40.79
-37.84
-35.65
-34.20
-33.18
-32.19
-30.99
-29.67
-28.66
-28.61
-30.11
-33.54
-38.99
-46.29
-55.02
-64.45
-73.33
-79.93
-82.16
-78.19
-67.00
-48.96
-25.85
-0.45
24.23
45.69
62.37
73.66
79.59
80.50
76.89
69.36
58.82
46.49
33.88
22.43
13.31
7.21
4.30
4.38
6.98
11.53
17.29
23.47
29.19
33.65
36.21
36.51
34.53
30.54
25.05
18.67
12.00
5.48
-0.76
-6.88
-13.22
-19.92
-26.63
-32.29
-35.30
-34.08
-27.61
-15.98
-0.35
17.31
34.88
50.57
63.14
71.99
76.87
77.81
75.02
69.00
60.55
50.71
40.64
31.39
23.82
18.47
15.53
14.91
16.28
19.02
22.43
25.66
27.89
28.44
26.88
23.14
17.51
10.54
2.94
-4.61
-11.65
-18.02
-23.96
-29.95
-36.48
-43.74
-51.31
-58.05
-62.23
-62.04
-56.12
-44.08
-26.68
-5.76
16.25
36.81
53.78
65.77
72.14
73.01
69.07
61.40
51.30
40.18
29.45
20.31
13.61
9.65
8.24
8.74
10.41
12.57
14.73
16.59
17.88
18.20
17.09
14.21
9.45
3.15
-4.04
-11.35
-18.15
-24.16
-29.48
-34.60
-40.08
-46.44
-53.80
-61.69
-68.93
-73.81
-74.45
-69.39
-58.13
-41.44
-21.24
-0.09
19.42
35.35
46.67
53.21
55.34
53.74
49.20
42.59
35.02
27.73
21.91
18.46
17.69
19.36
22.80
27.21
31.98
36.71
41.19
45.18
48.32
50.04
49.76
47.14
42.23
35.66
28.43
21.67
16.21
12.41
10.02
8.43
6.90
4.97
2.72
0.94
1.09
5.03
14.54
30.72
53.42
81.00
110.64
139.04
163.39
182.05
194.74
202.29
205.93
206.75
205.55
202.89
199.42
195.81
192.58
189.76
186.65
182.04
174.76
164.20
150.70
135.36
119.58
104.52
90.71
77.97
65.69
53.17
39.82
25.21
9.08
-8.99
-29.73
-54.07
-82.77
-115.73
-151.47
-187.12
-219.03
-243.91
-259.61
-265.56
-262.29
-250.70
-231.43
-204.95
-172.11
-134.78
-95.86
-58.66
-25.78
1.59
23.65
41.26
55.00
64.77
70.11
70.86
67.92
63.29
59.41
58.33
60.97
66.91
74.65
82.15
87.35
88.65
85.23
77.28
65.95
52.99
40.21
28.85
19.20
10.66
2.18
-7.20
-17.92
-29.78
-42.09
-53.93
-64.45
-73.03
-79.53
-84.16
-87.39
-89.62
-90.76
-90.23
-86.96
-80.04
-69.08
-54.56
-37.72
-20.13
-3.17
12.29
25.83
37.18
45.82
50.99
51.85
47.95
39.55
27.73
14.06
0.09
-13.05
-24.91
-35.55
-45.19
-53.89
-61.39
-67.31
-71.52
-74.44
-77.03
-80.46
-85.55
-92.37
-100.12
-107.59
-113.76
-118.29
-121.75
-125.32
-130.19
-137.02
-145.50
-154.36
-161.57
-164.92
-162.56
-153.59
-138.34
-118.36
-95.92
-73.46
-53.05
-36.02
-23.09
-14.49
-10.33
-10.60
-15.00
-22.77
-32.58
-42.72
-51.41
-57.32
-59.87
-59.36
-56.74
-53.32
-50.37
-48.81
-49.05
-50.92
-53.87
-57.13
-60.00
-61.93
-62.56
-61.65
-59.00
-54.42
-47.86
-39.56
-30.06
-20.20
-10.72
-2.12
5.54
12.53
19.25
26.21
34.06
43.77
56.55
73.46
94.76
119.21
143.99
165.03
178.23
180.66
171.52
152.36
126.49
98.05
70.95
48.26
31.77
21.99
18.20
18.70
21.15
23.07
22.50
18.43
10.99
1.26
-9.21
-19.00
-27.25
-33.71
-38.68
-42.89
-47.26
-52.74
-60.13
-69.72
-81.12
-93.12
-103.82
-111.10
-113.10
-108.84
-98.47
-83.27
-65.14
-46.07
-27.53
-10.29
5.56
20.13
33.31
44.55
53.02
57.88
58.67
55.41
48.50
38.59
26.50
13.28
0.12
-11.80
-21.71
-29.62
-36.37
-43.33
-51.71
-61.88
-73.09
-83.63
-91.42
-94.83
-93.26
-87.25
-78.34
-68.56
-59.85
-53.60
-50.28
-49.38
-49.49
-48.78
-45.49
-38.64
-28.35
-15.98
-3.81
5.80
11.30
12.69
11.71
11.23
14.16
22.19
34.99
50.23
64.46
74.34
77.99
75.70
69.83
64.11
62.51
67.99
81.65
102.18
125.88
147.32
160.56
160.78
145.75
116.59
77.47
34.33
-6.89
-41.73
-67.95
-85.28
-94.51
-96.60
-92.12
-81.27
-64.22
-41.35
-13.34
18.99
54.61
92.00
128.95
162.57
189.80
208.11
216.18
214.05
202.78
184.02
159.60
131.59
102.35
74.47
50.31
31.38
17.77
8.29
0.89
-6.46
-15.22
-25.86
-37.91
-50.09
-60.63
-67.57
-69.28
-64.78
-54.17
-38.63
-20.36
-2.14
13.12
23.04
26.17
22.25
12.13
-2.51
-19.67
-37.50
-54.46
-69.61
-82.38
-92.71
-100.79
-107.08
-112.04
-116.01
-119.08
-121.03
-121.49
-120.06
-116.42
-110.39
-102.05
-91.71
-79.97
-67.64
-55.53
-44.36
-34.54
-26.19
-19.23
-13.45
-8.62
-4.55
-1.29
0.84
1.17
-1.13
-6.72
-15.72
-27.54
-40.98
-54.68
-67.52
-78.69
-87.67
-93.78
-96.14
-93.87
-86.71
-75.66
-63.06
-52.26
-46.50
-47.87
-56.48
-70.43
-86.38
-100.61
-110.04
-112.81
-108.45
-97.58
-81.53
-62.06
-41.06
-20.43
-1.64
14.42
27.78
39.07
49.15
58.37
66.20
71.25
71.72
66.20
54.15
36.34
14.68
-8.05
-28.75
-44.49
-53.12
-53.63
-46.37
-32.96
-15.81
2.41
19.41
33.46
43.56
49.19
50.23
46.89
39.65
29.43
17.45
5.15
-6.16
-15.59
-22.89
-28.52
-33.25
-37.94
-42.99
-48.33
-53.47
-57.96
-61.71
-65.08
-68.77
-73.51
-79.69
-87.39
-96.42
-106.35
-116.54
-125.97
-133.25
-136.84
-135.48
-128.58
-116.33
-99.44
-78.57
-54.08
-25.92
5.71
39.70
73.49
103.23
124.78
135.10
133.56
122.35
105.88
89.24
76.53
69.64
68.04
69.50
71.33
71.54
69.45
65.67
61.56
58.45
57.02
56.95
57.00
55.54
51.40
44.68
36.93
30.73
28.58
32.02
40.94
53.90
68.80
83.70
97.27
108.69
117.33
122.36
122.80
117.82
107.26
91.91
73.47
54.11
35.70
19.23
4.54
-9.39
-23.80
-39.33
-55.44
-70.51
-82.33
-89.10
-90.16
-86.38
-79.93
-73.57
-69.78
-69.95
-73.86
-79.62
-84.07
-83.59
-75.38
-58.37
-33.69
-4.37
25.74
53.18
75.90
93.49
106.79
117.01
125.01
131.03
134.85
136.24
135.45
133.19
130.32
127.36
123.89
118.64
110.01
97.06
80.33
62.00
45.11
32.20
24.09
19.31
14.66
6.48
-7.81
-28.79
-55.01
-83.59
-111.28
-135.18
-153.30
-164.63
-169.10
-167.42
-160.92
-151.16
-139.73
-127.93
-116.67
-106.58
-97.97
-90.90
-84.86
-78.57
-70.04
-56.88
-37.30
-10.93
20.96
55.85
90.92
123.86
153.22
177.93
196.75
208.06
210.58
204.49
192.01
176.83
162.51
150.84
141.41
132.60
123.34
114.40
108.01
106.34
109.90
116.80
123.72
127.58
126.82
121.51
112.41
99.87
83.55
63.28
40.26
17.55
-0.65
-10.73
-11.40
-4.41
5.95
14.66
17.88
14.18
4.80
-7.43
-19.32
-28.52
-34.10
-36.44
-36.82
-36.94
-38.64
-43.54
-52.64
-65.85
-81.71
-97.65
-110.57
-117.81
-118.05
-111.73
-100.80
-88.15
-76.55
-67.87
-62.44
-58.89
-54.52
-46.17
-31.44
-9.67
17.38
45.85
70.86
88.13
95.35
92.88
83.25
70.12
56.88
45.52
36.35
28.31
19.65
8.77
-5.34
-22.85
-43.35
-66.14
-90.54
-115.88
-141.39
-165.94
-187.84
-205.06
-215.61
-218.14
-212.36
-199.15
-180.31
-158.03
-134.42
-111.17
-89.70
-71.32
-57.55
-49.91
-49.58
-56.58
-69.30
-84.38
-97.38
-103.97
-101.33
-89.01
-69.22
-46.03
-24.04
-7.07
2.86
5.71
2.84
-3.81
-12.56
-22.39
-32.98
-44.36
-56.57
-69.42
-82.23
-93.74
-102.05
-104.85
-99.97
-86.17
-63.81
-35.07
-3.38
27.60
54.97
77.21
94.17
106.77
116.50
124.87
132.93
140.84
147.57
151.35
150.58
145.05
136.58
128.58
124.63
126.73
134.40
144.96
154.97
161.84
164.64
163.89
160.64
155.53
148.46
138.77
125.50
107.69
84.62
56.34
24.28
-8.13
-35.84
-53.38
-56.82
-45.31
-21.27
10.64
45.29
78.76
108.85
134.70
155.99
172.32
183.36
189.16
190.31
187.59
181.43
171.51
156.81
136.12
108.90
76.05
40.31
6.02
-21.76
-38.68
-42.62
-34.52
-18.19
0.95
17.80
29.10
34.00
33.57
29.64
23.67
16.52
8.79
1.45
-3.93
-5.46
-1.59
8.26
23.42
42.22
62.54
82.28
99.68
113.35
122.16
125.17
121.69
111.42
94.69
72.52
46.57
19.00
-7.84
-31.73
-51.03
-64.96
-73.72
-78.32
-80.18
-80.72
-80.85
-81.05
-81.43
-82.10
-83.22
-85.01
-87.75
-91.68
-97.19
-104.65
-114.18
-125.09
-135.45
-142.08
-141.43
-130.77
-109.48
-79.53
-45.03
-10.90
18.61
40.85
54.98
61.55
61.78
57.15
49.23
39.74
30.48
23.20
19.17
18.78
21.43
25.61
29.40
31.01
29.28
23.93
15.52
5.11
-6.16
-17.49
-28.68
-39.99
-51.99
-65.14
-79.50
-94.43
-108.45
-119.34
-124.50
-121.54
-109.11
-87.45
-58.49
-25.50
7.81
38.15
63.30
82.20
94.62
100.76
100.87
95.26
84.55
69.98
53.55
37.67
24.60
15.72
11.05
9.32
8.57
6.98
3.48
-1.93
-8.65
-15.98
-23.69
-32.10
-41.82
-53.27
-66.42
-80.85
-96.02
-111.40
-126.49
-140.39
-151.58
-157.82
-156.72
-146.51
-126.86
-99.17
-66.40
-32.28
-0.64
25.33
43.25
51.68
50.10
39.03
20.24
-3.24
-27.38
-47.96
-61.69
-66.99
-64.37
-55.89
-44.13
-31.14
-17.84
-4.22
9.95
24.40
38.12
49.59
57.44
60.93
59.91
54.50
44.62
30.03
10.87
-11.52
-34.10
-52.43
-61.96
-59.63
-45.15
-21.27
7.19
35.03
58.37
75.43
86.38
92.43
94.79
94.18
90.79
84.69
76.29
66.42
56.23
46.86
39.15
33.55
30.17
28.82
29.24
31.12
34.15
38.04
42.42
46.88
50.82
53.43
53.55
49.80
40.68
25.00
2.38
-26.22
-58.24
-89.89
-116.85
-135.34
-142.99
-139.18
-124.81
-101.85
-72.72
-40.13
-7.00
23.56
48.57
65.84
74.62
76.00
72.65
67.93
64.76
64.70
67.55
71.76
75.09
75.47
71.48
62.40
48.06
28.57
4.40
-23.58
-54.07
-85.68
-117.41
-149.10
-181.16
-213.74
-245.58
-273.47
-292.87
-299.42
-290.85
-268.21
-235.73
-199.39
-164.99
-136.71
-116.54
-104.71
-100.29
-101.80
-107.30
-114.46
-120.78
-124.24
-123.90
-120.14
-114.38
-108.08
-101.86
-94.96
-85.65
-72.16
-53.84
-31.48
-6.88
18.23
43.15
68.23
94.13
120.54
145.55
166.15
179.73
185.74
186.26
185.43
187.59
195.52
209.34
226.93
245.07
260.85
272.58
279.82
282.79
281.64
275.94
264.79
247.47
224.32
197.37
170.21
146.87
130.17
120.34
114.74
109.07
99.53
84.72
66.29
48.11
34.26
27.12
26.30
28.89
30.58
27.34
16.59
-2.09
-27.11
-55.32
-82.79
-105.73
-121.21
-127.69
-125.24
-115.52
-101.40
-86.52
-74.22
-66.49
-63.36
-62.99
-62.52
-59.27
-51.68
-39.67
-24.27
-6.47
13.60
36.52
62.77
91.73
121.18
148.01
169.48
183.95
192.23
197.54
204.07
214.71
229.76
246.88
262.43
272.86
274.71
266.61
249.72
226.98
201.34
174.79
148.05
121.33
94.42
64.98
31.31
-6.23
-45.30
-83.54
-119.71
-154.36
-188.35
-222.36
-258.94
-299.20
-341.29
-380.81
-413.47
-436.84
-451.89
-460.40
-445.97
-398.81
-324.56
-242.24
-169.85
-116.01
-80.25
-60.33
-46.41
-28.21
-0.74
35.43
74.76
109.74
130.85
130.40
103.42
51.76
-17.49
-97.38
-182.03
-265.59
-340.47
-398.30
-414.72
-379.21
-304.63
-219.64
-150.09
-106.72
-86.33
-78.87
-74.56
-67.87
-61.03
-56.73
-55.14
-54.28
-51.70
-45.78
-36.08
-23.07
-7.54
8.39
20.14
27.43
32.51
38.05
45.65
55.68
67.52
80.27
91.82
100.90
108.54
117.00
128.51
144.32
164.66
188.54
213.51
234.84
246.79
244.84
226.65
192.88
147.09
94.90
42.56
-4.59
-43.25
-72.02
-90.78
-100.69
-104.04
-104.05
-104.24
-107.51
-115.21
-126.69
-139.37
-149.28
-152.30
-145.24
-126.63
-97.17
-59.50
-17.43
25.13
65.04
100.62
131.64
158.96
184.05
208.71
234.89
264.52
298.76
337.10
376.58
411.95
436.85
445.86
436.63
410.78
373.39
330.97
289.22
251.49
218.46
189.02
161.39
134.11
106.18
76.98
46.03
13.02
-21.87
-57.94
-93.92
-128.20
-159.32
-186.54
-210.19
-232.13
-255.57
-284.12
-320.01
-362.39
-406.70
-445.79
-472.39
-481.74
-473.07
-449.05
-414.09
-372.18
-325.78
-275.97
-223.30
-168.35
-111.61
-53.19
6.91
67.67
125.92
175.94
210.68
224.22
214.27
183.32
138.08
87.51
40.36
3.17
-20.49
-29.87
-26.55
-13.78
4.06
21.99
35.31
40.49
36.05
22.74
3.16
-18.93
-39.83
-56.59
-67.38
-71.54
-69.37
-61.89
-50.47
-36.48
-20.97
-4.50
12.67
30.21
47.27
62.09
72.34
75.87
71.84
61.57
48.67
38.24
35.17
42.37
59.51
83.13
108.12
129.75
145.29
154.54
159.09
161.13
162.37
163.49
164.19
163.52
160.33
153.77
143.64
130.68
116.45
102.78
90.87
80.76
71.20
60.44
47.12
31.02
12.89
-6.15
-25.33
-44.50
-63.91
-83.78
-104.01
-124.14
-143.42
-160.97
-175.70
-186.33
-191.50
-190.14
-181.79
-166.79
-146.15
-121.06
-92.57
-61.54
-28.73
4.88
38.00
69.10
96.52
118.46
132.84
137.43
130.01
108.89
73.58
25.28
-33.10
-97.39
-162.92
-225.16
-279.95
-323.42
-352.16
-363.78
-358.20
-338.62
-311.53
-284.86
-265.09
-254.49
-250.23
-245.80
-234.43
-212.22
-179.72
-141.03
-101.30
-64.23
-30.90
-0.24
29.66
60.16
91.42
122.60
152.55
180.44
206.12
229.97
252.61
274.35
294.86
313.25
328.44
339.60
346.31
348.38
345.45
336.88
322.11
301.33
275.90
248.25
221.05
196.33
174.92
156.64
140.94
127.42
116.12
107.12
100.24
94.93
90.50
86.50
83.03
80.56
79.54
80.04
81.59
83.40
84.61
84.52
82.76
79.24
74.13
67.66
60.05
51.22
40.73
27.93
12.44
-5.50
-24.80
-43.78
-60.71
-74.51
-85.00
-92.83
-99.00
-104.37
-109.48
-114.52
-119.53
-124.50
-129.30
-133.67
-137.18
-139.45
-140.37
-140.25
-139.69
-139.23
-139.07
-138.83
-137.74
-134.94
-129.81
-122.13
-112.00
-99.70
-85.67
-70.63
-55.62
-41.97
-30.96
-23.32
-18.88
-16.63
-15.03
-12.63
-8.48
-2.31
5.64
14.82
24.57
34.23
43.06
50.32
55.34
57.66
57.18
54.24
49.46
43.66
37.65
32.10
27.44
23.92
21.63
20.65
20.99
22.59
25.23
28.49
31.70
34.15
35.22
34.48
31.88
27.68
22.43
16.79
11.44
6.88
3.43
1.19
0.07
-0.08
0.45
1.34
2.24
2.91
3.22
3.24
3.07
2.83
2.45
1.69
0.24
-2.13
-5.45
-9.48
-13.77
-17.77
-20.96
-23.01
-23.81
-23.53
-22.55
-21.32
-20.25
-19.55
-19.18
-18.95
-18.58
-17.86
-16.66
-15.00
-12.90
-10.42
-7.58
-4.44
-1.10
2.28
5.46
8.23
10.37
11.77
12.40
12.34
11.76
10.85
9.76
8.58
7.33
6.00
4.66
3.42
2.39
1.57
0.82
-0.08
-1.31
-2.84
-4.39
-5.52
-5.81
-5.10
-3.58
-1.64
0.20
1.56
2.29
2.40
2.00
1.09
-0.41
-2.56
-5.32
-8.45
-11.50
-14.04
-15.81
-16.86
-17.53
-18.33
-19.63
-21.54
-23.80
-25.84
-27.04
-27.01
-25.71
-23.52
-21.06
-18.92
-17.42
-16.62
-16.34
-16.40
-16.78
-17.52
-18.68
-20.07
-21.32
-21.94
-21.51
-19.90
-17.29
-14.06
-10.64
-7.38
-4.47
-1.99
-0.00
1.44
2.25
2.40
1.95
1.06
-0.04
-1.18
-2.21
-3.15
-4.04
-4.98
-6.01
-7.17
-8.49
-9.98
-11.69
-13.62
-15.73
-17.87
-19.95
-21.89
-23.81
-25.91
-28.35
-31.09
-33.78
-35.82
-36.48
-35.15
-31.53
-25.71
-18.15
-9.57
-0.83
7.30
14.15
19.30
22.53
23.90
23.62
22.09
19.80
17.25
14.91
13.06
11.72
10.66
9.50
7.95
5.94
3.71
1.66
0.16
-0.69
-1.11
-1.52
-2.36
-3.86
-6.03
-8.72
-11.72
-14.83
-17.86
-20.54
-22.52
-23.51
-23.34
-22.11
-20.11
-17.68
-15.07
-12.33
-9.42
-6.35
-3.27
-0.48
1.70
3.07
3.63
3.56
3.17
2.78
2.62
2.75
3.05
3.32
3.32
2.96
2.30
1.57
1.01
0.72
0.64
0.51
0.12
-0.69
-1.86
-3.24
-4.61
-5.77
-6.53
-6.75
-6.42
-5.56
-4.32
-2.76
-0.88
1.54
4.73
8.80
13.63
18.73
23.49
27.31
29.88
31.23
31.71
31.90
32.36
33.62
35.99
39.53
43.82
47.96
50.60
50.24
45.72
36.64
23.79
8.88
-5.81
-18.17
-26.99
-32.21
-34.82
-36.23
-37.59
-39.39
-41.39
-42.95
-43.48
-42.73
-40.76
-37.69
-33.36
-27.36
-19.20
-8.80
3.14
15.25
25.78
33.26
36.91
36.80
33.69
28.60
22.44
15.79
8.92
1.82
-5.58
-13.44
-21.79
-30.50
-38.99
-46.24
-50.89
-51.68
-48.18
-41.27
-33.36
-27.79
-27.79
-35.32
-50.13
-69.54
-89.15
-104.09
-110.68
-107.69
-96.69
-81.51
-66.96
-57.10
-54.07
-57.60
-65.39
-74.16
-81.02
-84.36
-84.30
-82.29
-80.38
-80.35
-83.14
-88.50
-95.23
-101.50
-105.45
-105.71
-101.75
-93.86
-82.89
-69.86
-55.55
-40.26
-23.88
-6.16
12.95
33.04
53.19
72.22
89.06
102.99
113.84
121.84
127.52
131.40
133.94
135.50
136.40
136.90
137.02
136.30
133.82
128.74
120.92
111.54
102.94
97.73
97.63
102.54
110.66
119.31
126.18
130.05
130.77
128.66
123.83
116.21
105.94
93.98
82.12
72.44
66.23
63.39
62.53
61.70
59.39
55.07
49.19
42.51
35.66
28.76
21.65
14.28
6.80
-0.50
-7.55
-14.60
-22.21
-30.82
-40.46
-50.67
-60.57
-69.26
-75.99
-80.35
-82.22
-81.78
-79.59
-76.58
-74.10
-73.66
-76.71
-84.18
-96.09
-111.32
-127.73
-142.78
-154.20
-160.62
-161.81
-158.46
-151.58
-142.14
-130.78
-118.04
-104.59
-91.28
-79.03
-68.45
-59.71
-52.49
-46.32
-40.80
-35.73
-31.06
-26.73
-22.54
-18.22
-13.38
-7.67
-0.94
6.68
14.82
23.01
30.91
38.29
45.07
51.06
55.81
58.76
59.46
57.96
54.90
51.28
48.21
46.48
46.53
48.55
52.64
58.92
67.31
77.32
87.89
97.54
104.71
108.26
107.71
103.38
96.30
87.77
79.18
71.57
65.59
61.45
58.97
57.46
55.72
51.99
44.23
30.80
11.12
-13.79
-41.36
-68.09
-90.61
-106.55
-115.04
-116.67
-112.85
-105.30
-95.52
-84.63
-73.53
-62.90
-53.37
-45.39
-39.11
-34.27
-30.25
-26.31
-22.00
-17.46
-13.42
-10.89
-10.42
-11.60
-12.85
-11.82
-6.25
5.09
21.74
41.65
61.79
79.26
92.11
99.88
103.40
104.23
103.98
103.80
104.06
104.34
103.46
99.78
91.53
77.43
57.33
32.57
5.85
-19.59
-40.99
-56.86
-67.22
-73.06
-75.60
-75.82
-74.23
-71.23
-67.38
-63.41
-60.03
-57.66
-56.28
-55.61
-55.35
-55.33
-55.58
-56.19
-57.23
-58.71
-60.50
-62.23
-63.15
-62.24
-58.51
-51.45
-41.40
-29.69
-18.14
-8.42
-1.44
2.89
5.42
7.21
8.95
10.76
12.35
13.26
13.31
12.61
11.50
10.33
9.28
8.39
7.65
7.03
6.58
6.22
5.77
4.86
3.12
0.37
-3.28
-7.33
-11.18
-14.29
-16.34
-17.26
-17.11
-15.91
-13.60
-10.17
-5.69
-0.53
4.79
9.65
13.61
16.44
18.23
19.20
19.66
19.86
20.00
20.23
20.63
21.20
21.83
22.35
22.68
22.81
22.82
22.73
22.42
21.59
19.89
17.14
13.44
9.12
4.54
-0.10
-4.80
-9.69
-14.85
-20.08
-25.00
-29.04
-31.69
-32.63
-31.77
-29.28
-25.50
-20.93
-16.04
-11.25
-6.82
-2.81
0.88
4.44
7.91
11.12
13.71
15.21
15.39
14.32
12.50
10.52
8.82
7.48
6.23
4.70
2.77
0.62
-1.30
-2.63
-3.33
-3.71
-4.21
-5.13
-6.41
-7.67
-8.39
-8.16
-6.78
-4.30
-0.96
2.86
6.76
10.43
13.68
16.47
18.89
20.96
22.58
23.51
23.52
22.54
20.79
18.70
16.70
15.02
13.61
12.18
10.50
8.46
6.19
3.96
2.06
0.68
-0.16
-0.57
-0.76
-1.00
-1.57
-2.73
-4.63
-7.33
-10.78
-14.85
-19.30
-23.78
-27.80
-30.72
-31.95
-31.08
-28.02
-23.13
-17.09
-10.77
-5.09
-0.76
1.73
2.26
1.05
-1.45
-4.58
-7.79
-10.60
-12.76
-14.09
-14.49
-13.84
-12.04
-9.12
-5.20
-0.54
4.56
9.80
14.92
19.66
23.82
27.31
30.18
32.58
34.67
36.51
37.87
38.32
37.41
34.89
30.83
25.68
19.98
14.18
8.46
2.77
-3.00
-8.81
-14.39
-19.31
-23.24
-26.09
-28.16
-29.98
-32.14
-35.10
-39.01
-43.72
-48.81
-53.63
-57.35
-59.14
-58.34
-54.70
-48.46
-40.30
-31.10
-21.69
-12.62
-4.23
3.30
9.82
15.19
19.34
22.35
24.47
26.02
27.26
28.27
29.08
29.66
30.10
30.59
31.36
32.56
34.16
35.94
37.56
38.60
38.70
37.62
35.31
31.88
27.68
23.17
18.89
15.33
12.81
11.42
10.97
11.12
11.48
11.76
11.84
11.72
11.44
10.93
9.92
8.00
4.66
-0.47
-7.49
-16.15
-25.75
-35.32
-43.73
-49.95
-53.26
-53.37
-50.42
-44.90
-37.52
-29.05
-20.29
-11.91
-4.46
1.76
6.69
10.51
13.51
15.93
17.93
19.49
20.55
21.16
21.53
22.01
22.95
24.58
26.84
29.45
32.01
34.13
35.68
36.70
37.40
38.05
38.79
39.59
40.27
40.51
39.94
38.19
34.91
29.95
23.39
15.71
7.68
0.13
-6.20
-10.99
-14.29
-16.48
-18.03
-19.28
-20.40
-21.50
-22.75
-24.48
-27.14
-30.94
-35.67
-40.57
-44.53
-46.51
-45.91
-42.85
-38.05
-32.47
-26.91
-21.72
-16.81
-11.93
-6.87
-1.70
3.30
7.85
11.71
14.85
17.27
19.06
20.20
20.67
20.44
19.63
18.40
17.02
15.74
14.71
13.93
13.28
12.63
11.89
11.12
10.43
9.96
9.73
9.69
9.72
9.73
9.69
9.63
9.59
9.53
9.35
8.84
7.76
5.93
3.22
-0.34
-4.54
-9.01
-13.28
-16.88
-19.43
-20.66
-20.44
-18.81
-15.93
-12.10
-7.75
-3.34
0.72
4.17
6.94
9.11
10.91
12.60
14.36
16.23
18.06
19.61
20.63
21.03
20.95
20.61
20.30
20.15
20.17
20.26
20.34
20.46
20.69
21.10
21.54
21.75
21.43
20.44
18.91
17.25
15.92
15.19
15.07
15.27
15.43
15.27
14.67
13.66
12.26
10.37
7.73
4.08
-0.74
-6.60
-13.14
-19.80
-25.95
-30.98
-34.29
-35.44
-34.13
-30.36
-24.41
-16.88
-8.59
-0.48
6.55
11.86
15.10
16.32
15.88
14.39
12.46
10.60
9.12
8.18
7.86
8.27
9.51
11.66
14.65
18.24
22.07
25.77
28.93
31.18
32.08
31.27
28.50
23.89
17.91
11.38
5.13
-0.23
-4.51
-7.83
-10.50
-12.74
-14.58
-16.02
-17.15
-18.35
-20.23
-23.47
-28.46
-35.15
-43.06
-51.39
-59.31
-66.10
-71.24
-74.33
-75.15
-73.61
-69.95
-64.65
-58.36
-51.68
-44.99
-38.32
-31.51
-24.42
-17.01
-9.46
-2.06
4.89
11.17
16.65
21.33
25.30
28.76
31.97
35.18
38.50
41.76
44.43
45.73
44.80
41.00
34.17
24.76
13.82
2.83
-6.69
-13.43
-16.50
-15.56
-10.79
-2.81
7.35
18.40
28.84
37.26
42.62
44.47
43.11
39.46
34.71
30.00
26.04
23.09
21.11
19.95
19.48
19.52
19.77
19.73
18.86
16.84
13.72
10.00
6.42
3.65
2.07
1.75
2.49
4.07
6.29
9.03
12.19
15.58
18.95
22.00
24.42
26.00
26.54
25.95
24.25
21.54
18.01
13.92
9.50
4.88
0.03
-5.15
-10.78
-16.89
-23.25
-29.42
-34.78
-38.79
-41.06
-41.50
-40.28
-37.68
-34.06
-29.70
-24.80
-19.56
-14.20
-8.92
-3.97
0.43
4.08
6.80
8.49
9.08
8.58
7.03
4.47
0.90
-3.57
-8.61
-13.61
-17.56
-19.29
-17.84
-12.94
-5.22
3.86
12.57
19.53
24.12
26.61
27.69
28.04
27.94
27.24
25.63
22.93
19.32
15.10
10.55
5.66
0.32
-5.57
-11.88
-18.32
-24.51
-30.26
-35.57
-40.54
-45.12
-49.03
-51.71
-52.64
-51.51
-48.45
-43.97
-38.73
-33.28
-27.88
-22.53
-17.16
-11.76
-6.53
-1.83
1.97
4.58
5.89
5.88
4.59
2.09
-1.51
-5.84
-10.28
-14.02
-16.26
-16.50
-14.69
-11.30
-6.98
-2.45
1.83
5.61
8.74
11.09
12.49
12.79
12.10
10.81
9.57
9.15
10.20
13.15
18.14
25.01
33.36
42.52
51.76
60.38
67.87
73.96
78.57
81.77
83.72
84.60
84.65
84.13
83.19
81.79
79.53
75.71
69.43
59.92
46.79
30.29
11.33
-8.72
-28.32
-46.21
-61.71
-74.74
-85.74
-95.21
-103.48
-110.64
-116.65
-121.46
-125.10
-127.49
-128.27
-126.76
-122.16
-113.99
-102.36
-88.02
-72.08
-55.65
-39.54
-24.27
-10.25
2.13
12.48
20.63
26.72
31.23
34.75
37.74
40.43
42.90
45.21
47.52
49.99
52.62
55.15
57.07
57.86
57.14
54.82
51.04
46.07
40.17
33.56
26.44
19.00
11.40
3.60
-4.60
-13.51
-23.41
-34.31
-45.80
-57.07
-66.97
-74.29
-78.05
-77.79
-73.71
-66.55
-57.45
-47.51
-37.56
-27.99
-18.85
-10.03
-1.51
6.62
14.08
20.65
26.17
30.61
34.02
36.50
38.17
39.21
39.77
40.01
40.06
40.04
40.03
40.08
40.18
40.28
40.22
39.79
38.79
37.08
34.60
31.37
27.46
22.94
17.91
12.47
6.84
1.27
-3.93
-8.57
-12.64
-16.32
-19.86
-23.37
-26.80
-29.93
-32.63
-35.20
-38.45
-43.59
-51.75
-63.42
-78.09
-94.26
-109.88
-122.94
-131.88
-135.86
-134.75
-129.01
-119.53
-107.48
-94.05
-80.28
-66.88
-54.18
-42.21
-30.89
-20.13
-9.95
-0.46
8.12
15.38
20.68
23.31
22.80
19.42
14.33
9.38
6.39
6.44
9.56
14.93
21.56
28.93
37.17
46.92
58.89
73.62
91.52
112.68
136.66
161.82
184.81
200.84
204.91
193.71
167.12
128.55
83.74
38.73
-2.01
-36.41
-64.42
-86.91
-104.76
-118.54
-128.84
-136.76
-143.93
-152.17
-162.83
-176.31
-192.15
-209.24
-226.36
-242.21
-255.47
-264.67
-268.28
-265.13
-254.80
-237.96
-216.20
-191.63
-166.26
-141.56
-118.37
-97.12
-78.03
-61.26
-46.84
-34.57
-23.98
-14.46
-5.43
3.38
11.92
19.81
26.65
32.16
36.40
39.63
42.15
44.10
45.36
45.81
45.51
44.98
45.02
46.25
48.60
51.04
51.76
48.99
41.74
30.49
17.25
5.10
-2.58
-3.02
5.23
21.89
44.83
70.58
95.05
114.60
127.06
132.12
131.20
126.59
120.49
114.17
107.83
100.93
92.88
83.55
73.51
63.82
55.49
49.05
44.33
40.55
36.72
32.05
26.30
19.82
13.46
8.22
5.14
4.98
8.16
14.43
22.81
31.59
38.78
42.87
43.44
41.58
39.55
40.03
45.00
54.98
68.75
83.80
97.16
106.24
109.63
107.22
99.97
89.26
76.31
61.92
46.47
30.43
14.75
0.97
-9.17
-14.39
-14.56
-10.80
-5.16
0.10
3.34
3.88
1.99
-1.56
-6.05
-11.21
-17.24
-24.57
-33.57
-44.22
-56.09
-68.37
-79.95
-89.53
-95.63
-96.79
-91.82
-80.21
-62.47
-40.18
-15.73
8.27
29.59
46.83
59.57
68.08
73.06
75.25
75.35
74.00
71.87
69.60
67.74
66.55
66.00
65.80
65.53
64.86
63.59
61.67
59.04
55.64
51.41
46.32
40.35
33.50
25.70
16.79
6.51
-5.37
-18.85
-33.51
-48.35
-61.77
-71.85
-76.69
-74.95
-66.19
-51.12
-31.39
-9.23
13.04
33.46
50.60
63.64
72.26
76.53
76.86
73.93
68.67
62.24
55.84
50.48
46.75
44.62
43.57
42.76
41.44
39.20
36.10
32.52
28.91
25.54
22.42
19.34
15.99
12.13
7.51
1.88
-4.95
-12.98
-21.77
-30.15
-36.39
-38.57
-35.17
-25.73
-11.09
6.83
25.63
43.08
57.66
68.51
75.31
77.90
76.33
70.89
62.41
52.27
42.17
33.68
27.81
24.81
24.18
24.96
26.08
26.60
25.94
23.91
20.72
16.87
12.93
9.27
5.83
2.04
-2.94
-9.97
-19.60
-31.76
-45.74
-60.12
-72.95
-82.05
-85.42
-81.88
-71.41
-55.31
-35.87
-15.84
2.28
16.75
26.65
31.82
32.59
29.61
23.77
16.24
8.40
1.64
-2.88
-4.59
-3.64
-0.89
2.39
4.88
5.73
4.74
2.48
-0.07
-1.89
-2.41
-1.81
-1.03
-1.62
-5.26
-13.17
-25.58
-41.35
-58.01
-72.31
-81.00
-81.77
-73.80
-57.85
-35.98
-10.94
14.33
37.20
55.60
68.30
74.82
75.53
71.32
63.39
53.02
41.52
30.17
20.26
12.91
8.88
8.20
10.25
13.87
17.68
20.61
22.04
21.78
19.95
16.71
12.12
6.22
-0.97
-9.32
-18.70
-29.01
-40.25
-52.32
-64.65
-75.93
-84.07
-86.62
-81.58
-68.24
-47.61
-22.25
4.55
29.71
51.15
67.99
80.21
88.19
92.20
92.38
88.87
82.16
73.06
62.69
52.20
42.49
34.06
27.01
21.13
16.02
11.20
6.20
0.73
-5.29
-11.69
-18.11
-24.24
-29.93
-35.36
-41.01
-47.59
-55.84
-66.38
-79.27
-93.71
-107.91
-119.19
-124.65
-122.01
-110.46
-91.05
-66.37
-39.79
-14.45
7.45
24.87
37.67
46.12
50.67
51.79
50.05
46.21
41.20
35.97
31.40
28.23
27.05
28.25
31.90
37.67
44.72
51.94
58.25
62.99
66.04
67.66
68.25
67.89
66.39
63.28
58.16
50.83
41.24
29.44
15.57
0.08
-15.91
-30.39
-40.68
-44.20
-39.40
-26.58
-7.98
12.91
32.39
47.60
57.02
60.42
58.43
52.05
42.50
31.12
19.45
8.97
0.86
-4.39
-7.05
-8.03
-8.46
-9.30
-11.07
-13.78
-17.14
-20.65
-23.78
-26.06
-27.17
-27.12
-26.39
-25.98
-27.23
-31.50
-39.79
-52.55
-69.60
-90.03
-112.22
-133.67
-151.15
-161.19
-160.91
-149.04
-126.58
-96.57
-63.25
-30.79
-2.34
20.37
36.68
46.54
50.20
48.20
41.64
32.30
22.44
14.36
9.79
9.41
12.71
18.24
24.07
28.48
30.50
30.04
27.71
24.35
20.48
16.12
10.78
3.90
-4.88
-15.49
-27.54
-40.39
-53.19
-64.78
-73.58
-77.66
-75.17
-65.03
-47.41
-24.02
2.27
28.09
50.37
67.09
77.40
81.60
80.69
76.01
68.87
60.50
51.90
43.84
36.86
31.14
26.61
22.93
19.58
15.96
11.47
5.61
-1.88
-10.87
-20.87
-31.11
-40.90
-49.87
-58.16
-66.34
-75.15
-85.25
-96.91
-109.98
-123.70
-136.63
-146.58
-150.89
-146.88
-132.74
-108.31
-75.54
-38.15
-0.85
31.94
57.23
74.03
83.18
86.68
86.78
85.23
83.13
81.02
79.17
77.79
77.02
76.80
76.73
76.25
74.82
72.19
68.36
63.50
57.67
50.82
42.78
33.58
23.46
12.90
2.29
-8.33
-19.35
-31.54
-45.76
-62.53
-81.62
-101.91
-121.40
-137.48
-147.45
-149.06
-140.97
-123.20
-97.21
-65.72
-32.23
-0.31
27.20
48.63
63.58
72.67
76.98
77.74
76.12
73.16
69.86
66.99
64.98
63.78
62.93
61.96
60.74
59.55
58.84
58.73
58.69
57.68
54.54
48.57
39.89
29.27
17.82
6.55
-3.79
-12.83
-20.42
-26.82
-32.68
-39.01
-46.71
-56.00
-65.82
-73.84
-77.15
-73.38
-61.70
-43.19
-20.47
3.26
25.21
43.57
57.55
67.05
72.24
73.38
70.92
65.69
58.96
52.30
47.08
44.02
42.96
43.04
43.17
42.59
41.13
39.21
37.42
36.14
35.16
33.79
31.16
26.63
20.10
12.07
3.40
-4.99
-12.54
-19.18
-25.38
-31.86
-39.31
-47.99
-57.42
-66.37
-72.99
-75.25
-71.50
-61.02
-44.35
-23.33
-0.64
20.74
38.30
50.41
56.49
56.84
52.36
44.34
34.26
23.62
13.79
5.71
-0.12
-3.65
-5.07
-4.68
-2.70
0.51
4.35
7.91
10.15
10.22
7.78
3.13
-3.02
-9.88
-16.88
-23.78
-30.54
-37.13
-43.50
-49.62
-55.52
-61.27
-66.69
-71.17
-73.54
-72.31
-66.22
-54.81
-38.80
-19.94
-0.55
17.10
31.25
40.91
45.76
45.94
41.90
34.26
23.86
11.73
-0.90
-12.69
-22.44
-29.39
-33.50
-35.47
-36.46
-37.59
-39.46
-41.87
-44.05
-45.12
-44.61
-42.69
-40.08
-37.71
-36.42
-36.81
-39.24
-43.91
-50.67
-58.76
-66.53
-71.60
-71.45
-64.25
-49.69
-29.14
-5.41
18.21
38.85
54.67
65.03
70.12
70.40
66.36
58.45
47.35
34.26
20.89
9.18
0.76
-3.66
-4.40
-2.65
0.07
2.48
3.85
4.08
3.43
2.26
0.74
-1.13
-3.65
-7.25
-12.49
-19.90
-29.85
-42.21
-56.13
-69.92
-81.11
-87.06
-85.60
-75.80
-58.40
-35.70
-10.90
12.74
32.74
47.73
57.33
61.75
61.43
56.86
48.76
38.24
26.90
16.51
8.55
3.68
1.65
1.38
1.55
1.12
-0.34
-2.57
-4.97
-6.94
-8.29
-9.30
-10.69
-13.34
-18.10
-25.60
-36.09
-49.26
-64.11
-78.80
-90.89
-97.78
-97.42
-88.93
-72.90
-51.21
-26.38
-0.96
22.96
43.81
60.31
71.34
75.97
73.85
65.61
52.95
38.36
24.41
13.01
4.84
-0.55
-4.36
-7.81
-11.70
-16.19
-20.96
-25.56
-29.75
-33.70
-37.89
-43.05
-49.99
-59.33
-71.32
-85.51
-100.46
-113.81
-122.56
-123.87
-115.95
-98.60
-73.33
-42.95
-10.82
19.88
46.64
67.78
82.41
90.30
91.77
87.55
78.76
66.90
53.72
41.07
30.54
23.10
18.79
16.79
15.74
14.41
12.12
8.96
5.50
2.29
-0.55
-3.51
-7.54
-13.64
-22.47
-34.01
-47.40
-60.92
-72.27
-78.90
-78.66
-70.38
-54.19
-31.57
-4.99
22.68
48.71
70.86
87.57
97.91
101.56
98.78
90.47
78.13
63.66
49.13
36.32
26.37
19.62
15.63
13.47
12.08
10.66
8.88
6.79
4.70
2.89
1.40
-0.05
-2.11
-5.59
-11.27
-19.64
-30.43
-42.39
-53.24
-60.12
-60.30
-52.09
-35.38
-11.74
16.05
44.75
71.30
93.34
109.27
118.30
120.31
115.84
106.15
93.11
79.08
66.32
56.51
50.17
46.62
44.35
41.74
37.75
32.21
25.74
19.13
12.84
6.77
0.38
-6.90
-15.42
-25.25
-36.33
-48.68
-62.20
-76.37
-89.96
-100.93
-106.84
-105.58
-96.10
-78.85
-55.64
-29.14
-2.14
22.96
44.40
61.01
72.08
77.38
77.18
72.33
64.23
54.62
45.23
37.51
32.36
30.04
30.15
31.79
33.81
35.09
34.90
32.98
29.50
24.78
19.03
12.17
3.90
-6.15
-18.19
-31.92
-46.32
-59.51
-69.05
-72.45
-68.02
-55.54
-36.43
-13.33
10.73
33.17
52.29
67.21
77.47
82.59
82.04
75.61
63.80
48.11
30.89
14.78
1.95
-6.46
-10.52
-11.29
-10.26
-8.73
-7.51
-6.87
-6.87
-7.71
-9.85
-13.90
-20.42
-29.61
-41.21
-54.43
-67.94
-80.00
-88.57
-91.73
-88.11
-77.33
-60.25
-38.82
-15.66
6.50
25.38
39.39
47.72
50.17
47.07
39.27
28.08
15.35
3.08
-6.81
-13.09
-15.37
-14.18
-10.65
-6.09
-1.55
2.33
5.34
7.45
8.66
8.77
7.28
3.47
-3.46
-14.01
-27.83
-43.42
-58.05
-68.37
-71.38
-65.45
-50.94
-29.96
-5.61
19.04
41.66
60.77
75.36
84.57
87.51
83.56
72.91
56.86
37.70
18.15
0.66
-13.20
-23.08
-29.64
-34.19
-38.14
-42.46
-47.32
-52.16
-56.05
-58.38
-59.36
-60.19
-62.65
-68.14
-76.79
-86.94
-95.53
-99.11
-95.08
-82.61
-62.83
-38.23
-11.70
14.28
38.06
58.59
75.09
86.76
92.94
93.44
88.91
80.83
71.28
62.25
55.21
50.74
48.56
47.75
47.18
45.91
43.38
39.59
34.94
30.03
25.27
20.59
15.42
8.78
-0.18
-11.80
-25.44
-39.42
-51.11
-57.63
-56.65
-47.27
-30.47
-8.92
13.86
34.59
51.04
62.29
68.36
69.55
65.98
57.70
45.07
29.23
12.22
-3.49
-15.83
-23.82
-27.85
-29.42
-30.38
-32.15
-35.20
-39.18
-43.35
-47.14
-50.51
-53.87
-57.77
-62.50
-68.01
-74.00
-80.03
-85.52
-89.51
-90.53
-86.70
-76.39
-58.95
-35.37
-8.20
19.11
43.33
62.26
75.11
82.13
84.03
81.45
74.86
64.90
52.67
39.86
28.39
19.85
14.90
13.04
12.94
13.00
12.02
9.51
5.74
1.30
-3.31
-8.02
-13.17
-19.39
-27.32
-37.42
-49.76
-63.84
-78.36
-91.23
-99.80
-101.45
-94.41
-78.41
-54.94
-26.91
2.22
29.28
52.08
69.48
81.04
86.64
86.25
80.11
69.14
55.12
40.54
28.01
19.39
15.15
14.32
14.98
15.13
13.48
9.83
4.81
-0.60
-5.68
-10.32
-14.93
-20.36
-27.53
-37.20
-49.65
-64.39
-79.90
-93.67
-102.62
-103.83
-95.56
-77.74
-52.22
-22.22
8.52
36.69
60.00
77.40
88.85
94.92
96.43
94.27
89.34
82.57
74.91
67.26
60.28
54.23
48.91
43.83
38.43
32.36
25.63
18.52
11.40
4.48
-2.30
-9.27
-16.91
-25.70
-36.05
-48.17
-62.02
-77.10
-92.33
-106.01
-116.03
-120.30
-117.30
-106.52
-88.68
-65.40
-38.73
-10.55
17.66
44.69
69.42
90.69
107.65
120.20
129.33
136.71
143.75
150.56
155.42
155.40
147.75
131.46
107.91
80.51
53.21
28.98
8.93
-7.50
-21.72
-34.94
-47.65
-59.81
-71.38
-82.72
-94.45
-106.85
-119.21
-129.51
-134.92
-132.85
-122.02
-103.12
-78.67
-52.21
-27.29
-6.69
7.95
16.10
18.14
15.04
8.27
-0.52
-9.65
-17.67
-23.53
-26.62
-26.84
-24.42
-19.86
-13.67
-6.22
2.25
11.46
20.81
29.28
35.42
37.84
35.59
28.55
17.48
3.85
-10.50
-23.68
-33.97
-39.99
-40.78
-36.02
-26.13
-12.38
3.22
18.40
31.03
39.60
43.40
42.46
37.38
29.23
19.36
9.24
0.17
-7.06
-12.41
-16.43
-19.98
-23.70
-27.74
-31.85
-35.61
-38.55
-40.03
-39.01
-34.20
-24.78
-11.33
3.58
15.84
21.16
16.84
2.99
-17.37
-39.35
-57.70
-68.26
-68.76
-58.93
-40.26
-15.47
12.03
38.82
61.99
79.56
90.43
94.34
91.64
83.30
70.99
56.93
43.41
32.06
23.29
16.24
9.39
1.56
-7.39
-16.48
-24.24
-29.65
-32.72
-34.54
-36.67
-40.39
-46.22
-53.83
-62.45
-71.14
-78.92
-84.61
-86.70
-83.50
-73.62
-56.61
-33.44
-6.47
21.15
46.44
67.24
82.58
92.38
96.96
96.68
91.82
82.99
71.32
58.54
46.54
36.77
29.77
25.07
21.61
18.21
14.13
9.19
3.73
-1.77
-6.84
-11.29
-15.23
-19.11
-23.57
-29.31
-36.76
-45.79
-55.45
-64.06
-69.44
-69.61
-63.34
-50.63
-32.79
-12.03
9.14
28.46
44.33
55.74
62.08
63.00
58.37
48.69
35.28
20.32
6.33
-4.56
-11.29
-14.03
-13.74
-11.57
-8.15
-3.49
2.72
10.60
19.69
29.02
37.32
43.50
46.76
46.65
42.89
35.49
24.80
11.87
-1.68
-13.96
-23.51
-29.86
-33.68
-36.44
-39.60
-43.95
-49.26
-54.62
-59.03
-62.00
-63.74
-64.80
-65.68
-66.34
-66.31
-65.00
-62.19
-58.17
-53.67
-49.44
-45.93
-43.13
-40.82
-38.82
-37.27
-36.73
-38.06
-42.22
-50.07
-62.02
-77.81
-96.12
-114.43
-129.30
-136.97
-134.57
-120.99
-97.43
-67.07
-34.19
-2.96
23.34
42.67
54.09
57.45
53.26
42.71
27.78
11.09
-4.50
-16.47
-23.16
-24.06
-19.98
-12.82
-5.01
1.19
4.55
5.24
4.67
4.60
6.15
9.24
12.82
15.54
16.42
14.83
10.01
0.82
-13.74
-33.33
-55.11
-73.69
-82.92
-78.40
-59.55
-29.86
4.75
38.48
67.70
91.26
109.53
123.02
131.65
135.13
133.85
129.43
124.52
121.79
122.77
127.19
133.11
137.72
138.33
133.31
122.52
107.42
90.71
75.64
65.07
60.55
61.98
67.68
75.10
81.70
85.46
85.17
80.23
70.65
57.00
40.60
23.51
8.20
-3.14
-9.19
-9.95
-6.59
-0.80
5.80
12.28
18.41
24.40
30.42
36.25
41.18
44.19
44.36
41.32
35.46
27.80
19.71
12.43
6.77
3.01
0.97
0.12
-0.17
-0.50
-1.24
-2.30
-2.90
-1.66
3.10
12.73
27.66
47.03
68.83
90.42
109.32
123.83
133.15
137.19
136.12
130.10
119.26
103.95
85.02
63.79
41.72
19.96
-0.91
-20.83
-39.85
-57.85
-74.26
-88.22
-99.00
-106.31
-110.51
-112.51
-113.43
-114.30
-115.82
-118.30
-121.68
-125.60
-129.44
-132.41
-133.65
-132.43
-128.24
-121.03
-111.15
-99.38
-86.77
-74.51
-63.80
-55.62
-50.50
-48.28
-48.08
-48.45
-47.81
-44.92
-39.30
-31.29
-21.86
-12.32
-3.84
2.73
7.05
9.29
10.07
10.26
10.79
12.43
15.58
20.27
26.07
32.20
37.74
41.81
43.95
44.23
43.41
42.77
43.81
47.69
54.81
64.40
74.57
82.66
86.02
82.73
72.29
55.67
35.07
13.16
-7.59
-25.44
-39.50
-49.71
-56.65
-61.40
-65.22
-69.26
-73.93
-78.67
-81.91
-81.76
-76.76
-66.73
-53.05
-38.20
-24.97
-15.47
-10.65
-10.10
-12.48
-16.01
-19.01
-20.28
-19.33
-16.34
-11.92
-6.88
-1.85
2.89
7.33
11.52
15.33
18.38
20.17
20.47
19.39
17.50
15.44
13.64
12.17
10.76
9.15
7.27
5.40
3.98
3.32
3.33
3.56
3.35
2.19
-0.10
-3.33
-7.14
-11.26
-15.61
-20.20
-24.94
-29.40
-32.82
-34.26
-33.04
-28.98
-22.61
-14.93
-7.07
0.05
5.97
10.59
13.97
16.07
16.75
15.85
13.46
10.02
6.28
3.10
1.05
0.29
0.50
1.18
1.90
2.49
3.10
3.91
4.94
5.96
6.63
6.68
6.08
5.00
3.58
1.75
-0.75
-4.23
-8.60
-13.29
-17.34
-19.69
-19.71
-17.34
-13.11
-7.79
-2.18
3.16
7.88
11.71
14.41
15.76
15.62
14.13
11.70
8.99
6.69
5.25
4.76
4.94
5.32
5.52
5.41
5.13
4.90
4.78
4.62
4.00
2.50
-0.14
-3.93
-8.63
-13.93
-19.48
-24.91
-29.72
-33.29
-34.89
-33.84
-29.85
-23.10
-14.35
-4.72
4.59
12.63
18.83
22.99
25.17
25.62
24.64
22.56
19.84
16.90
14.17
11.97
10.47
9.62
9.27
9.19
9.14
8.96
8.58
7.99
7.22
6.26
4.98
3.23
0.79
-2.50
-6.72
-11.78
-17.53
-23.66
-29.76
-35.24
-39.37
-41.37
-40.61
-36.85
-30.35
-21.90
-12.60
-3.51
4.53
11.07
15.99
19.43
21.65
22.91
23.44
23.35
22.69
21.43
19.63
17.47
15.28
13.37
11.90
10.82
9.93
9.00
7.97
6.92
6.03
5.33
4.66
3.64
1.85
-1.00
-5.01
-10.11
-16.05
-22.44
-28.70
-33.98
-37.35
-37.93
-35.31
-29.65
-21.70
-12.59
-3.44
4.89
11.96
17.64
21.98
25.03
26.78
27.26
26.50
24.71
22.20
19.36
16.62
14.31
12.66
11.67
11.13
10.75
10.22
9.36
8.13
6.61
4.98
3.36
1.75
-0.01
-2.14
-4.90
-8.43
-12.76
-17.72
-22.87
-27.54
-30.82
-31.83
-29.95
-25.14
-18.00
-9.62
-1.28
5.97
11.54
15.38
17.78
19.13
19.73
19.70
19.11
18.06
16.81
15.72
15.16
15.28
15.92
16.67
16.97
16.38
14.73
12.16
8.97
5.44
1.67
-2.49
-7.27
-12.90
-19.44
-26.80
-34.65
-42.48
-49.54
-54.86
-57.48
-56.70
-52.46
-45.44
-36.94
-28.43
-21.17
-15.84
-12.55
-11.13
-11.43
-13.43
-17.17
-22.54
-29.07
-35.99
-42.59
-48.54
-53.96
-59.29
-64.90
-70.65
-75.64
-78.16
-75.95
-66.66
-48.36
-20.23
17.00
60.77
106.92
150.46
186.55
211.70
224.47
225.54
217.25
202.67
184.74
165.69
146.86
128.90
112.03
96.38
82.16
69.42
57.96
47.29
36.68
25.49
13.51
1.22
-10.27
-19.64
-25.88
-28.83
-29.53
-29.94
-32.35
-38.49
-48.79
-62.09
-76.01
-87.75
-95.26
-97.87
-96.44
-92.91
-89.31
-87.12
-86.87
-88.23
-90.50
-92.99
-95.22
-96.80
-97.20
-95.61
-91.16
-83.28
-72.06
-58.40
-43.76
-29.63
-16.99
-6.26
2.69
10.04
15.80
19.85
22.23
23.55
24.83
27.23
31.39
37.08
43.14
48.03
50.55
50.25
47.55
43.30
38.38
33.21
27.80
21.84
15.10
7.54
-0.63
-9.11
-17.61
-25.89
-33.69
-40.56
-45.84
-48.73
-48.60
-45.32
-39.34
-31.68
-23.50
-15.78
-9.07
-3.52
0.98
4.56
7.34
9.55
11.64
14.23
18.00
23.33
30.14
37.93
45.91
53.34
59.61
64.32
67.14
67.84
66.28
62.45
56.52
48.80
39.56
29.04
17.40
4.96
-7.73
-19.72
-29.86
-36.98
-40.33
-39.79
-35.86
-29.49
-21.72
-13.45
-5.28
2.32
8.93
13.90
16.46
15.73
11.12
2.55
-9.28
-22.93
-36.41
-47.64
-54.97
-57.54
-55.46
-49.66
-41.53
-32.55
-23.96
-16.65
-11.22
-8.02
-7.22
-8.83
-12.69
-18.44
-25.63
-33.71
-42.05
-49.92
-56.50
-60.94
-62.50
-60.76
-55.79
-48.20
-38.95
-29.11
-19.54
-10.80
-3.08
3.46
8.67
12.26
13.95
13.67
11.70
8.67
5.33
2.35
0.01
-1.78
-3.41
-5.40
-8.10
-11.69
-16.02
-20.81
-25.82
-30.97
-36.45
-42.70
-50.22
-59.31
-69.95
-81.68
-93.74
-105.18
-114.93
-121.81
-124.64
-122.32
-114.21
-100.44
-82.08
-61.08
-39.77
-20.38
-4.56
6.83
13.67
16.47
16.15
14.03
11.57
10.13
10.53
12.77
16.02
18.92
20.19
19.08
15.68
10.74
5.27
0.19
-4.09
-7.53
-10.59
-13.95
-18.45
-24.78
-33.11
-42.74
-51.84
-57.87
-58.21
-51.19
-36.68
-16.30
7.21
30.77
51.80
68.64
80.39
86.73
87.63
83.42
74.92
63.55
51.22
39.85
30.89
24.95
21.75
20.34
19.61
18.69
17.19
15.24
13.23
11.46
9.83
7.80
4.37
-1.55
-10.74
-23.10
-37.42
-51.41
-62.05
-66.42
-62.51
-49.87
-29.73
-4.61
22.41
48.51
71.52
90.09
103.49
111.31
113.47
110.30
102.65
92.02
80.34
69.51
60.95
55.19
51.85
49.84
47.96
45.33
41.67
37.28
32.65
28.10
23.39
17.79
10.25
-0.24
-14.25
-31.62
-51.23
-70.93
-87.75
-98.45
-100.35
-92.15
-74.44
-49.60
-21.07
7.63
33.69
55.41
72.01
83.23
89.00
89.45
85.14
77.26
67.68
58.47
51.36
47.09
45.28
44.67
43.74
41.41
37.38
32.13
26.45
20.93
15.66
10.14
3.59
-4.75
-15.47
-28.71
-44.03
-60.24
-75.22
-86.16
-90.11
-84.94
-70.11
-47.09
-18.99
10.40
37.70
60.65
78.32
90.66
97.98
100.49
98.41
92.25
83.12
72.76
63.11
55.68
51.06
48.79
47.68
46.43
44.13
40.51
35.81
30.46
24.76
18.71
12.08
4.51
-4.40
-15.06
-27.87
-42.94
-59.73
-76.77
-91.52
-100.90
-102.06
-93.42
-75.28
-49.88
-20.66
8.71
35.32
57.37
74.03
85.04
90.36
90.10
84.83
75.76
64.77
54.03
45.45
40.06
37.79
37.68
38.28
38.29
36.93
34.09
30.11
25.49
20.57
15.34
9.53
2.67
-5.72
-16.04
-28.51
-43.04
-58.97
-74.80
-88.28
-96.67
-97.57
-89.68
-73.34
-50.53
-24.23
2.38
26.71
47.06
62.54
72.75
77.57
77.03
71.67
62.67
51.88
41.44
33.21
28.14
26.03
25.67
25.41
23.91
20.57
15.67
10.06
4.63
-0.14
-4.42
-8.87
-14.48
-22.18
-32.60
-45.85
-61.27
-77.25
-91.30
-100.44
-101.94
-94.25
-77.51
-53.71
-26.02
2.06
27.64
48.86
64.88
75.47
80.64
80.51
75.50
66.60
55.47
44.20
34.85
28.87
26.68
27.56
30.01
32.17
32.50
30.12
25.03
17.92
9.71
1.19
-7.29
-15.85
-24.94
-35.11
-46.85
-60.40
-75.62
-91.71
-107.04
-119.17
-125.22
-122.68
-110.31
-88.64
-60.04
-28.08
3.41
31.36
53.85
70.24
80.73
85.99
86.79
83.99
78.51
71.48
64.08
57.45
52.41
49.25
47.73
47.15
46.59
45.21
42.42
38.00
32.06
24.92
17.01
8.64
-0.05
-9.07
-18.65
-29.15
-40.97
-54.41
-69.38
-85.05
-99.59
-110.33
-114.30
-109.16
-94.08
-70.18
-40.28
-8.17
22.51
49.03
69.90
84.69
93.59
97.07
95.75
90.51
82.54
73.31
64.30
56.68
51.10
47.58
45.74
44.93
44.47
43.69
41.96
38.76
33.74
26.88
18.58
9.45
0.13
-9.01
-17.94
-26.98
-36.63
-47.47
-59.98
-74.31
-89.91
-105.24
-117.75
-124.32
-122.14
-109.78
-87.87
-59.09
-27.40
3.20
29.66
50.43
65.20
74.41
78.70
78.66
74.91
68.33
60.15
51.74
44.38
38.87
35.41
33.64
32.87
32.33
31.33
29.42
26.40
22.26
17.10
11.08
4.29
-3.21
-11.35
-20.10
-29.42
-39.47
-50.55
-62.93
-76.43
-90.01
-101.59
-108.42
-107.82
-98.23
-79.81
-54.61
-25.90
2.65
28.06
48.39
62.89
71.65
75.21
74.32
69.81
62.74
54.29
45.73
38.17
32.42
28.75
26.97
26.46
26.39
25.86
24.10
20.63
15.31
8.40
0.42
-8.05
-16.56
-24.86
-33.01
-41.24
-50.00
-59.84
-71.35
-84.83
-99.81
-114.71
-126.83
-132.85
-129.84
-116.29
-92.86
-62.30
-28.65
3.92
32.22
54.51
70.41
80.35
85.00
85.02
81.13
74.24
65.62
56.75
49.01
43.27
39.77
38.13
37.59
37.38
36.83
35.47
32.95
29.08
23.79
17.15
9.43
0.98
-7.84
-16.83
-26.05
-35.84
-46.80
-59.54
-74.29
-90.43
-106.20
-118.75
-124.75
-121.38
-107.45
-83.90
-53.70
-20.93
10.43
37.45
58.65
73.72
83.02
87.08
86.46
81.91
74.51
65.72
57.08
49.86
44.76
41.81
40.55
40.20
39.96
39.13
37.21
33.95
29.34
23.55
16.86
9.55
1.80
-6.28
-14.67
-23.48
-32.97
-43.64
-56.04
-70.44
-86.25
-101.72
-113.95
-119.59
-115.96
-102.10
-79.30
-50.73
-20.46
7.78
31.43
49.38
61.51
68.21
69.93
67.20
60.84
52.10
42.58
33.89
27.21
22.98
20.92
20.29
20.20
19.89
18.80
16.67
13.37
8.97
3.61
-2.48
-9.07
-15.98
-23.20
-30.94
-39.63
-49.83
-61.90
-75.67
-90.00
-102.71
-110.93
-111.75
-103.30
-85.41
-59.91
-30.08
0.19
27.51
49.60
65.49
75.22
79.33
78.52
73.56
65.40
55.26
44.59
34.85
27.15
21.99
19.22
18.12
17.75
17.17
15.70
13.05
9.20
4.31
-1.39
-7.72
-14.59
-22.05
-30.17
-39.17
-49.37
-61.17
-74.86
-90.25
-106.23
-120.60
-130.30
-132.17
-124.02
-105.43
-78.14
-45.51
-11.67
19.71
46.09
66.23
79.89
87.40
89.33
86.42
79.72
70.62
60.72
51.56
44.30
39.50
37.02
36.14
35.84
35.09
33.14
29.64
24.69
18.68
12.01
5.00
-2.28
-9.93
-18.17
-27.23
-37.36
-48.89
-62.06
-76.77
-92.11
-106.13
-115.91
-118.31
-111.01
-93.42
-67.17
-35.64
-3.02
26.96
51.79
70.43
82.91
89.80
91.74
89.35
83.44
75.14
65.91
57.28
50.46
46.06
43.91
43.28
43.17
42.58
40.78
37.43
32.54
26.37
19.30
11.73
3.92
-4.00
-12.05
-20.40
-29.40
-39.56
-51.47
-65.39
-80.81
-96.05
-108.29
-114.21
-111.00
-97.46
-74.63
-45.53
-14.27
15.13
39.80
58.32
70.50
76.79
77.84
74.32
67.06
57.29
46.61
36.78
29.18
24.42
22.25
21.67
21.45
20.50
18.24
14.52
9.59
3.82
-2.46
-8.99
-15.67
-22.42
-29.25
-36.32
-43.95
-52.58
-62.54
-73.67
-84.86
-94.04
-98.49
-95.67
-84.23
-64.59
-39.00
-10.88
16.24
39.61
57.68
70.03
76.91
78.88
76.50
70.49
61.74
51.47
41.11
32.02
25.20
21.05
19.24
18.85
18.68
17.63
15.02
10.77
5.31
-0.68
-6.59
-12.15
-17.53
-23.25
-30.08
-38.82
-50.07
-63.89
-79.39
-94.59
-106.57
-112.11
-108.67
-95.25
-72.91
-44.46
-13.76
15.50
40.52
59.79
72.88
80.06
81.88
79.02
72.37
63.16
53.00
43.64
36.59
32.73
32.00
33.45
35.56
36.76
35.99
32.96
28.07
22.09
15.72
9.22
2.43
-5.07
-13.67
-23.61
-34.94
-47.61
-61.41
-75.64
-88.82
-98.67
-102.43
-97.78
-83.71
-61.13
-32.74
-2.26
26.61
51.08
69.68
82.07
88.60
89.80
86.33
78.94
68.72
57.11
45.79
36.29
29.61
25.96
24.73
24.76
24.69
23.44
20.44
15.75
9.86
3.39
-3.20
-9.83
-16.78
-24.55
-33.67
-44.57
-57.43
-72.04
-87.57
-102.35
-113.87
-119.21
-115.88
-102.70
-80.40
-51.53
-19.78
11.13
38.36
60.31
76.44
86.79
91.54
90.91
85.40
75.97
64.25
52.22
41.78
34.22
29.84
27.92
27.08
25.77
22.90
18.12
11.85
4.86
-2.14
-8.85
-15.46
-22.50
-30.61
-40.28
-51.81
-65.21
-79.97
-94.83
-107.62
-115.49
-115.58
-106.04
-86.82
-59.99
-29.14
1.69
29.15
51.28
67.42
77.77
82.74
82.69
78.07
69.74
59.24
48.53
39.57
33.62
30.88
30.50
30.97
30.77
28.86
24.95
19.45
13.09
6.56
0.16
-6.32
-13.39
-21.66
-31.62
-43.53
-57.35
-72.64
-88.27
-102.30
-112.07
-114.68
-107.95
-91.24
-65.96
-35.24
-3.13
26.58
51.21
69.50
81.37
87.40
88.38
85.11
78.46
69.52
59.70
50.44
43.04
38.15
35.68
34.83
34.39
33.21
30.54
26.18
20.43
13.83
6.88
-0.13
-7.21
-14.60
-22.61
-31.56
-41.76
-53.47
-66.75
-81.18
-95.52
-107.53
-114.29
-112.97
-101.81
-80.91
-52.46
-20.12
12.00
40.45
63.10
79.15
88.80
92.72
91.80
87.02
79.54
70.70
61.84
54.12
48.25
44.44
42.36
41.34
40.57
39.24
36.78
32.84
27.40
20.61
12.75
4.16
-4.83
-13.94
-22.99
-31.95
-41.08
-50.95
-62.31
-75.65
-90.67
-105.82
-118.27
-124.56
-121.64
-108.04
-84.46
-53.78
-20.14
12.23
40.00
61.29
75.53
83.11
84.85
81.78
75.02
65.85
55.72
46.03
37.94
32.18
28.90
27.77
28.16
29.42
30.97
32.34
33.08
32.67
30.67
26.82
21.13
13.98
5.87
-2.75
-11.64
-20.90
-30.85
-41.92
-54.28
-67.52
-80.40
-90.72
-95.76
-92.99
-81.01
-60.27
-33.14
-3.31
25.27
49.51
67.64
79.33
85.06
85.69
82.01
74.83
65.12
54.17
43.54
34.63
28.36
24.90
23.63
23.53
23.56
22.94
21.36
18.79
15.37
11.25
6.48
1.08
-4.94
-11.54
-18.68
-26.47
-35.20
-45.38
-57.39
-71.07
-85.31
-97.86
-105.73
-106.09
-97.21
-79.29
-54.44
-26.06
2.16
27.34
47.73
62.68
72.12
76.12
74.87
68.82
59.01
47.04
34.90
24.44
16.82
12.31
10.30
9.63
9.06
7.65
4.96
1.07
-3.65
-8.77
-14.07
-19.59
-25.58
-32.43
-40.60
-50.53
-62.52
-76.42
-91.22
-104.89
-114.53
-117.10
-110.51
-94.41
-70.49
-41.99
-12.69
14.22
36.62
53.55
64.81
70.45
70.68
65.93
57.13
45.85
34.02
23.58
15.88
11.35
9.43
8.85
8.18
6.33
2.81
-2.16
-8.00
-14.10
-20.14
-26.30
-33.06
-41.07
-50.92
-63.04
-77.46
-93.66
-110.27
-124.96
-134.76
-136.62
-128.51
-110.11
-83.20
-51.20
-18.14
12.35
37.90
57.43
70.83
78.38
80.39
77.25
69.66
58.90
46.79
35.30
26.01
19.56
15.51
12.65
9.49
4.98
-1.17
-8.52
-16.26
-23.80
-31.09
-38.59
-46.94
-56.50
-67.19
-78.62
-90.38
-102.17
-113.59
-123.62
-130.37
-131.16
-123.51
-106.14
-79.92
-47.85
-14.19
16.92
42.73
62.30
76.11
85.18
90.38
92.11
90.63
86.53
81.00
75.56
71.59
69.68
69.47
69.86
69.65
68.07
65.04
61.01
56.58
52.07
47.39
42.10
35.62
27.51
17.54
5.67
-8.02
-23.26
-39.41
-55.18
-68.49
-76.80
-77.84
-70.59
-55.90
-36.33
-15.23
4.48
21.31
35.26
47.21
57.81
66.88
73.39
76.17
74.73
69.71
62.71
55.53
49.57
45.38
42.77
41.15
39.92
38.62
36.99
34.90
32.22
28.84
24.73
19.93
14.54
8.62
2.10
-5.25
-13.78
-23.99
-36.25
-50.51
-65.96
-80.71
-91.98
-96.77
-92.81
-79.51
-58.34
-32.44
-5.58
18.97
39.24
54.61
65.36
71.98
74.77
73.87
69.57
62.59
54.11
45.57
38.26
32.93
29.64
27.92
26.97
26.01
24.50
22.21
19.18
15.64
11.81
7.88
3.85
-0.38
-5.02
-10.36
-16.81
-24.78
-34.53
-45.90
-57.98
-69.04
-76.75
-78.79
-73.61
-61.05
-42.44
-20.24
2.69
23.83
41.37
54.27
62.15
64.96
63.03
57.10
48.37
38.44
29.07
21.76
17.32
15.68
16.02
17.02
17.46
16.53
14.06
10.35
5.91
1.09
-3.99
-9.46
-15.51
-22.30
-30.01
-38.94
-49.47
-61.81
-75.54
-89.26
-100.57
-106.60
-104.92
-94.39
-75.68
-51.13
-23.98
2.51
25.81
44.46
57.85
66.02
69.24
67.94
62.84
54.96
45.72
36.64
29.09
23.87
21.08
20.16
20.15
20.06
19.12
16.92
13.40
8.71
3.12
-3.14
-9.81
-16.68
-23.59
-30.55
-37.83
-45.95
-55.47
-66.67
-79.05
-91.12
-100.48
-104.41
-100.72
-88.55
-68.71
-43.52
-16.07
10.59
34.16
53.34
67.60
76.88
81.29
81.05
76.68
69.10
59.73
50.21
42.06
36.34
33.33
32.59
33.16
33.88
33.76
32.17
28.95
24.26
18.53
12.19
5.51
-1.37
-8.54
-16.23
-24.80
-34.69
-46.13
-58.89
-71.94
-83.28
-90.29
-90.40
-82.06
-65.40
-42.32
-15.97
10.22
33.49
52.24
65.96
74.71
78.75
78.28
73.62
65.53
55.29
44.64
35.26
28.35
24.30
22.60
22.15
21.67
20.18
17.22
12.93
7.81
2.42
-2.97
-8.50
-14.66
-22.08
-31.28
-42.43
-55.27
-69.05
-82.46
-93.62
-100.30
-100.25
-91.96
-75.19
-51.35
-23.29
5.44
31.57
52.86
68.37
78.18
82.80
82.76
78.46
70.46
59.78
48.00
36.91
27.89
21.47
17.15
13.77
10.16
5.69
0.42
-5.08
-10.18
-14.62
-18.70
-23.15
-28.88
-36.67
-46.90
-59.22
-72.28
-83.77
-90.80
-90.64
-81.64
-63.77
-38.62
-8.74
23.14
54.90
85.17
113.01
137.51
157.54
171.83
179.33
179.50
172.41
158.71
139.51
116.34
91.16
66.14
43.29
24.04
8.85
-2.78
-12.02
-20.16
-28.07
-35.98
-43.57
-50.36
-56.04
-60.76
-65.09
-69.84
-75.89
-83.93
-94.23
-106.37
-119.01
-129.86
-136.05
-134.95
-125.09
-106.86
-82.46
-55.15
-28.23
-4.19
15.63
30.72
40.90
46.07
46.25
42.00
34.59
25.94
18.04
12.34
9.31
8.37
8.28
7.67
5.59
1.78
-3.28
-8.75
-13.78
-17.95
-21.49
-25.20
-30.17
-37.48
-47.85
-61.29
-76.87
-92.60
-105.56
-112.43
-110.39
-98.09
-76.26
-47.69
-16.45
13.37
38.68
58.05
71.45
79.59
83.24
82.89
78.84
71.64
62.36
52.50
43.60
36.75
32.21
29.45
27.48
25.32
22.37
18.48
13.82
8.70
3.32
-2.23
-7.98
-13.97
-20.36
-27.35
-35.26
-44.56
-55.72
-68.97
-83.93
-99.16
-112.11
-119.54
-118.41
-106.97
-85.59
-56.76
-24.51
6.88
33.97
54.87
69.15
77.38
80.57
79.74
75.86
69.93
63.01
56.06
49.91
45.03
41.53
39.27
37.87
36.94
36.06
34.81
32.73
29.42
24.60
18.25
10.68
2.47
-5.77
-13.62
-21.04
-28.45
-36.63
-46.51
-58.74
-73.25
-88.89
-103.22
-113.02
-115.02
-107.07
-88.89
-62.42
-31.21
0.60
29.45
53.05
70.45
81.73
87.46
88.38
85.41
79.71
72.62
65.50
59.47
55.02
52.02
49.87
47.89
45.65
43.12
40.50
37.95
35.31
32.04
27.45
21.10
13.11
4.25
-4.47
-12.13
-18.46
-23.86
-29.28
-35.86
-44.56
-55.88
-69.64
-84.76
-99.13
-109.80
-113.57
-107.99
-92.27
-67.82
-37.91
-6.68
22.01
45.54
62.75
73.65
78.88
79.27
75.75
69.44
61.71
54.05
47.77
43.61
41.62
41.09
40.95
40.17
38.15
35.00
31.44
28.53
27.16
27.71
29.88
32.94
36.05
38.61
40.34
41.11
40.72
38.72
34.55
27.80
18.59
7.71
-3.30
-12.60
-18.43
-19.71
-16.37
-9.29
-0.12
9.36
17.66
23.86
27.68
29.24
28.83
26.76
23.38
19.12
14.52
10.11
6.38
3.47
1.25
-0.57
-2.34
-4.17
-6.07
-7.86
-9.44
-10.83
-12.21
-13.81
-15.82
-18.30
-21.15
-24.23
-27.47
-30.95
-34.90
-39.62
-45.25
-51.60
-58.06
-63.64
-67.11
-67.35
-63.73
-56.27
-45.73
-33.37
-20.60
-8.64
1.71
10.04
16.32
20.60
23.00
23.58
22.56
20.35
17.57
14.95
13.10
12.38
12.72
13.74
14.86
15.59
15.60
14.87
13.49
11.58
9.19
6.31
2.98
-0.68
-4.47
-8.26
-12.08
-16.18
-21.00
-26.87
-33.91
-41.74
-49.56
-56.20
-60.42
-61.28
-58.30
-51.66
-42.04
-30.51
-18.18
-6.06
5.05
14.54
21.95
26.98
29.57
29.97
28.72
26.49
23.90
21.38
19.10
17.13
15.48
14.17
13.21
12.44
11.58
10.26
8.15
5.20
1.53
-2.49
-6.55
-10.38
-13.90
-17.06
-19.90
-22.56
-25.28
-28.52
-32.77
-38.24
-44.62
-50.96
-55.83
-57.75
-55.73
-49.60
-40.04
-28.28
-15.76
-3.68
7.08
16.02
22.85
27.46
29.83
30.14
28.76
26.29
23.43
20.77
18.68
17.24
16.36
15.88
15.67
15.72
15.95
16.23
16.24
15.67
14.30
12.07
9.12
5.68
1.95
-1.98
-6.15
-10.68
-15.70
-21.28
-27.32
-33.52
-39.32
-43.91
-46.41
-46.08
-42.54
-35.85
-26.57
-15.64
-4.17
6.75
16.19
23.48
28.28
30.58
30.64
28.98
26.23
23.09
20.14
17.74
15.95
14.63
13.51
12.41
11.24
10.10
9.06
8.08
6.97
5.45
3.29
0.36
-3.23
-7.22
-11.28
-15.14
-18.74
-22.28
-26.23
-31.09
-37.17
-44.28
-51.61
-57.86
-61.59
-61.63
-57.50
-49.50
-38.53
-25.91
-12.98
-0.91
9.44
17.55
23.16
26.34
27.36
26.70
24.93
22.69
20.53
18.86
17.88
17.53
17.60
17.80
17.89
17.77
17.41
16.85
16.04
14.83
12.99
10.32
6.79
2.50
-2.26
-7.17
-12.02
-16.70
-21.34
-26.20
-31.60
-37.81
-44.82
-52.20
-59.09
-64.30
-66.63
-65.19
-59.74
-50.68
-38.95
-25.72
-12.14
0.81
12.34
21.89
29.03
33.55
35.52
35.33
33.58
31.06
28.51
26.48
25.27
24.82
24.90
25.17
25.33
25.14
24.52
23.44
21.89
19.83
17.21
14.04
10.34
6.28
2.02
-2.30
-6.67
-11.18
-16.02
-21.42
-27.54
-34.46
-42.09
-50.08
-57.78
-64.16
-68.03
-68.22
-64.03
-55.45
-43.25
-28.86
-13.91
0.12
12.21
21.81
28.76
33.14
35.20
35.33
34.11
32.17
30.17
28.54
27.46
26.86
26.51
26.20
25.80
25.31
24.79
24.29
23.74
22.92
21.54
19.27
15.92
11.56
6.49
1.18
-3.96
-8.71
-13.15
-17.62
-22.53
-28.19
-34.71
-41.83
-49.05
-55.51
-60.20
-62.05
-60.24
-54.43
-44.89
-32.57
-18.79
-4.94
7.82
18.73
27.35
33.47
37.00
37.96
36.68
33.83
30.36
27.31
25.39
24.74
24.88
24.93
24.02
21.64
17.84
13.17
8.37
3.96
-0.03
-4.16
-9.40
-16.73
-26.69
-39.16
-53.27
-67.79
-81.56
-93.96
-105.15
-115.89
-127.31
-140.41
-155.72
-172.87
-190.39
-205.67
-215.41
-216.42
-206.81
-186.86
-159.25
-128.32
-98.69
-73.80
-55.14
-42.36
-34.16
-29.33
-27.27
-27.85
-30.87
-35.53
-40.44
-44.06
-45.35
-44.12
-40.93
-36.57
-31.54
-25.87
-19.44
-12.46
-5.76
-0.59
2.05
2.00
0.02
-2.69
-5.32
-8.10
-12.10
-18.47
-27.69
-39.21
-51.95
-65.06
-78.34
-91.97
-105.55
-117.38
-124.56
-123.98
-113.86
-94.65
-68.99
-40.63
-13.02
11.67
32.55
49.43
62.14
70.35
73.92
73.36
69.97
65.49
61.48
58.92
58.12
58.95
61.24
64.86
69.51
74.56
78.94
81.52
81.55
79.08
74.95
70.40
66.50
63.78
62.29
61.88
62.56
64.42
67.42
70.99
73.97
75.06
73.52
69.77
65.44
62.82
63.89
69.52
79.14
91.19
103.71
115.07
124.20
130.53
133.74
133.58
129.90
122.82
112.97
101.52
89.88
79.39
70.90
64.65
60.40
57.83
56.80
57.46
60.03
64.52
70.52
77.25
83.59
88.44
90.86
90.14
85.87
78.04
67.09
53.87
39.50
24.96
10.65
-3.74
-18.97
-35.63
-53.28
-69.89
-82.02
-85.68
-77.78
-57.45
-26.67
10.21
47.79
81.32
107.86
126.70
138.76
145.62
148.58
148.37
145.34
140.02
133.42
127.00
122.14
119.61
119.10
119.38
118.76
115.73
109.57
100.46
89.36
77.49
65.92
55.20
45.27
35.64
25.62
14.47
1.45
-14.03
-32.23
-52.61
-73.43
-91.64
-103.46
-105.49
-96.00
-75.70
-47.70
-16.58
13.03
37.63
55.41
66.06
70.21
68.77
62.59
52.48
39.40
24.55
9.42
-4.44
-15.65
-23.24
-26.79
-26.45
-22.83
-16.92
-9.87
-2.81
3.19
7.19
8.40
6.13
-0.08
-10.51
-25.10
-43.49
-65.05
-88.71
-112.77
-134.77
-151.49
-159.44
-155.75
-139.16
-110.59
-73.06
-30.82
11.92
51.96
87.48
117.79
142.62
161.49
173.58
177.90
173.92
161.96
143.47
120.76
96.60
73.58
53.65
37.88
26.53
19.18
15.02
12.98
11.77
9.93
6.04
-1.16
-12.38
-27.69
-46.59
-68.17
-91.33
-114.81
-137.06
-156.08
-169.50
-174.92
-170.55
-155.79
-131.51
-100.06
-64.69
-28.96
3.82
30.97
50.56
61.51
63.64
57.86
46.21
31.76
18.06
8.28
4.31
6.09
11.71
18.17
22.68
23.86
22.19
19.57
18.17
19.07
21.70
24.01
23.35
17.58
5.80
-11.40
-32.22
-54.02
-73.70
-88.16
-94.74
-91.88
-79.69
-60.11
-36.36
-12.09
9.77
27.64
41.32
51.56
59.22
64.91
68.89
71.28
72.44
73.16
74.40
76.88
80.39
83.09
81.51
71.48
50.07
17.34
-22.94
-64.40
-100.50
-126.96
-142.84
-149.81
-150.44
-146.56
-139.17
-129.59
-120.57
-115.95
-118.69
-128.33
-140.10
-146.40
-140.33
-118.98
-84.75
-43.90
-3.52
31.24
58.23
77.55
89.87
95.17
92.80
82.44
65.15
43.56
21.21
1.25
-14.51
-25.94
-34.21
-41.11
-48.17
-56.02
-64.39
-72.31
-78.80
-83.40
-86.63
-89.91
-95.04
-103.54
-115.96
-131.65
-148.77
-164.47
-175.33
-177.79
-168.78
-146.54
-111.23
-65.38
-13.53
38.75
86.23
125.13
153.74
172.13
181.48
183.15
178.34
168.08
153.54
136.40
118.72
102.60
89.52
79.92
73.21
68.14
63.42
58.17
52.15
45.55
38.74
31.91
25.00
17.68
9.54
0.02
-11.52
-25.86
-43.70
-65.12
-88.94
-112.24
-130.60
-139.04
-133.55
-112.49
-77.29
-32.16
17.16
64.98
106.89
140.31
164.21
178.49
183.52
179.90
168.72
151.76
131.51
110.76
92.00
76.73
65.16
56.37
48.85
41.18
32.55
22.99
13.03
3.43
-5.31
-13.13
-20.42
-27.83
-36.10
-45.93
-57.83
-72.06
-88.31
-105.37
-120.93
-131.75
-134.42
-126.34
-106.73
-77.02
-40.56
-1.47
36.40
70.33
98.81
121.10
136.59
144.59
144.49
136.35
121.26
101.46
79.69
58.48
39.39
22.78
8.11
-5.40
-18.16
-29.81
-39.41
-45.88
-48.66
-48.03
-45.23
-42.21
-41.11
-43.80
-51.33
-63.51
-78.59
-93.34
-103.68
-105.58
-96.34
-75.39
-44.68
-8.02
29.90
64.83
93.75
115.14
128.61
134.39
132.93
124.80
110.93
92.85
72.72
53.08
36.20
23.47
15.00
9.72
5.87
1.89
-3.03
-8.80
-14.63
-19.74
-23.83
-27.32
-31.18
-36.65
-44.81
-56.34
-71.18
-88.27
-105.28
-118.77
-124.81
-120.08
-103.03
-74.62
-38.22
1.39
39.35
71.82
96.50
112.44
119.49
117.90
108.14
91.04
68.05
41.21
12.85
-14.77
-40.04
-62.16
-81.10
-97.20
-110.87
-122.21
-131.06
-137.15
-140.46
-141.38
-140.81
-139.95
-140.15
-142.65
-148.43
-157.93
-170.64
-184.69
-196.76
-202.52
-197.74
-179.64
-148.10
-105.82
-57.58
-8.83
35.77
73.14
101.80
121.42
132.24
134.89
130.46
120.61
107.48
93.36
80.09
68.82
59.92
53.15
47.94
43.63
39.62
35.48
31.04
26.42
22.00
18.20
15.17
12.55
9.46
4.58
-3.58
-16.21
-33.63
-54.76
-76.73
-95.13
-104.95
-102.01
-84.50
-53.80
-14.33
27.70
66.03
95.93
115.00
122.95
120.93
110.64
93.96
72.90
49.85
27.47
8.27
-6.03
-15.17
-20.38
-23.94
-28.13
-34.31
-42.43
-51.24
-58.97
-64.37
-67.23
-68.41
-69.43
-71.74
-76.22
-83.01
-91.63
-100.97
-109.31
-114.11
-112.16
-100.31
-76.65
-41.73
1.03
46.09
87.52
120.90
144.33
158.36
164.80
165.53
161.79
154.37
144.16
132.57
121.30
111.54
103.52
96.45
89.28
81.58
74.06
68.21
65.25
65.06
65.69
63.89
56.34
40.98
17.88
-10.80
-41.36
-69.53
-91.27
-103.42
-104.20
-93.64
-73.77
-48.37
-22.21
0.15
15.62
23.33
24.57
21.95
18.05
14.49
11.39
7.84
2.56
-5.33
-15.96
-28.89
-43.51
-59.21
-75.41
-91.32
-105.89
-117.92
-126.56
-131.77
-134.63
-137.06
-141.29
-148.95
-160.26
-173.61
-185.64
-192.06
-188.79
-173.33
-145.66
-108.37
-65.85
-22.97
16.18
49.05
74.54
92.53
103.25
107.05
104.50
96.64
85.07
71.77
58.59
46.72
36.46
27.34
18.62
9.85
1.15
-6.80
-13.24
-17.79
-20.83
-23.44
-27.12
-33.25
-42.65
-55.15
-69.40
-82.92
-92.45
-94.69
-87.24
-69.40
-42.55
-9.81
24.79
57.43
85.25
106.59
120.73
127.52
127.10
120.00
107.28
90.71
72.40
54.42
38.29
24.74
13.74
4.87
-2.37
-8.22
-12.69
-15.63
-17.02
-17.18
-16.86
-17.14
-19.31
-24.35
-32.49
-42.81
-53.16
-60.48
-61.69
-54.68
-39.02
-16.23
10.72
38.28
63.28
83.48
97.71
105.63
107.36
103.30
94.18
81.08
65.45
48.87
32.74
18.03
5.19
-5.73
-14.81
-22.05
-27.32
-30.52
-31.71
-31.40
-30.51
-30.28
-31.97
-36.46
-43.89
-53.34
-62.85
-69.66
-70.89
-64.47
-49.84
-28.25
-2.46
24.06
48.14
67.51
81.12
88.81
90.88
87.83
80.29
69.12
55.51
40.85
26.46
13.29
1.83
-7.82
-15.74
-22.04
-26.71
-29.80
-31.49
-32.21
-32.72
-33.94
-36.78
-41.81
-48.80
-56.57
-62.98
-65.41
-61.57
-50.30
-32.04
-8.76
16.60
40.93
61.73
77.38
87.18
91.09
89.55
83.32
73.44
61.27
48.21
35.59
24.39
15.11
7.85
2.40
-1.50
-4.02
-5.24
-5.24
-4.26
-2.85
-1.83
-2.20
-4.85
-10.24
-18.09
-27.20
-35.47
-40.40
-39.75
-32.27
-18.20
0.75
21.97
42.62
60.37
73.65
81.66
84.07
80.94
72.68
60.20
44.92
28.55
12.80
-1.05
-12.26
-20.63
-26.28
-29.50
-30.61
-29.98
-28.09
-25.60
-23.33
-22.17
-22.96
-26.23
-31.96
-39.30
-46.51
-51.20
-50.95
-44.14
-30.57
-11.67
9.86
30.84
48.57
61.32
68.53
70.49
67.97
61.86
53.11
42.68
31.58
20.79
11.06
2.84
-3.77
-8.93
-12.90
-15.89
-18.00
-19.27
-19.84
-20.02
-20.43
-21.93
-25.41
-31.30
-39.16
-47.41
-53.54
-54.88
-49.50
-37.05
-19.00
1.79
21.99
38.82
50.62
56.98
58.36
55.62
49.64
41.26
31.30
20.70
10.41
1.28
-6.14
-11.63
-15.36
-17.67
-19.01
-19.75
-20.19
-20.59
-21.30
-22.85
-25.85
-30.69
-37.09
-43.86
-48.91
-49.84
-44.76
-33.10
-15.96
4.12
23.99
40.71
52.36
58.20
58.54
54.37
46.87
37.22
26.43
15.28
4.42
-5.62
-14.39
-21.55
-26.95
-30.58
-32.64
-33.44
-33.33
-32.67
-31.93
-31.68
-32.60
-35.16
-39.26
-43.84
-47.00
-46.41
-40.22
-27.84
-10.30
9.97
29.92
46.79
58.81
65.42
66.95
64.21
58.02
49.03
37.87
25.20
12.00
-0.61
-11.52
-19.92
-25.54
-28.69
-30.07
-30.50
-30.69
-31.23
-32.63
-35.45
-40.17
-46.81
-54.55
-61.47
-64.93
-62.41
-52.50
-35.59
-13.93
9.13
30.14
46.52
57.02
61.55
60.71
55.32
46.11
33.80
19.26
3.64
-11.67
-25.21
-35.74
-42.56
-45.64
-45.60
-43.55
-40.85
-38.87
-38.83
-41.64
-47.69
-56.56
-66.85
-76.16
-81.60
-80.46
-71.19
-53.97
-30.84
-5.07
19.70
40.52
55.64
64.64
68.06
66.89
62.18
54.86
45.81
36.10
27.11
20.54
18.17
21.41
30.88
45.97
64.71
83.97
100.06
109.61
110.30
101.38
83.76
59.80
32.91
7.03
-14.00
-27.11
-30.65
-24.85
-11.76
5.35
22.91
38.06
49.11
55.55
57.58
55.62
50.05
41.33
30.20
17.81
5.54
-5.33
-13.96
-20.16
-24.25
-26.85
-28.56
-29.86
-31.03
-32.36
-34.23
-37.12
-41.48
-47.38
-54.21
-60.42
-63.76
-61.83
-52.88
-36.56
-14.22
11.31
36.48
57.97
73.36
81.56
82.72
77.97
69.06
57.88
46.24
35.59
26.86
20.56
16.76
15.26
15.57
16.93
18.31
18.62
17.10
13.68
9.06
4.41
0.87
-0.78
0.02
4.17
13.33
29.64
54.76
88.45
127.75
167.41
201.39
224.92
235.81
234.40
222.37
201.28
171.91
134.70
90.95
43.85
-1.39
-38.69
-62.86
-71.40
-65.26
-48.51
-26.97
-6.61
7.88
13.94
11.36
1.66
-12.72
-29.53
-47.36
-65.61
-84.02
-101.81
-117.18
-127.62
-130.82
-125.86
-114.03
-98.51
-83.21
-71.23
-63.84
-60.59
-60.14
-61.47
-64.40
-69.43
-76.97
-86.54
-96.51
-104.55
-108.54
-107.52
-101.99
-93.75
-85.07
-77.91
-73.43
-71.94
-73.16
-76.54
-81.25
-86.06
-89.16
-88.30
-81.33
-67.00
-45.64
-19.28
8.78
34.91
56.06
70.40
77.49
77.93
73.00
64.18
52.91
40.51
28.18
16.93
7.53
0.38
-4.42
-7.14
-8.28
-8.38
-8.02
-7.72
-8.00
-9.47
-12.79
-18.50
-26.66
-36.44
-45.98
-52.62
-53.66
-47.25
-33.14
-12.88
10.57
33.71
53.50
67.92
76.15
78.28
75.00
67.25
56.26
43.52
30.71
19.48
11.01
5.81
3.53
3.26
3.95
4.79
5.47
6.10
6.87
7.81
8.50
8.20
5.99
1.13
-6.54
-16.33
-26.55
-34.70
-38.09
-34.59
-23.37
-5.32
17.15
40.84
62.56
79.96
91.72
97.43
97.21
91.45
80.81
66.43
50.02
33.74
19.68
9.31
3.01
0.08
-0.89
-1.45
-2.69
-5.02
-8.24
-11.91
-15.65
-19.45
-23.61
-28.67
-35.20
-43.55
-53.60
-64.46
-74.40
-81.05
-81.99
-75.49
-61.25
-40.62
-16.34
8.27
30.22
47.47
59.10
65.08
65.75
61.68
53.54
42.37
29.69
17.40
7.43
1.15
-1.03
0.19
3.33
6.67
8.89
9.41
8.42
6.48
4.13
1.52
-1.67
-5.97
-11.95
-19.89
-29.61
-40.29
-50.49
-58.18
-61.19
-57.71
-46.99
-29.69
-7.84
15.66
37.84
56.27
69.45
76.69
77.89
73.41
64.02
51.11
36.63
22.87
11.91
5.05
2.50
3.45
6.56
10.52
14.58
18.65
23.06
28.20
34.00
39.79
44.37
46.37
44.73
39.25
31.02
22.45
16.93
17.94
27.94
47.45
74.60
105.53
135.39
159.73
175.51
181.68
179.00
169.41
155.30
138.95
122.13
106.08
91.55
78.87
68.09
59.03
51.33
44.51
38.08
31.69
25.27
19.05
13.48
8.89
5.18
1.59
-3.28
-11.08
-23.00
-39.05
-57.61
-75.54
-88.96
-94.35
-89.79
-75.59
-54.23
-29.60
-5.79
13.86
27.35
33.86
33.35
26.20
13.10
-4.81
-25.76
-47.49
-67.62
-84.29
-96.54
-104.37
-108.44
-109.62
-108.66
-106.03
-102.00
-96.88
-91.12
-85.35
-80.42
-77.18
-76.45
-78.75
-84.17
-92.15
-101.36
-109.77
-114.86
-114.24
-106.23
-90.50
-68.26
-42.00
-14.94
9.80
29.76
43.43
50.16
49.99
43.48
31.84
16.86
0.87
-13.73
-24.98
-31.91
-34.70
-34.41
-32.42
-29.89
-27.35
-24.77
-21.71
-17.71
-12.44
-5.99
1.10
7.81
12.95
15.64
15.99
15.42
16.38
21.52
32.53
49.37
70.19
91.95
111.44
126.07
134.31
135.71
130.69
120.46
106.79
91.72
76.91
63.19
50.31
37.40
23.64
8.81
-6.44
-20.83
-32.78
-40.79
-43.72
-41.04
-33.18
-21.72
-9.44
0.19
3.93
-0.23
-12.27
-30.08
-50.11
-68.35
-81.34
-86.75
-83.58
-72.13
-53.87
-31.29
-7.71
13.23
28.45
36.28
36.96
32.29
24.62
15.62
5.74
-5.53
-18.68
-33.16
-47.14
-58.17
-64.39
-65.50
-62.96
-59.14
-56.18
-55.01
-55.27
-55.88
-55.90
-55.12
-54.32
-54.96
-58.55
-66.03
-77.18
-90.45
-103.10
-111.77
-113.37
-105.95
-89.40
-65.44
-37.15
-8.15
18.17
39.11
52.88
58.70
56.87
48.76
36.67
23.23
10.64
0.08
-8.51
-16.11
-24.00
-32.98
-43.07
-53.46
-62.88
-70.05
-74.16
-75.12
-73.76
-71.57
-70.30
-71.32
-75.14
-80.98
-86.88
-90.14
-88.01
-78.54
-61.16
-36.92
-8.24
21.69
49.75
73.53
91.63
103.50
109.09
108.49
101.85
89.62
72.68
52.43
30.52
8.54
-12.23
-30.87
-46.64
-58.91
-67.24
-71.61
-72.66
-71.59
-69.97
-69.30
-70.75
-75.06
-82.50
-92.72
-104.47
-115.41
-122.33
-121.97
-112.02
-92.12
-64.00
-31.01
3.00
34.67
61.78
83.10
97.99
106.15
107.40
102.15
91.62
78.00
64.01
52.21
44.22
40.08
38.42
37.05
33.83
27.38
17.42
4.45
-10.44
-25.82
-40.04
-51.48
-59.16
-63.31
-65.70
-69.13
-76.17
-87.93
-103.31
-119.41
-132.75
-140.59
-141.60
-135.73
-123.55
-105.65
-82.56
-55.12
-24.96
5.26
32.26
52.98
65.67
70.45
69.42
65.87
63.09
63.13
66.31
71.18
75.39
76.69
73.63
65.76
53.34
37.00
17.39
-4.66
-27.87
-50.19
-68.87
-80.84
-83.46
-75.27
-56.37
-28.26
6.66
45.55
85.49
123.36
155.91
179.89
192.51
192.12
178.70
154.11
121.84
86.36
52.24
23.31
1.91
-11.46
-17.98
-19.86
-19.49
-18.79
-18.90
-20.50
-23.95
-29.55
-37.32
-46.74
-56.75
-65.92
-72.85
-76.44
-76.04
-71.43
-62.71
-50.28
-34.91
-17.68
0.13
17.14
31.92
43.09
49.37
49.76
43.99
32.73
17.68
1.18
-14.39
-27.24
-36.52
-42.24
-44.95
-45.40
-44.34
-42.49
-40.55
-39.26
-39.34
-41.47
-46.20
-53.90
-64.51
-77.31
-90.67
-102.02
-108.27
-106.55
-95.17
-74.24
-45.82
-13.40
19.02
47.86
70.56
85.68
92.70
91.76
83.62
69.76
52.43
34.37
18.25
5.95
-1.91
-5.96
-7.64
-8.44
-9.36
-10.73
-12.41
-14.27
-16.56
-20.01
-25.65
-34.44
-46.76
-61.99
-78.27
-92.61
-101.49
-101.69
-91.28
-70.24
-40.56
-5.59
30.83
65.23
95.03
118.50
134.52
142.45
142.18
134.40
120.85
104.17
87.40
73.20
63.23
57.76
55.94
56.29
57.32
58.05
58.10
57.48
56.23
54.11
50.54
44.61
35.37
22.10
4.75
-15.68
-36.80
-55.10
-66.58
-67.99
-58.02
-37.88
-11.02
17.96
44.69
66.21
81.13
89.31
91.11
86.96
77.35
63.19
46.19
28.77
13.55
2.55
-3.49
-5.31
-4.77
-4.05
-4.84
-7.74
-12.28
-17.25
-21.46
-24.29
-26.03
-27.84
-31.37
-38.22
-49.44
-64.92
-83.15
-101.23
-115.25
-120.96
-114.78
-94.75
-61.27
-17.30
32.14
81.11
124.06
156.92
177.70
186.30
184.01
172.89
155.53
134.81
113.78
95.14
80.54
70.00
61.84
53.51
42.80
28.88
12.66
-3.76
-18.20
-29.43
-37.73
-44.66
-52.34
-62.68
-76.66
-94.07
-113.47
-132.42
-147.92
-157.00
-157.43
-148.22
-130.00
-104.81
-75.69
-45.96
-18.62
4.02
20.49
30.10
32.85
29.40
21.15
10.10
-1.35
-10.96
-17.13
-19.32
-18.01
-14.41
-9.87
-5.44
-1.55
1.85
5.08
8.37
11.66
14.56
16.44
16.59
14.42
9.74
3.01
-4.45
-10.53
-12.67
-8.50
3.27
22.37
46.85
73.46
98.58
119.11
133.00
139.51
138.92
132.20
120.69
105.99
89.71
73.29
57.76
43.65
31.17
20.54
12.30
7.37
6.75
10.92
19.39
30.54
41.99
51.16
55.94
55.08
48.19
35.68
18.61
-1.34
-21.86
-40.12
-53.24
-58.84
-55.69
-44.07
-25.82
-3.89
18.35
37.76
51.94
59.46
59.90
53.67
41.94
26.40
9.05
-8.07
-23.17
-34.98
-42.95
-47.20
-48.36
-47.41
-45.26
-42.68
-40.13
-37.86
-35.96
-34.46
-33.38
-32.84
-32.98
-33.97
-35.76
-37.84
-39.09
-37.89
-32.60
-22.08
-6.27
13.68
35.73
57.55
77.06
92.63
103.13
107.72
105.90
97.70
83.93
66.18
46.53
26.91
8.62
-7.88
-22.74
-36.21
-48.21
-58.17
-65.26
-68.77
-68.69
-66.01
-62.71
-61.26
-63.93
-71.91
-84.87
-100.99
-117.55
-131.71
-141.17
-144.57
-141.50
-132.35
-118.19
-100.62
-81.66
-63.52
-48.15
-36.87
-30.12
-27.44
-27.67
-29.39
-31.23
-32.16
-31.57
-29.20
-24.98
-18.88
-10.80
-0.65
11.59
25.64
40.83
56.06
69.88
80.63
86.63
86.54
79.67
66.53
49.05
30.61
15.46
7.67
10.00
23.00
44.86
72.14
101.13
129.15
154.97
178.16
197.91
211.85
216.05
206.30
180.23
139.05
88.03
35.08
-11.81
-47.32
-70.19
-82.78
-89.25
-93.23
-96.36
-98.16
-97.02
-91.65
-82.03
-69.70
-57.11
-46.63
-39.52
-35.55
-32.95
-29.20
-21.99
-10.22
5.39
22.49
37.95
48.97
54.04
53.17
47.41
38.13
26.38
12.80
-2.15
-17.77
-32.86
-45.68
-54.15
-56.16
-49.99
-34.94
-12.03
15.67
43.14
64.54
74.75
71.03
53.79
26.38
-6.22
-39.07
-68.44
-92.10
-108.86
-117.84
-118.23
-109.60
-92.64
-69.49
-43.53
-18.45
2.85
18.94
29.93
36.81
40.63
41.93
40.69
36.73
30.08
21.37
11.73
2.59
-4.62
-8.86
-9.63
-7.16
-2.33
3.66
9.58
14.44
17.53
18.12
15.41
8.59
-2.58
-17.33
-33.72
-49.14
-61.24
-68.73
-71.58
-70.52
-66.38
-59.74
-50.99
-40.90
-30.84
-22.61
-17.62
-16.24
-17.75
-20.96
-25.21
-30.82
-38.93
-50.66
-66.05
-83.64
-100.76
-114.35
-121.93
-122.38
-116.17
-105.05
-91.37
-77.18
-63.54
-50.19
-35.77
-18.54
2.85
28.71
58.18
89.47
120.23
147.87
169.95
184.68
191.32
190.47
184.05
174.76
165.10
156.48
148.63
140.10
129.28
115.30
98.54
80.41
62.68
46.73
33.26
22.05
12.63
4.75
-1.60
-6.53
-10.43
-13.97
-17.86
-22.38
-27.74
-33.03
-36.38
-35.76
-30.17
-20.25
-7.85
4.35
14.07
18.41
16.24
8.38
-3.18
-16.83
-32.10
-49.18
-68.92
-91.50
-118.66
-150.17
-183.24
-213.53
-237.28
-253.04
-261.20
-264.81
-267.40
-275.19
-291.40
-314.56
-339.07
-358.43
-368.23
-366.63
-356.02
-318.53
-248.96
-156.05
-57.75
30.99
104.16
157.65
197.42
225.97
243.65
247.56
237.72
217.40
193.15
171.54
156.65
150.08
150.02
153.95
156.98
155.99
150.29
141.20
130.22
118.04
105.35
92.04
78.34
63.17
46.12
28.11
11.63
-0.19
-4.48
0.87
15.69
37.78
62.43
84.31
99.13
104.68
100.70
88.32
69.56
46.45
21.33
-3.41
-25.04
-40.77
-48.45
-47.55
-39.53
-27.42
-14.95
-5.20
0.22
1.28
-0.93
-5.01
-9.87
-15.06
-20.81
-27.59
-35.86
-45.64
-56.23
-66.25
-73.84
-77.17
-75.05
-67.41
-55.44
-41.43
-28.08
-17.79
-11.99
-11.08
-14.59
-21.65
-31.05
-41.22
-49.99
-54.86
-53.60
-45.07
-29.89
-10.31
10.70
30.60
48.08
62.91
75.06
83.74
87.11
83.09
70.64
50.94
27.47
5.04
-11.81
-20.25
-19.80
-12.09
0.13
14.01
27.34
38.81
47.77
53.94
57.15
57.22
53.99
47.28
36.90
22.73
4.83
-16.16
-38.87
-61.28
-81.02
-95.95
-104.76
-107.38
-105.09
-100.22
-95.47
-93.05
-93.75
-96.51
-98.40
-95.53
-84.46
-63.68
-34.41
-0.30
33.82
63.60
86.36
101.43
109.64
112.39
111.06
106.68
100.21
92.64
85.02
78.12
72.20
66.80
61.07
54.15
45.53
35.16
23.29
10.18
-4.20
-20.05
-37.34
-55.39
-72.45
-85.88
-92.78
-90.93
-79.61
-59.98
-34.81
-7.66
18.01
39.49
55.20
64.57
67.86
66.00
60.46
53.00
45.44
39.21
35.04
32.99
32.50
32.79
33.14
33.05
32.30
30.86
28.76
25.94
22.08
16.74
9.65
1.18
-7.27
-13.29
-13.93
-6.62
9.84
34.70
65.33
98.00
128.93
155.10
174.67
187.04
192.56
192.24
187.36
179.13
168.45
155.98
142.37
128.67
116.36
106.99
101.44
99.36
99.01
97.60
92.07
79.66
58.40
27.53
-12.14
-57.80
-104.78
-147.34
-180.32
-200.81
-208.79
-206.54
-196.75
-180.90
-158.74
-129.40
-93.28
-53.38
-15.02
15.96
35.44
42.34
38.67
28.20
14.95
2.08
-8.34
-15.15
-17.86
-16.60
-12.29
-6.56
-1.36
1.59
1.11
-3.40
-12.21
-25.40
-42.72
-63.31
-85.42
-106.49
-123.50
-133.55
-134.34
-124.52
-103.94
-73.90
-37.11
2.43
40.07
71.28
92.62
102.44
101.02
90.27
73.11
52.82
32.56
15.00
2.09
-5.14
-6.74
-3.75
2.03
8.59
14.21
17.89
19.46
19.36
18.31
16.78
14.81
11.85
7.03
-0.37
-10.34
-21.68
-32.02
-38.33
-37.83
-28.92
-11.78
11.72
38.57
65.49
89.66
108.98
122.09
128.17
126.97
118.88
105.15
87.79
69.32
52.15
38.10
28.00
21.66
18.11
15.88
13.52
9.84
4.12
-3.77
-13.55
-24.63
-36.43
-48.58
-60.99
-73.82
-87.15
-100.60
-113.10
-122.75
-127.23
-124.41
-113.03
-93.24
-66.68
-36.20
-5.21
22.93
45.38
60.12
66.14
63.52
53.46
38.25
20.87
4.53
-8.14
-15.64
-17.96
-16.32
-12.67
-8.86
-6.12
-4.86
-4.85
-5.71
-7.29
-9.95
-14.43
-21.67
-32.26
-46.01
-61.60
-76.54
-87.58
-91.43
-85.76
-69.95
-45.35
-14.95
17.37
47.74
73.00
91.08
101.06
103.02
97.91
87.32
73.28
58.05
43.77
32.10
23.92
19.24
17.18
16.38
15.42
13.33
9.81
5.31
0.69
-3.32
-6.51
-9.39
-13.07
-18.70
-26.87
-37.06
-47.50
-55.52
-58.38
-54.10
-42.24
-23.88
-1.29
22.80
45.85
65.82
81.25
91.10
94.71
91.93
83.28
70.13
54.45
38.56
24.54
13.80
6.92
3.55
2.71
3.20
3.96
4.36
4.27
3.83
3.15
2.02
-0.19
-4.36
-11.30
-21.38
-34.22
-48.56
-62.25
-72.59
-76.73
-72.42
-58.78
-36.71
-8.92
20.74
48.26
70.48
85.76
94.04
96.29
93.84
87.83
79.00
67.82
54.71
40.24
25.04
9.73
-5.27
-19.71
-33.38
-46.00
-57.16
-66.49
-73.87
-79.76
-85.22
-91.64
-100.13
-110.74
-122.00
-130.98
-134.03
-128.02
-111.53
-85.58
-53.45
-19.72
11.01
35.27
51.20
58.51
57.90
50.70
38.52
23.13
6.38
-10.02
-24.76
-37.09
-46.82
-54.12
-59.29
-62.54
-64.05
-64.08
-63.14
-62.01
-61.65
-63.07
-66.98
-73.49
-81.80
-90.12
-95.87
-96.30
-89.38
-74.48
-52.76
-26.92
-0.47
23.21
41.50
52.94
57.13
54.51
46.16
33.55
18.52
2.96
-11.36
-23.15
-31.83
-37.60
-41.27
-43.91
-46.41
-49.11
-51.68
-53.30
-53.05
-50.31
-45.12
-38.13
-30.40
-22.96
-16.33
-10.41
-4.49
2.50
11.60
23.47
38.24
55.50
74.35
93.54
111.68
127.36
139.31
146.56
148.58
145.33
137.40
125.96
112.67
99.40
87.90
79.43
74.51
72.90
73.71
75.81
78.10
79.68
79.94
78.38
74.51
67.71
57.32
42.88
24.54
3.50
-17.90
-36.49
-49.04
-53.29
-48.77
-37.00
-21.09
-4.75
8.72
17.18
19.77
16.74
9.03
-2.09
-15.06
-28.16
-39.59
-47.75
-51.65
-51.21
-47.37
-41.79
-36.37
-32.63
-31.30
-32.27
-34.88
-38.42
-42.59
-47.60
-53.81
-61.24
-69.00
-75.26
-77.73
-74.39
-64.43
-48.61
-29.12
-8.96
8.83
21.86
28.58
28.28
21.04
7.66
-10.10
-29.53
-47.23
-59.89
-65.17
-62.46
-53.02
-39.40
-24.63
-11.30
-1.03
5.63
9.07
10.38
11.04
12.50
15.84
21.31
28.36
35.98
43.34
50.38
57.89
67.02
78.49
91.97
105.97
118.36
127.14
131.05
129.80
123.85
114.14
101.73
87.75
73.41
59.96
48.54
39.96
34.45
31.56
30.37
29.74
28.69
26.57
23.15
18.54
12.91
6.31
-1.43
-10.62
-21.33
-32.99
-44.18
-52.82
-56.69
-54.26
-45.18
-30.53
-12.55
5.95
22.25
34.18
40.34
40.13
33.76
22.14
6.81
-10.32
-27.27
-42.38
-54.52
-63.15
-68.26
-70.14
-69.24
-66.08
-61.20
-55.29
-49.29
-44.45
-42.19
-43.71
-49.29
-57.80
-66.58
-71.97
-70.35
-59.37
-38.82
-10.63
21.77
54.52
84.30
108.83
126.84
137.75
141.35
137.68
127.04
110.07
87.84
61.72
33.28
4.12
-24.29
-50.65
-73.81
-92.85
-107.25
-117.07
-123.12
-126.98
-130.69
-136.28
-145.03
-156.87
-170.11
-181.58
-187.45
-184.40
-170.73
-147.04
-116.05
-81.74
-48.07
-17.99
6.90
25.97
39.04
46.00
47.04
43.08
36.04
28.55
23.05
20.94
21.97
24.55
26.49
26.01
22.33
15.73
7.14
-2.43
-12.40
-22.76
-33.99
-46.57
-60.38
-74.29
-85.96
-92.28
-90.28
-78.10
-55.90
-25.89
8.15
42.00
71.96
95.52
111.53
119.90
121.21
116.42
106.77
93.80
79.25
64.92
52.32
42.39
35.37
30.84
27.94
25.75
23.49
20.63
16.81
11.69
4.83
-4.34
-16.31
-31.04
-47.55
-63.62
-75.95
-80.90
-75.60
-58.96
-32.28
0.95
36.12
68.64
95.13
113.74
124.04
126.50
122.03
111.85
97.52
80.93
64.13
49.00
36.75
27.73
21.44
16.85
12.83
8.49
3.29
-2.95
-10.26
-18.76
-28.77
-40.80
-55.28
-72.11
-90.13
-106.95
-119.18
-123.28
-116.70
-98.85
-71.50
-38.41
-4.28
26.47
50.64
66.65
74.34
74.50
68.48
57.88
44.40
29.77
15.54
2.93
-7.38
-15.19
-20.63
-23.93
-25.25
-24.68
-22.36
-18.65
-14.17
-9.89
-6.97
-6.65
-9.83
-16.63
-25.93
-35.27
-41.22
-40.41
-30.67
-12.00
13.29
41.32
67.94
90.01
106.08
116.18
121.16
121.80
118.58
111.73
101.75
89.72
77.15
65.55
55.85
48.12
41.66
35.61
29.49
23.42
17.97
13.61
10.04
6.03
-0.23
-10.34
-24.60
-41.47
-57.63
-68.97
-71.90
-64.57
-47.44
-22.98
5.11
33.01
57.56
76.69
89.45
95.81
96.57
93.00
86.68
79.11
71.34
63.67
55.53
45.69
32.79
15.88
-4.99
-28.70
-53.24
-76.35
-96.25
-112.27
-125.14
-136.74
-149.24
-164.00
-180.46
-195.83
-205.66
-205.34
-191.90
-165.26
-128.41
-86.43
-44.82
-8.01
21.35
42.28
54.88
59.69
57.57
49.79
38.18
24.99
12.41
1.95
-5.94
-11.86
-16.99
-22.43
-28.75
-35.87
-43.37
-50.91
-58.48
-66.46
-75.33
-85.41
-96.54
-107.88
-117.81
-123.94
-123.54
-114.18
-94.58
-65.41
-29.70
7.61
40.89
65.59
79.88
85.04
84.63
82.56
81.31
81.13
80.71
78.64
74.74
70.30
67.23
66.77
68.61
71.14
72.48
71.61
68.72
64.68
60.17
55.07
48.63
40.07
29.16
16.54
3.32
-9.43
-21.36
-33.03
-45.90
-61.59
-80.93
-103.00
-124.70
-141.24
-147.59
-140.25
-118.82
-86.33
-48.37
-11.22
19.98
42.42
55.68
60.89
59.77
53.91
44.69
33.40
21.45
10.33
1.26
-5.07
-8.77
-10.51
-11.24
-11.75
-12.46
-13.41
-14.45
-15.45
-16.51
-17.84
-19.66
-21.97
-24.57
-27.15
-29.56
-32.05
-35.40
-40.64
-48.50
-58.78
-69.79
-78.50
-81.22
-74.80
-57.82
-31.22
1.89
37.13
70.15
97.61
117.60
129.57
133.87
131.42
123.54
111.97
98.75
85.98
75.36
67.83
63.34
61.08
59.90
58.80
57.27
55.27
53.01
50.54
47.56
43.37
37.15
28.39
17.14
4.09
-9.54
-22.54
-34.03
-43.93
-52.97
-62.60
-74.52
-89.91
-108.69
-129.04
-147.48
-159.61
-161.46
-150.84
-128.09
-96.09
-59.27
-22.30
11.21
39.30
61.60
78.78
91.81
101.53
108.45
112.90
115.23
115.87
115.32
113.99
112.04
109.40
105.82
101.04
94.94
87.49
78.84
69.19
58.80
47.89
36.68
25.28
13.64
1.65
-10.81
-23.64
-36.57
-49.05
-60.54
-70.64
-79.23
-86.49
-92.86
-99.07
-106.05
-114.77
-125.81
-138.77
-151.87
-161.99
-165.39
-158.88
-141.04
-112.87
-77.58
-39.60
-3.22
28.48
54.00
73.25
86.87
95.58
99.94
100.34
97.31
91.77
85.04
78.61
73.64
70.61
69.11
68.04
66.09
62.24
56.09
47.82
37.86
26.49
13.68
-0.84
-17.07
-34.41
-51.46
-66.45
-77.81
-84.85
-88.12
-89.22
-90.32
-93.49
-100.27
-111.26
-126.01
-142.82
-158.81
-170.25
-173.34
-165.30
-145.28
-114.88
-77.73
-38.50
-1.62
29.71
53.88
70.76
81.03
85.68
85.66
81.83
75.10
66.63
57.85
50.32
45.38
43.80
45.55
49.83
55.42
61.07
65.84
69.20
70.93
71.07
69.98
68.63
68.74
72.20
80.12
91.68
103.74
111.80
111.64
101.28
81.73
56.59
30.60
8.17
-7.39
-13.89
-9.90
5.11
30.35
63.06
98.64
131.55
156.98
172.14
176.68
172.14
160.91
145.29
127.14
108.01
89.30
72.29
57.89
46.27
36.81
28.38
19.94
11.03
1.96
-6.48
-13.59
-19.23
-23.93
-28.64
-34.23
-41.14
-49.24
-57.89
-66.31
-73.84
-80.21
-85.65
-90.83
-96.77
-104.59
-114.98
-127.77
-141.52
-153.51
-160.24
-158.46
-146.25
-123.71
-93.11
-58.19
-23.21
8.17
33.48
51.66
62.72
67.35
66.58
61.57
53.56
43.82
33.50
23.55
14.60
6.91
0.48
-4.75
-8.73
-11.26
-12.05
-11.03
-8.56
-5.51
-3.00
-2.02
-3.03
-5.85
-9.79
-13.95
-17.65
-20.62
-23.17
-26.22
-30.99
-38.64
-49.62
-63.06
-76.51
-86.30
-88.63
-80.81
-62.41
-35.45
-3.78
28.23
56.92
80.03
96.73
107.07
111.53
110.71
105.45
96.95
86.76
76.48
67.29
59.69
53.48
48.21
43.54
39.57
36.53
34.48
32.88
30.57
26.18
18.65
7.85
-5.47
-19.86
-33.85
-46.49
-57.60
-67.77
-78.07
-89.70
-103.64
-120.27
-138.94
-157.62
-172.91
-180.57
-176.65
-159.00
-128.35
-88.52
-45.39
-5.23
27.18
49.51
61.91
66.05
64.10
57.88
48.71
37.67
25.86
14.48
4.68
-2.81
-7.88
-11.08
-13.46
-16.29
-20.73
-27.45
-36.44
-46.86
-57.34
-66.36
-72.84
-76.60
-78.52
-80.31
-83.96
-91.07
-102.25
-116.62
-131.77
-144.22
-150.15
-146.57
-132.21
-108.06
-77.24
-44.08
-13.16
11.87
28.94
37.93
40.57
39.86
39.15
41.12
46.95
56.06
66.59
76.41
84.07
89.14
91.84
92.27
89.83
83.45
72.37
56.97
39.11
21.41
6.14
-5.83
-15.39
-24.55
-35.40
-49.17
-65.63
-83.21
-99.45
-111.57
-116.96
-113.76
-101.24
-80.11
-52.57
-21.83
8.56
35.57
57.24
72.83
82.58
87.18
87.50
84.33
78.57
71.25
63.64
57.04
52.47
50.32
50.28
51.38
52.34
52.01
49.68
45.28
39.27
32.37
25.20
18.12
11.25
4.64
-1.49
-6.76
-10.87
-13.83
-16.01
-17.89
-19.42
-19.78
-17.37
-10.68
0.80
15.97
32.22
46.45
56.27
60.74
60.34
56.20
49.17
39.38
26.41
9.92
-9.65
-30.88
-51.54
-69.27
-82.21
-89.52
-91.49
-89.37
-84.96
-80.14
-76.47
-74.96
-76.01
-79.49
-85.03
-92.20
-100.73
-110.59
-121.95
-134.87
-148.96
-162.82
-173.81
-178.30
-172.45
-153.54
-121.10
-77.34
-26.80
24.99
72.95
113.54
145.12
167.54
181.44
187.74
187.60
182.51
174.39
165.38
157.27
151.03
146.62
143.31
140.14
136.53
132.42
128.17
124.23
120.83
117.82
114.75
111.03
106.17
99.95
92.48
84.15
75.48
66.85
58.30
49.54
40.07
29.58
18.29
7.07
-2.61
-9.23
-11.64
-9.59
-3.80
4.20
12.56
19.66
24.45
26.65
26.64
25.14
22.93
20.63
18.53
16.64
14.69
12.27
8.87
4.01
-2.63
-11.14
-21.32
-32.74
-44.78
-56.78
-68.11
-78.23
-86.81
-93.77
-99.38
-104.26
-109.18
-114.84
-121.57
-129.17
-136.89
-143.56
-147.86
-148.53
-144.63
-135.74
-122.10
-104.73
-85.27
-65.72
-48.10
-34.02
-24.57
-20.35
-21.62
-28.40
-40.39
-56.76
-75.88
-95.31
-112.16
-123.74
-128.41
-126.03
-118.04
-106.85
-95.00
-84.27
-75.28
-67.47
-59.67
-50.71
-40.05
-27.99
-15.77
-5.18
1.77
3.48
-0.70
-10.06
-22.27
-33.70
-40.16
-37.94
-24.89
-1.12
31.02
67.54
103.93
136.22
161.57
178.52
186.70
186.50
178.88
165.39
148.14
129.73
112.78
99.29
90.15
84.83
81.76
78.78
74.03
66.41
55.84
42.97
28.79
14.16
-0.48
-15.00
-29.60
-44.58
-60.34
-77.21
-95.10
-112.97
-128.49
-138.14
-138.00
-125.07
-98.54
-60.44
-15.29
31.12
73.16
106.66
129.39
140.99
142.56
136.06
123.97
108.98
93.64
80.03
69.28
61.43
55.52
49.99
43.36
34.81
24.52
13.59
3.55
-4.29
-9.42
-12.29
-14.10
-16.37
-20.48
-27.54
-38.26
-52.95
-71.19
-91.44
-110.88
-125.75
-132.37
-128.43
-113.99
-91.60
-65.49
-40.21
-19.22
-4.30
4.31
7.31
5.56
-0.20
-9.37
-21.18
-34.41
-47.43
-58.38
-65.61
-68.17
-66.09
-60.52
-53.33
-46.57
-41.88
-39.98
-40.60
-42.67
-44.74
-45.33
-43.32
-38.19
-30.29
-20.99
-12.62
-7.94
-9.18
-16.96
-29.64
-43.44
-53.37
-54.67
-44.26
-21.60
11.02
49.01
86.55
117.85
138.42
145.82
140.00
123.03
98.36
70.07
42.09
17.65
-1.01
-12.78
-17.76
-17.16
-12.99
-7.51
-2.64
0.48
1.64
1.28
0.18
-1.05
-2.17
-3.36
-4.97
-7.19
-9.88
-12.76
-15.74
-19.09
-23.16
-27.77
-31.69
-32.71
-28.46
-17.51
-0.28
21.10
43.61
64.69
83.07
98.89
113.14
126.89
140.85
155.42
170.80
187.01
203.54
219.07
231.46
238.24
237.35
227.89
210.54
187.42
161.53
136.02
113.39
95.07
81.25
71.17
63.59
57.29
51.36
45.25
38.56
30.97
22.26
12.56
2.49
-6.95
-14.72
-20.38
-24.40
-28.08
-33.11
-40.83
-51.88
-66.35
-84.08
-104.54
-126.28
-146.20
-159.65
-161.88
-150.38
-126.84
-97.36
-70.26
-52.59
-47.05
-51.09
-58.77
-64.03
-63.62
-58.10
-50.73
-45.34
-44.53
-49.04
-58.24
-70.79
-84.97
-98.56
-108.77
-112.49
-107.03
-91.28
-66.30
-35.21
-2.28
28.37
53.78
72.56
84.70
90.93
92.27
89.80
84.71
78.25
71.66
65.72
60.41
54.82
47.49
37.16
23.56
7.85
-7.64
-20.30
-28.46
-32.15
-33.14
-34.03
-37.16
-43.65
-53.39
-65.50
-79.03
-93.15
-106.82
-118.18
-124.52
-122.77
-110.70
-87.95
-56.51
-20.26
16.06
48.10
72.77
88.52
95.28
94.04
86.43
74.38
59.88
44.83
31.01
19.89
12.48
8.92
8.40
9.31
9.77
8.41
4.87
-0.17
-5.49
-10.07
-13.62
-16.71
-20.52
-26.23
-34.41
-44.54
-54.82
-62.48
-64.50
-58.62
-44.15
-22.31
4.13
31.80
57.76
80.28
98.81
113.52
124.51
131.46
133.73
130.83
123.01
111.44
98.04
84.76
72.97
63.05
54.41
46.10
37.43
28.47
20.00
13.09
8.34
5.45
3.24
0.08
-5.49
-14.10
-25.41
-38.07
-50.15
-59.48
-64.08
-62.50
-54.09
-39.25
-19.32
3.42
26.34
46.89
63.10
73.80
78.59
77.71
71.92
62.45
50.90
39.12
28.85
21.28
16.62
13.96
11.64
7.87
1.50
-7.53
-18.16
-28.84
-38.20
-45.66
-51.59
-57.03
-63.20
-71.01
-80.72
-91.81
-103.06
-112.60
-118.24
-117.92
-110.27
-95.09
-73.61
-48.27
-22.13
1.68
20.69
33.25
38.70
37.24
29.84
18.10
4.09
-10.01
-22.29
-31.43
-36.93
-39.03
-38.49
-36.25
-33.08
-29.50
-25.74
-22.06
-18.81
-16.68
-16.54
-19.27
-25.57
-35.51
-48.33
-62.35
-75.12
-83.91
-86.32
-80.98
-67.85
-48.31
-24.68
0.32
24.13
44.61
60.20
69.77
72.69
68.91
59.13
44.84
28.23
11.82
-2.11
-11.97
-17.25
-18.53
-17.10
-14.52
-12.00
-10.23
-9.33
-9.17
-9.61
-10.66
-12.40
-14.94
-18.27
-22.35
-27.07
-32.11
-36.77
-39.81
-39.62
-34.63
-23.89
-7.62
12.68
34.51
55.04
71.79
83.12
88.33
87.54
81.36
70.76
57.06
41.93
27.38
15.35
7.22
3.27
2.65
3.71
4.88
5.30
5.11
5.00
5.48
6.28
6.25
3.75
-2.68
-13.65
-28.62
-45.87
-62.79
-76.39
-83.86
-83.30
-74.29
-58.05
-37.24
-15.20
4.92
20.84
31.39
36.62
37.56
35.92
33.69
32.54
33.38
36.03
39.42
42.11
43.09
42.19
40.08
37.77
35.94
34.57
32.90
29.81
24.19
15.20
2.32
-14.65
-35.46
-59.17
-83.95
-107.04
-125.23
-135.51
-136.00
-126.54
-108.76
-85.64
-60.66
-36.90
-16.37
0.08
12.54
21.43
27.11
29.68
29.23
26.15
21.40
16.44
12.71
11.12
11.56
13.06
14.29
14.31
13.07
11.28
9.90
9.40
9.32
8.38
4.99
-2.05
-12.96
-26.85
-41.88
-55.63
-65.63
-69.88
-67.26
-57.72
-42.30
-22.88
-1.71
18.96
37.22
51.61
61.10
65.13
63.69
57.51
48.08
37.54
28.19
21.84
19.27
19.95
22.31
24.41
24.69
22.50
18.18
12.62
6.70
0.82
-5.14
-11.66
-19.22
-28.12
-38.42
-49.92
-62.11
-73.91
-83.61
-88.94
-87.71
-78.63
-61.85
-39.14
-13.35
12.40
35.52
54.34
67.94
75.93
78.21
75.00
67.04
55.78
43.21
31.45
22.24
16.40
13.76
13.38
13.99
14.45
14.03
12.45
9.75
6.10
1.74
-3.13
-8.29
-13.69
-19.54
-26.22
-34.08
-42.89
-51.53
-57.88
-59.41
-54.14
-41.50
-22.61
0.01
23.39
44.86
62.54
75.26
82.22
82.98
77.65
67.36
54.30
41.35
31.16
25.20
23.38
24.25
25.82
26.40
25.15
21.94
17.08
10.90
3.66
-4.42
-13.02
-21.81
-30.61
-39.58
-49.13
-59.46
-70.00
-79.09
-84.23
-82.87
-73.44
-56.11
-32.88
-7.02
18.02
39.52
55.88
66.58
71.77
71.92
67.69
60.08
50.61
41.18
33.71
29.57
29.08
31.43
35.11
38.48
40.44
40.68
39.67
38.10
36.44
34.62
32.00
27.66
20.73
10.77
-2.03
-16.63
-31.12
-42.83
-48.82
-46.66
-35.23
-15.19
11.00
39.77
67.42
90.94
108.42
119.06
122.84
120.30
112.33
100.25
85.70
70.48
56.20
44.07
34.61
27.70
22.75
18.97
15.68
12.57
9.73
7.48
6.07
5.21
4.05
1.27
-4.42
-13.77
-26.66
-42.03
-58.09
-72.66
-83.60
-89.18
-88.39
-81.10
-68.08
-50.80
-31.13
-10.96
7.97
24.26
36.88
45.18
48.90
48.26
43.89
36.85
28.38
19.80
12.32
6.91
4.07
3.72
5.10
6.94
7.86
6.86
3.69
-1.08
-6.40
-11.25
-15.17
-18.50
-22.17
-27.34
-34.87
-45.01
-57.19
-69.98
-81.28
-88.65
-89.83
-83.41
-69.29
-48.83
-24.52
0.66
23.93
43.18
57.10
65.04
66.90
63.13
54.76
43.41
31.06
19.62
10.51
4.37
1.03
-0.25
-0.50
-0.72
-1.64
-3.61
-6.48
-9.74
-12.64
-14.59
-15.47
-15.74
-16.32
-18.23
-22.21
-28.43
-36.48
-45.41
-53.79
-59.90
-61.81
-57.80
-46.86
-29.20
-6.40
18.80
43.27
64.25
79.93
89.55
93.17
91.24
84.39
73.51
59.81
45.01
31.07
19.74
12.13
8.36
7.59
8.41
9.30
9.10
7.21
3.68
-0.94
-5.83
-10.21
-13.64
-16.26
-18.84
-22.49
-28.35
-37.04
-48.34
-61.02
-72.97
-81.58
-84.39
-79.72
-67.25
-48.25
-25.35
-1.84
19.17
35.46
45.99
50.72
50.21
45.18
36.48
25.19
12.78
1.12
-7.92
-13.05
-14.00
-11.70
-7.97
-4.86
-3.91
-5.65
-9.57
-14.46
-19.02
-22.44
-24.63
-26.25
-28.31
-31.85
-37.59
-45.73
-55.76
-66.40
-75.68
-81.19
-80.69
-72.79
-57.57
-36.77
-13.36
9.20
27.97
41.13
48.16
49.58
46.39
39.73
30.73
20.51
10.35
1.59
-4.62
-7.70
-7.94
-6.41
-4.69
-4.22
-5.90
-9.80
-15.41
-21.95
-28.73
-35.32
-41.54
-47.36
-52.78
-57.90
-63.11
-69.15
-76.88
-86.77
-98.26
-109.41
-117.10
-117.90
-109.23
-90.46
-63.23
-31.03
1.90
31.73
55.95
73.47
84.37
89.26
88.97
84.43
76.87
67.88
59.24
52.50
48.48
46.99
46.96
46.91
45.52
42.11
36.74
29.94
22.43
14.78
7.24
-0.08
-7.17
-14.00
-20.55
-26.95
-33.58
-40.97
-49.60
-59.43
-69.51
-77.86
-81.88
-79.08
-68.03
-48.99
-24.03
3.62
30.40
53.44
70.95
82.41
88.08
88.74
85.32
78.90
70.66
61.95
54.07
47.99
44.04
41.83
40.49
39.02
36.86
34.03
31.06
28.63
27.13
26.40
25.77
24.40
21.60
17.14
11.29
4.66
-2.09
-8.53
-14.67
-21.05
-28.51
-37.78
-48.85
-60.46
-70.04
-74.25
-70.13
-56.21
-33.32
-4.54
25.64
52.78
73.57
86.57
92.11
91.66
87.06
79.97
71.69
63.15
55.11
48.15
42.64
38.57
35.55
32.92
29.92
25.98
20.87
14.69
7.77
0.56
-6.54
-13.32
-19.71
-25.79
-31.69
-37.55
-43.52
-49.85
-56.94
-65.24
-74.97
-85.60
-95.63
-102.59
-103.65
-96.60
-80.78
-57.46
-29.68
-1.30
24.07
43.83
56.87
63.22
63.62
59.10
50.77
39.85
27.82
16.37
7.23
1.70
0.35
2.83
7.94
13.99
19.29
22.51
22.92
20.36
14.95
6.80
-4.18
-18.25
-35.49
-55.59
-77.61
-100.20
-121.77
-140.80
-155.91
-165.74
-168.98
-164.47
-151.70
-131.24
-105.03
-76.07
-47.74
-22.94
-3.50
10.01
17.85
20.64
19.04
13.73
5.67
-3.64
-12.24
-18.11
-19.90
-17.45
-11.94
-5.49
-0.37
1.76
0.20
-4.81
-12.46
-21.81
-32.03
-42.44
-52.59
-62.20
-71.14
-79.37
-86.70
-92.58
-95.94
-95.37
-89.43
-77.09
-58.04
-32.75
-2.33
31.62
67.21
102.19
134.00
159.91
177.38
184.49
180.55
166.43
144.63
118.84
93.22
71.46
55.99
47.60
45.47
47.58
51.49
54.91
56.30
54.90
50.65
43.74
34.30
22.15
6.93
-11.40
-32.02
-52.94
-71.34
-84.40
-90.32
-89.03
-82.05
-71.86
-60.87
-50.60
-41.29
-31.96
-20.82
-5.84
14.47
40.23
69.66
99.11
123.93
139.94
144.86
139.11
125.33
107.12
87.64
68.82
51.54
36.27
23.73
14.93
10.66
10.76
13.71
16.85
17.04
11.76
-0.19
-18.37
-41.03
-65.69
-89.87
-111.48
-128.89
-140.74
-145.72
-142.72
-131.11
-111.26
-84.86
-54.84
-24.77
1.97
22.93
36.94
44.04
45.08
41.30
34.16
25.07
15.37
6.07
-2.30
-9.63
-16.00
-21.35
-25.30
-27.22
-26.56
-23.14
-17.28
-9.68
-1.05
8.01
17.11
25.75
33.17
38.24
39.64
36.30
27.90
15.35
0.87
-12.33
-20.79
-21.79
-14.35
0.44
19.80
40.14
58.20
71.73
79.74
82.10
79.17
71.53
60.08
46.21
31.89
19.28
10.13
5.16
3.74
4.23
4.61
3.28
-0.36
-5.98
-12.62
-19.30
-25.55
-31.55
-38.06
-46.03
-56.29
-69.15
-84.19
-100.12
-114.93
-126.22
-131.59
-129.33
-118.90
-101.11
-78.06
-52.61
-27.75
-5.99
10.91
21.96
26.68
24.90
16.77
2.90
-15.32
-35.72
-55.53
-71.87
-82.46
-86.20
-83.57
-76.54
-68.08
-61.15
-57.75
-58.27
-61.72
-66.47
-71.30
-75.99
-81.12
-87.31
-94.36
-101.16
-106.09
-107.88
-106.04
-100.72
-91.88
-78.78
-60.11
-34.89
-3.50
31.82
67.54
99.98
126.44
145.58
157.06
160.90
157.12
146.05
129.18
109.64
91.83
80.26
77.94
85.22
99.52
116.19
130.03
136.72
134.02
122.09
103.18
80.72
58.22
38.22
21.65
7.64
-5.94
-21.56
-40.79
-63.36
-86.92
-107.57
-121.00
-123.71
-114.10
-92.89
-63.04
-29.03
4.21
32.39
52.70
64.33
68.36
67.22
63.77
60.40
58.44
58.10
58.87
60.12
61.48
62.85
64.06
64.56
63.41
59.62
52.63
42.75
31.02
18.75
6.78
-4.86
-16.84
-30.02
-44.71
-60.48
-76.28
-91.09
-104.42
-116.29
-126.87
-135.72
-141.41
-141.70
-134.20
-117.31
-91.07
-57.30
-19.39
18.54
52.48
79.39
97.64
107.06
108.76
104.63
96.86
87.56
78.51
71.03
65.99
63.77
64.16
66.48
69.81
73.32
76.51
79.20
81.23
82.12
80.87
76.35
67.85
55.77
41.83
28.72
19.10
14.60
15.00
18.25
21.07
20.10
12.89
-1.30
-21.34
-44.51
-67.09
-85.16
-95.32
-95.39
-84.90
-65.21
-39.35
-11.33
14.88
36.25
51.32
60.19
63.94
63.85
60.90
55.70
48.76
40.85
33.20
27.11
23.53
22.66
23.97
26.63
29.97
33.79
38.15
42.95
47.57
50.88
51.62
48.99
43.05
34.65
25.06
15.34
5.97
-3.20
-12.68
-23.00
-34.51
-47.33
-61.39
-76.27
-90.89
-103.40
-111.30
-111.94
-103.40
-85.23
-58.87
-27.28
5.71
36.48
62.31
81.69
94.06
99.45
98.14
90.60
77.68
60.88
42.26
24.04
8.01
-4.90
-14.73
-22.02
-27.27
-30.58
-31.83
-31.24
-29.98
-30.23
-34.63
-45.06
-61.51
-81.68
-101.56
-116.91
-124.72
-124.19
-116.66
-104.67
-90.76
-76.58
-62.70
-48.87
-34.55
-19.08
-1.83
17.71
39.46
62.30
83.83
100.93
110.83
112.41
106.77
96.82
86.24
78.15
74.23
74.50
77.69
81.99
85.63
87.36
86.62
83.55
78.86
73.48
68.33
64.13
61.43
60.65
62.00
65.26
69.58
73.60
75.66
74.43
69.14
59.64
46.12
28.96
8.66
-14.07
-38.33
-63.18
-87.90
-111.90
-134.43
-153.97
-167.96
-173.30
-167.42
-149.57
-121.54
-87.34
-51.96
-19.80
6.35
25.51
38.00
44.64
46.25
43.60
37.72
30.11
22.67
17.15
14.60
14.92
16.93
18.93
19.47
17.92
14.61
10.44
6.27
2.47
-1.30
-5.69
-11.24
-17.94
-25.18
-32.02
-37.69
-42.01
-45.50
-49.25
-54.49
-62.05
-71.77
-82.36
-91.39
-95.84
-92.98
-81.24
-60.81
-33.69
-3.13
27.27
54.48
76.58
92.82
103.36
108.78
109.86
107.49
102.67
96.53
90.18
84.48
79.85
76.29
73.47
71.12
69.08
67.44
66.26
65.37
64.19
61.88
57.63
51.08
42.54
32.85
22.97
13.50
4.31
-5.39
-16.65
-30.28
-46.42
-64.26
-82.19
-97.93
-108.96
-113.00
-108.53
-95.27
-74.40
-48.51
-20.98
4.80
26.15
41.61
50.95
54.84
54.33
50.40
43.78
35.04
24.73
13.60
2.63
-7.13
-14.78
-19.86
-22.38
-22.81
-21.96
-20.78
-20.23
-21.02
-23.46
-27.23
-31.49
-35.17
-37.45
-38.14
-37.87
-37.83
-39.29
-43.10
-49.36
-57.42
-65.93
-73.06
-76.75
-75.05
-66.52
-50.79
-28.84
-3.01
23.50
47.35
65.82
77.29
81.19
77.71
67.52
51.63
31.47
9.10
-12.95
-32.14
-46.69
-56.26
-62.07
-66.27
-70.81
-76.29
-81.52
-83.93
-80.81
-70.80
-54.90
-36.44
-20.01
-9.75
-7.84
-13.66
-24.16
-35.16
-43.07
-46.24
-45.35
-42.75
-41.04
-41.77
-44.72
-48.15
-49.73
-47.56
-40.87
-30.00
-16.01
-0.11
16.61
33.20
48.58
61.45
70.52
74.87
74.41
69.98
63.19
55.83
49.39
44.62
41.54
39.61
38.10
36.45
34.46
32.25
30.10
28.28
26.83
25.55
24.06
21.95
18.95
15.05
10.51
5.69
0.90
-3.74
-8.32
-13.06
-18.12
-23.44
-28.59
-32.81
-35.06
-34.41
-30.23
-22.51
-11.89
0.40
12.86
24.10
33.09
39.31
42.73
43.67
42.60
40.06
36.52
32.45
28.27
24.29
20.73
17.68
15.12
13.01
11.29
9.86
8.56
7.18
5.50
3.38
0.83
-2.04
-5.09
-8.26
-11.60
-15.19
-19.14
-23.48
-28.16
-33.06
-38.03
-42.72
-46.55
-48.77
-48.57
-45.33
-38.92
-29.76
-18.82
-7.37
3.31
12.23
18.76
22.72
24.24
23.67
21.48
18.18
14.32
10.44
7.01
4.34
2.57
1.56
0.99
0.49
-0.31
-1.63
-3.57
-6.12
-9.20
-12.63
-16.19
-19.68
-22.87
-25.79
-28.62
-31.73
-35.49
-40.11
-45.41
-50.79
-55.23
-57.59
-56.93
-52.75
-45.15
-34.84
-22.94
-10.68
0.80
10.66
18.36
23.65
26.46
26.92
25.36
22.27
18.32
14.18
10.40
7.35
5.11
3.58
2.53
1.63
0.51
-1.17
-3.68
-7.03
-10.97
-14.99
-18.52
-21.16
-22.93
-24.29
-25.93
-28.46
-32.03
-36.23
-40.16
-42.70
-42.85
-39.78
-32.92
-21.88
-6.50
12.96
35.59
59.82
83.66
105.15
122.71
135.36
142.60
144.16
139.99
130.37
116.07
98.51
79.44
60.60
43.26
28.02
14.88
3.50
-6.60
-15.96
-25.02
-34.10
-43.28
-52.33
-60.77
-68.11
-74.04
-78.58
-82.06
-84.98
-87.84
-91.08
-95.04
-99.87
-105.38
-110.98
-115.57
-117.75
-116.13
-109.81
-98.67
-83.49
-65.74
-47.20
-29.55
-13.97
-1.10
8.90
16.18
21.07
23.96
25.29
25.55
25.20
24.62
24.05
23.57
23.14
22.59
21.73
20.42
18.63
16.41
13.91
11.23
8.38
5.28
1.79
-2.17
-6.53
-11.12
-15.73
-20.30
-24.95
-30.04
-35.96
-42.84
-50.37
-57.63
-63.26
-65.78
-64.04
-57.62
-46.95
-33.30
-18.28
-3.50
9.86
21.09
29.92
36.33
40.45
42.54
42.98
42.31
41.11
39.89
38.91
38.20
37.52
36.60
35.26
33.48
31.41
29.22
26.98
24.53
21.63
18.00
13.54
8.44
3.09
-2.07
-6.68
-10.69
-14.30
-17.98
-22.21
-27.38
-33.56
-40.42
-47.11
-52.42
-55.01
-53.72
-48.04
-38.22
-25.29
-10.76
3.81
17.09
28.22
36.77
42.63
45.90
46.81
45.78
43.33
40.05
36.54
33.26
30.41
28.01
25.92
23.94
22.00
20.09
18.34
16.78
15.33
13.78
11.80
9.18
5.90
2.17
-1.70
-5.45
-9.02
-12.60
-16.52
-21.14
-26.69
-33.16
-40.23
-47.26
-53.31
-57.30
-58.23
-55.53
-49.23
-40.00
-28.95
-17.23
-5.72
5.14
15.20
24.34
32.31
38.59
42.68
44.25
43.34
40.33
35.80
30.24
23.96
17.08
9.70
2.11
-5.18
-11.59
-16.67
-20.47
-23.58
-26.97
-31.61
-38.00
-45.84
-54.13
-61.47
-66.69
-69.23
-69.43
-68.34
-67.40
-67.97
-70.89
-76.38
-83.80
-91.59
-97.36
-98.19
-91.33
-75.14
-49.94
-18.32
15.28
45.75
68.82
82.18
85.99
82.44
74.89
66.75
60.79
58.65
60.86
66.93
75.64
85.33
94.29
101.15
105.08
105.92
103.95
99.76
93.93
87.01
79.47
71.65
63.86
56.23
48.80
41.42
33.96
26.24
18.16
9.67
0.79
-8.31
-17.20
-25.18
-31.29
-34.63
-34.57
-31.06
-24.63
-16.28
-7.14
1.80
9.86
16.59
21.72
25.03
26.34
25.67
23.28
19.71
15.66
11.77
8.45
5.85
3.91
2.44
1.24
0.11
-1.11
-2.55
-4.35
-6.63
-9.47
-12.88
-16.78
-21.07
-25.57
-30.26
-35.26
-40.82
-47.24
-54.62
-62.71
-70.74
-77.58
-81.88
-82.44
-78.39
-69.44
-55.92
-38.85
-19.75
-0.44
17.26
31.91
42.69
49.47
52.69
53.07
51.34
48.10
43.83
38.99
34.13
29.75
26.23
23.59
21.41
19.00
15.55
10.57
3.98
-3.75
-11.88
-19.71
-26.84
-33.32
-39.64
-46.46
-54.43
-63.99
-75.21
-87.57
-99.79
-109.76
-114.81
-112.43
-101.14
-81.20
-54.77
-25.32
3.50
28.76
48.95
63.75
73.61
79.13
80.88
79.41
75.47
70.06
64.32
59.22
55.32
52.70
50.91
49.31
47.15
43.86
39.21
33.32
26.60
19.56
12.65
6.01
-0.50
-7.16
-14.37
-22.39
-31.42
-41.57
-52.82
-64.73
-76.24
-85.43
-89.87
-87.18
-76.00
-56.72
-31.50
-3.81
22.69
45.12
62.01
73.25
79.56
81.92
81.16
77.96
72.97
67.04
61.16
56.22
52.72
50.62
49.35
48.16
46.36
43.61
39.93
35.51
30.59
25.24
19.44
13.18
6.51
-0.38
-7.36
-14.43
-21.86
-29.98
-39.07
-48.98
-58.95
-67.51
-72.76
-72.78
-66.25
-53.00
-34.23
-12.29
9.98
29.92
45.78
56.84
63.32
65.90
65.39
62.52
58.02
52.70
47.45
43.06
39.97
38.07
36.85
35.63
33.78
31.09
27.65
23.78
19.76
15.72
11.58
7.08
1.98
-3.89
-10.57
-18.01
-26.04
-34.36
-42.53
-49.93
-55.78
-59.21
-59.51
-56.27
-49.57
-40.02
-28.68
-16.79
-5.65
3.68
10.41
14.05
14.56
12.16
7.40
0.99
-6.29
-13.68
-20.55
-26.47
-31.21
-34.84
-37.56
-39.64
-41.30
-42.72
-44.08
-45.73
-48.19
-52.05
-57.89
-66.08
-76.81
-90.13
-105.96
-123.81
-142.45
-159.82
-173.19
-179.84
-177.77
-166.21
-145.64
-117.54
-84.04
-47.77
-11.78
20.65
46.38
63.19
70.29
68.64
60.56
48.94
36.34
24.36
13.44
3.19
-7.01
-17.57
-28.36
-38.94
-48.82
-57.80
-66.01
-73.73
-81.25
-88.84
-96.90
-106.23
-117.96
-133.07
-151.70
-172.60
-193.10
-209.73
-219.22
-219.53
-210.41
-193.36
-170.99
-146.15
-121.15
-97.47
-75.86
-56.78
-40.72
-28.14
-19.18
-12.89
-6.92
2.44
19.34
46.88
85.65
132.85
182.71
228.19
263.19
284.44
292.03
288.64
277.94
263.18
246.63
229.84
213.94
199.68
186.92
174.26
159.41
140.27
116.42
89.80
64.29
44.19
32.59
30.37
36.38
48.28
63.60
80.40
97.23
112.86
126.04
135.56
140.48
140.54
136.34
129.25
121.01
113.32
107.27
103.17
100.64
98.92
97.24
95.14
92.47
89.30
85.67
81.49
76.49
70.34
62.76
53.48
42.36
29.29
14.51
-1.20
-16.20
-28.14
-34.44
-33.12
-23.55
-6.80
14.53
37.18
58.04
74.92
86.65
92.83
93.37
88.10
76.88
60.00
38.69
15.15
-7.82
-27.65
-42.97
-54.01
-62.36
-70.02
-78.42
-87.77
-97.19
-105.54
-112.30
-118.06
-124.19
-132.18
-142.86
-156.04
-170.65
-185.08
-197.47
-205.79
-208.06
-202.69
-188.97
-167.56
-140.45
-110.49
-80.48
-52.32
-26.74
-3.51
17.97
38.14
57.07
74.65
90.77
105.53
119.08
131.36
141.86
149.40
152.37
149.14
138.80
121.71
99.77
76.09
54.21
37.00
25.78
19.96
17.29
14.65
8.98
-1.76
-17.95
-38.03
-58.63
-75.11
-82.65
-77.49
-58.23
-26.45
13.52
55.79
94.43
124.90
144.73
153.48
152.21
142.72
127.07
107.38
85.67
63.73
42.87
23.81
6.75
-8.28
-21.00
-30.68
-36.36
-37.39
-34.00
-27.59
-20.62
-15.86
-15.46
-19.96
-27.87
-36.13
-41.26
-40.83
-34.57
-24.43
-13.48
-4.43
1.64
5.59
9.72
16.84
29.22
47.84
71.94
98.79
123.87
141.71
147.45
138.80
117.46
89.05
61.29
41.11
31.87
32.19
36.83
39.15
33.90
18.98
-4.40
-32.77
-62.11
-89.29
-112.49
-130.79
