1564604026.00
64.000000
-0.00
-0.00
-0.00
-0.00
-0.00
-0.00
-0.00
-0.00
-0.00
-0.00
0.00
0.01
0.01
-0.00
-0.03
-0.05
-0.05
0.00
0.13
0.36
0.66
1.01
1.37
1.72
2.06
2.40
2.79
3.24
3.80
4.42
5.06
5.67
6.21
6.70
7.18
7.73
8.40
9.30
10.33
11.41
12.41
13.28
14.08
14.96
16.14
17.77
20.07
22.85
25.85
28.78
31.47
33.99
36.65
39.90
44.07
49.55
56.01
62.91
69.62
75.73
81.25
86.65
92.64
99.81
108.83
119.30
130.48
141.47
151.61
160.84
169.69
179.54
189.19
201.11
216.06
234.16
254.09
272.68
285.40
287.50
275.74
249.54
211.72
166.36
117.78
68.84
20.54
-27.39
-75.27
-122.53
-167.70
-208.46
-243.37
-271.86
-294.28
-311.29
-323.09
-329.03
-327.60
-317.78
-298.93
-272.00
-239.48
-205.13
-173.02
-146.38
-126.58
-112.94
-103.54
-96.05
-89.39
-84.21
-82.70
-87.78
-102.15
-127.51
-163.92
-209.11
-258.39
-305.15
-341.60
-360.38
-356.26
-327.60
-276.86
-210.37
-137.25
-67.38
-8.89
33.89
61.31
77.07
85.43
88.48
85.72
75.91
60.10
43.24
32.57
33.74
46.58
64.20
76.40
75.40
60.84
40.39
25.24
23.23
34.14
49.44
57.39
49.40
24.36
-11.68
-49.57
-82.36
-108.42
-130.92
-154.36
-180.61
-206.91
-227.04
-234.90
-227.68
-206.79
-176.71
-142.44
-107.55
-73.45
-39.84
-6.14
27.57
60.19
89.77
114.46
133.24
146.39
155.49
162.82
170.40
179.30
189.46
199.86
209.15
216.18
220.33
221.64
220.57
217.60
213.00
206.84
199.11
189.84
179.20
167.43
154.86
141.69
127.87
113.09
97.00
79.35
60.12
39.77
18.54
-3.16
-24.73
-45.35
-64.15
-80.09
-92.19
-99.65
-101.98
-99.20
-91.63
-79.89
-64.49
-46.44
-26.85
-6.71
13.05
31.56
47.96
61.61
72.25
79.99
85.35
89.20
92.45
95.87
99.69
103.49
106.53
108.09
107.78
105.60
102.04
97.72
92.91
87.18
79.47
68.20
52.28
31.55
7.04
-19.26
-45.21
-69.11
-89.43
-106.48
-121.26
-134.78
-148.05
-162.03
-177.19
-192.83
-206.23
-212.80
-207.44
-186.78
-151.36
-106.43
-60.38
-21.61
4.61
17.56
20.33
17.36
12.09
6.34
0.34
-6.08
-12.68
-18.78
-23.86
-28.12
-32.49
-38.02
-45.43
-54.53
-64.43
-73.84
-81.62
-87.19
-90.51
-91.87
-91.28
-87.86
-79.34
-62.50
-33.70
8.83
62.59
120.28
171.09
204.47
214.36
201.61
173.12
138.25
104.73
76.40
53.73
36.03
23.37
16.79
16.83
22.08
28.86
33.11
32.26
26.73
19.20
12.70
8.84
6.96
5.27
2.77
0.50
1.19
7.41
19.20
32.96
42.81
43.37
33.11
15.41
-2.96
-15.56
-19.72
-17.84
-15.75
-19.13
-30.14
-46.28
-61.74
-70.49
-68.94
-57.32
-39.14
-19.87
-4.69
3.03
2.64
-3.96
-13.34
-21.85
-27.06
-28.29
-26.35
-22.65
-18.25
-13.36
-7.07
1.63
13.21
26.97
40.88
52.39
59.75
62.99
64.14
66.40
72.64
83.93
98.78
113.54
123.87
126.30
119.36
103.69
81.10
53.46
22.05
-12.42
-49.22
-86.76
-122.46
-152.96
-175.31
-188.05
-191.58
-187.48
-177.33
-162.00
-142.12
-119.06
-95.67
-75.64
-61.40
-52.22
-43.86
-30.82
-10.00
16.95
44.21
65.13
76.25
79.06
78.20
77.78
78.48
77.54
71.23
57.78
38.72
18.07
0.33
-10.96
-13.79
-7.46
7.45
28.35
50.50
67.87
75.57
72.19
60.36
45.53
33.12
26.11
24.52
26.31
28.74
28.95
23.73
9.64
-15.90
-52.88
-97.10
-140.41
-173.26
-187.93
-181.36
-155.90
-118.04
-76.11
-38.00
-9.56
6.22
9.67
4.69
-1.91
-2.13
10.37
37.49
75.17
114.62
145.66
160.81
158.26
142.46
122.22
107.31
104.74
116.57
139.15
164.55
183.35
187.80
173.80
141.84
96.53
44.99
-5.03
-47.06
-77.46
-95.78
-104.43
-107.69
-110.10
-114.64
-121.08
-125.46
-121.33
-102.59
-66.59
-15.74
43.29
102.41
155.56
200.70
239.18
272.81
301.36
321.50
327.84
316.23
286.10
242.15
193.55
150.69
120.98
105.87
99.83
91.91
70.14
25.69
-42.96
-128.78
-218.31
-296.38
-351.40
-379.30
-384.44
-377.16
-370.47
-374.50
-393.04
-423.17
-457.51
-487.70
-507.70
-514.71
-503.82
-472.03
-417.08
-338.57
-239.77
-128.41
-15.62
86.75
167.95
225.54
262.25
284.04
297.39
306.84
314.08
318.35
317.96
311.94
301.60
289.29
278.30
271.56
270.46
274.31
280.64
286.25
288.40
286.00
278.75
267.20
252.25
234.23
212.78
186.95
155.83
119.02
76.71
28.94
-23.96
-81.05
-140.07
-196.91
-246.01
-281.77
-300.44
-301.62
-288.83
-267.47
-242.36
-216.22
-189.85
-163.73
-139.54
-120.44
-109.54
-108.27
-114.96
-125.48
-135.56
-143.22
-149.81
-159.19
-175.36
-196.94
-220.82
-243.05
-260.40
-271.60
-277.66
-280.79
-283.26
-286.40
-290.38
-294.57
-298.15
-300.43
-300.90
-299.12
-294.50
-286.08
-272.65
-255.39
-233.91
-207.97
-178.04
-145.27
-111.27
-77.74
-46.17
-17.64
7.16
28.10
44.98
57.69
66.37
71.45
73.67
74.04
73.63
72.91
72.43
72.39
72.78
73.53
74.61
75.98
77.53
79.10
80.41
81.46
82.22
82.84
83.65
85.11
87.63
91.28
95.77
100.50
105.00
109.00
112.61
116.43
121.24
127.68
135.95
145.68
156.04
166.14
175.45
183.97
192.39
201.94
214.05
229.95
250.11
273.65
298.20
320.13
335.43
340.83
334.91
318.34
293.64
264.26
233.71
204.84
179.37
157.77
139.50
123.42
108.43
93.89
79.83
66.78
55.25
45.34
36.50
27.96
19.19
10.33
2.29
-4.00
-8.08
-10.46
-12.41
-15.23
-19.61
-25.20
-30.70
-34.38
-35.00
-32.56
-28.39
-24.73
-23.54
-25.54
-29.74
-33.88
-35.65
-33.94
-29.59
-25.06
-23.01
-24.89
-29.83
-35.21
-38.04
-36.57
-31.38
-24.82
-19.79
-18.12
-19.63
-22.50
-24.36
-23.84
-21.35
-18.67
-17.79
-19.40
-22.53
-25.06
-25.02
-21.93
-17.03
-12.77
-11.32
-13.26
-17.22
-20.63
-21.32
-18.76
-14.28
-10.34
-8.94
-10.74
-14.64
-18.53
-20.44
-19.46
-16.32
-12.93
-11.25
-12.28
-15.36
-18.84
-20.86
-20.50
-18.07
-14.80
-12.28
-11.46
-12.18
-13.32
-13.44
-11.83
-8.90
-6.01
-4.60
-5.21
-7.25
-9.19
-9.55
-7.64
-3.95
-0.15
2.00
1.48
-1.30
-4.62
-6.59
-6.06
-3.35
0.01
2.25
2.19
-0.10
-3.38
-6.00
-6.86
-5.96
-4.40
-3.64
-4.55
-6.82
-9.05
-9.57
-7.50
-3.35
1.15
3.93
3.76
0.95
-2.73
-5.02
-4.51
-1.30
2.89
5.79
5.88
3.22
-0.48
-3.04
-2.99
-0.55
2.51
3.99
2.59
-1.14
-5.08
-6.80
-5.03
-0.55
4.26
6.87
6.11
2.80
-0.77
-2.31
-0.82
2.89
6.72
8.42
6.90
2.84
-1.63
-4.13
-3.36
0.03
3.85
5.60
3.98
-0.28
-4.86
-7.24
-6.13
-2.23
2.23
4.85
4.41
1.51
-1.88
-3.62
-2.60
0.82
4.93
7.71
7.92
5.77
2.93
1.54
2.89
6.59
10.69
12.87
11.84
8.09
3.63
0.56
-0.08
0.83
1.08
-1.52
-7.73
-16.13
-23.86
-28.08
-27.43
-22.82
-16.71
-11.95
-10.34
-11.86
-14.89
-17.14
-17.16
-15.05
-12.37
-11.10
-12.22
-15.19
-18.23
-19.31
-17.45
-13.14
-8.26
-5.04
-4.68
-6.75
-9.19
-9.71
-7.19
-2.37
2.49
5.12
4.36
0.89
-3.23
-5.74
-5.33
-2.56
0.61
1.93
0.30
-3.57
-7.70
-9.92
-9.18
-6.01
-2.20
0.18
-0.09
-2.70
-5.97
-7.71
-6.63
-2.98
1.59
4.93
5.75
4.09
1.36
-0.62
-0.60
1.40
4.03
5.53
4.82
2.27
-0.36
-1.26
0.41
3.79
6.79
7.36
4.67
-0.29
-5.23
-7.75
-6.63
-2.44
2.76
6.53
7.32
5.21
1.65
-1.24
-2.02
-0.50
2.30
4.69
5.50
4.61
3.23
3.04
5.19
9.51
14.27
17.13
16.18
10.87
2.48
-6.69
-14.17
-18.30
-18.80
-16.39
-12.22
-7.12
-1.27
5.36
12.56
19.33
24.00
25.08
21.95
15.57
7.99
1.61
-1.81
-1.83
0.72
4.26
7.32
9.10
9.70
9.84
10.21
11.12
12.22
12.94
12.88
12.07
11.00
10.25
10.18
10.71
11.48
12.18
13.14
15.19
19.30
25.70
33.40
40.44
44.72
45.30
43.22
41.36
43.30
51.38
65.38
82.16
96.99
105.83
107.38
104.04
101.14
104.70
118.95
144.17
176.09
206.90
227.40
229.80
209.53
166.81
106.85
39.12
-24.98
-75.76
-108.47
-124.99
-132.26
-138.28
-148.07
-161.65
-175.64
-186.67
-194.02
-200.20
-209.07
-223.28
-243.25
-267.89
-295.99
-326.82
-358.98
-388.94
-410.33
-415.50
-397.83
-354.49
-287.51
-203.07
-110.01
-17.67
65.79
135.54
190.47
234.07
272.69
312.41
356.56
404.02
450.34
489.87
518.08
532.87
534.43
524.14
503.60
475.06
441.15
405.12
369.82
337.20
307.44
279.10
251.37
221.47
187.39
148.56
106.37
62.62
18.68
-25.38
-70.74
-119.10
-171.61
-225.48
-278.18
-325.47
-363.26
-388.63
-400.57
-400.20
-390.20
-374.46
-357.28
-342.84
-331.11
-320.01
-304.29
-276.96
-232.64
-171.41
-100.72
-33.36
17.06
42.33
42.45
25.32
2.40
-16.39
-26.15
-27.10
-22.31
-15.25
-8.58
-5.28
-9.08
-23.99
-52.27
-92.20
-137.05
-176.83
-201.90
-206.98
-193.41
-168.18
-140.80
-119.44
-108.20
-106.32
-110.03
-114.69
-116.96
-115.75
-111.49
-105.21
-97.76
-89.77
-82.18
-76.55
-74.41
-75.64
-77.23
-73.73
-59.83
-33.53
2.12
40.07
72.44
94.62
108.06
118.64
133.25
155.56
183.28
208.07
220.58
214.10
187.03
142.80
88.39
31.65
-21.11
-66.58
-104.44
-135.43
-159.34
-174.54
-181.14
-180.50
-177.17
-177.58
-186.72
-204.60
-224.26
-234.27
-224.17
-188.77
-129.90
-55.37
24.32
100.05
166.12
220.33
262.48
292.84
311.50
318.78
315.49
303.31
284.92
263.27
241.05
219.96
200.42
181.94
163.87
145.71
127.60
110.26
94.59
81.26
70.38
61.40
53.50
45.95
38.29
30.64
23.48
17.34
12.55
9.05
6.48
4.30
2.06
-0.62
-3.84
-7.65
-12.07
-17.25
-23.37
-30.68
-39.30
-48.63
-58.67
-68.91
-78.57
-86.72
-92.46
-95.07
-94.09
-89.44
-81.36
-70.55
-57.88
-44.37
-31.02
-18.73
-8.15
0.31
6.56
10.72
13.06
14.01
14.02
13.49
12.69
11.79
10.93
10.16
9.47
8.70
7.85
6.92
5.97
5.25
4.68
4.26
3.95
3.68
3.35
2.95
2.46
1.95
1.49
1.12
0.91
0.81
0.72
0.53
0.15
-0.40
-1.01
-1.52
-1.77
-1.69
-1.38
-1.10
-1.12
-1.63
-2.61
-3.77
-4.68
-4.97
-4.45
-3.38
-2.28
-1.79
-2.33
-3.81
-5.73
-7.23
-7.58
-6.46
-4.28
-2.01
-0.73
-1.11
-3.09
-5.81
-7.98
-8.56
-7.10
-4.06
-0.51
2.45
3.95
3.46
0.57
-4.51
-10.50
-14.54
-12.79
-1.85
19.31
47.94
78.28
103.12
117.09
118.49
109.44
94.07
76.36
58.50
40.54
22.76
5.41
-10.25
-22.61
-30.63
-34.54
-35.68
-35.84
-36.43
-37.76
-39.39
-40.33
-39.68
-37.17
-33.32
-29.11
-25.68
-23.66
-23.00
-23.16
-23.27
-22.64
-20.98
-18.53
-15.84
-13.54
-12.01
-11.22
-10.91
-10.66
-10.09
-9.08
-7.72
-6.26
-5.00
-4.07
-3.48
-3.12
-2.83
-2.46
-1.97
-1.38
-0.75
-0.17
0.34
0.75
1.10
1.39
1.66
1.89
2.10
2.28
2.43
2.57
2.68
2.79
2.89
2.98
3.08
3.18
3.28
3.39
3.50
3.62
3.75
3.88
4.02
4.16
4.31
4.46
4.63
4.80
4.99
5.18
5.37
5.58
5.80
6.04
6.27
6.53
6.80
7.08
7.38
7.70
8.03
8.38
8.75
9.14
9.57
10.01
10.48
10.97
11.49
12.04
12.61
13.19
13.78
14.37
14.96
15.54
16.10
16.63
17.14
17.63
18.10
18.57
19.05
19.54
20.05
20.58
21.15
21.74
22.36
23.00
23.67
24.34
25.02
25.70
26.35
26.97
27.54
28.05
28.46
28.77
28.95
28.97
28.80
28.39
27.72
26.72
25.37
23.65
21.51
18.93
15.86
12.25
8.02
3.11
-2.58
-9.08
-16.46
-24.73
-33.94
-44.17
-55.46
-67.93
-81.74
-97.04
-113.97
-132.59
-152.96
-175.10
-198.94
-224.29
-250.84
-278.00
-304.88
-330.33
-352.77
-370.41
-381.26
-383.89
-376.90
-359.45
-331.48
-293.86
-248.39
-197.50
-144.04
-90.83
-40.34
5.51
45.40
78.61
105.02
125.04
139.35
148.86
154.51
157.05
157.24
155.59
152.47
148.12
142.73
136.50
129.57
122.11
114.31
106.30
98.20
90.05
81.89
73.71
65.47
57.14
48.65
40.00
31.20
22.46
14.00
6.11
-1.02
-7.28
-12.63
-17.12
-20.89
-24.03
-26.51
-28.20
-28.93
-28.74
-27.85
-26.63
-25.46
-24.52
-23.73
-22.60
-20.57
-17.16
-12.15
-5.72
1.66
9.60
18.14
27.57
38.44
51.19
65.74
81.51
97.80
114.56
132.72
153.59
177.63
203.44
227.57
245.74
254.64
253.66
244.73
230.91
214.39
195.51
173.44
147.99
121.04
96.36
77.77
66.88
61.82
58.16
51.39
39.65
24.75
10.94
2.19
-0.08
2.06
4.47
3.38
-2.47
-11.13
-18.67
-21.51
-18.65
-12.59
-8.23
-10.20
-19.76
-33.90
-46.42
-51.43
-46.59
-34.44
-21.03
-12.65
-12.24
-18.29
-25.98
-30.37
-29.24
-24.10
-18.93
-17.59
-21.59
-29.23
-36.54
-39.32
-35.63
-27.00
-17.70
-12.67
-14.59
-21.96
-29.58
-31.67
-25.48
-13.37
-1.53
3.51
-0.97
-12.22
-23.39
-27.96
-23.51
-13.10
-3.12
0.67
-3.11
-10.80
-16.15
-14.21
-4.43
8.81
18.66
19.60
10.59
-4.26
-17.77
-23.65
-19.91
-10.00
-0.49
2.59
-2.47
-12.14
-19.92
-20.35
-12.45
-0.52
8.45
9.10
0.97
-11.26
-20.33
-20.90
-12.64
-0.62
7.78
7.07
-2.93
-16.85
-26.78
-26.76
-16.23
-0.39
12.51
15.95
8.66
-4.65
-16.04
-19.12
-12.68
-1.48
7.19
7.86
0.34
-10.28
-17.01
-15.26
-5.57
6.92
15.22
14.65
5.30
-8.12
-18.89
-22.04
-16.92
-7.31
1.10
3.88
0.34
-6.39
-11.63
-11.94
-7.22
-0.52
3.82
2.83
-3.29
-11.04
-15.68
-13.93
-5.92
4.61
12.27
13.06
6.70
-3.16
-10.82
-11.91
-5.83
3.86
11.46
12.58
6.70
-2.54
-9.57
-10.38
-4.92
3.01
8.09
6.69
-1.05
-11.34
-18.91
-19.76
-13.47
-3.31
5.52
8.76
5.41
-1.61
-7.38
-7.99
-2.72
5.65
12.35
13.65
8.86
0.69
-6.32
-8.38
-4.75
1.92
7.14
7.19
1.35
-7.61
-14.89
-16.42
-11.25
-2.04
6.23
8.99
4.87
-3.52
-10.87
-12.38
-6.69
3.12
11.20
12.62
6.35
-4.00
-12.29
-13.49
-6.74
4.11
12.46
12.93
4.55
-8.54
-19.36
-21.99
-15.07
-2.59
8.45
12.18
7.13
-2.88
-11.14
-11.94
-4.08
8.24
17.87
18.81
9.95
-4.31
-16.44
-20.21
-14.27
-2.77
7.19
9.80
3.93
-6.47
-14.78
-15.81
-8.93
1.57
9.19
9.15
1.48
-8.90
-15.10
-12.37
-1.10
13.24
23.13
23.33
13.92
0.07
-10.97
-13.86
-8.12
1.84
9.53
10.22
3.73
-5.63
-11.67
-10.10
-1.10
10.60
18.56
18.26
9.78
-2.32
-11.36
-12.42
-5.10
6.09
14.18
13.74
4.06
-10.31
-22.00
-25.01
-17.96
-4.70
8.01
14.29
12.65
6.29
1.01
1.26
7.19
14.50
17.46
12.73
1.86
-9.19
-13.91
-9.06
3.13
16.17
22.75
18.86
6.05
-9.76
-21.37
-24.30
-18.82
-9.41
-1.93
-0.32
-4.45
-10.44
-13.11
-9.00
1.18
12.80
19.94
18.61
9.31
-3.27
-12.73
-14.75
-9.21
-0.46
5.43
4.10
-4.69
-16.56
-25.09
-25.52
-17.66
-5.80
3.74
6.31
1.80
-5.49
-9.48
-6.08
4.32
16.73
24.48
23.03
12.75
-1.08
-11.42
-13.39
-7.13
2.56
9.16
8.48
0.99
-8.39
-13.30
-9.98
0.45
12.41
19.13
16.90
7.47
-2.99
-7.61
-3.17
7.82
18.62
22.24
15.55
1.21
-13.86
-22.29
-20.51
-10.60
0.94
7.05
4.31
-5.22
-15.25
-19.05
-13.41
-0.67
12.85
20.38
18.69
9.77
-0.36
-5.37
-2.40
6.08
13.92
15.10
7.48
-5.66
-17.48
-21.53
-15.59
-2.90
9.63
15.36
11.53
0.71
-10.88
-16.97
-14.77
-6.19
3.39
8.60
6.98
0.24
-7.17
-10.56
-7.80
-0.48
7.03
9.93
5.84
-3.70
-13.83
-19.03
-16.25
-6.95
3.56
9.31
7.06
-1.78
-11.85
-16.92
-13.62
-3.27
8.84
16.64
16.59
9.74
0.96
-4.04
-2.08
5.88
15.29
21.00
20.08
13.51
5.36
0.45
1.41
7.20
13.70
16.07
11.81
2.20
-8.18
-14.24
-13.07
-5.74
3.29
8.67
7.07
-0.81
-10.78
-17.22
-16.59
-9.40
-0.14
5.50
4.03
-3.72
-12.92
-17.67
-14.50
-4.52
7.03
13.84
12.24
3.47
-7.11
-13.20
-11.48
-3.49
5.37
9.21
5.43
-3.87
-13.07
-16.62
-12.32
-2.50
7.38
11.82
8.30
-1.13
-11.18
-16.08
-12.73
-2.55
9.04
15.48
13.02
2.75
-9.60
-16.94
-14.82
-4.09
9.50
18.67
18.68
10.06
-1.92
-10.37
-10.91
-4.00
5.58
11.64
10.41
2.67
-6.81
-12.16
-10.09
-1.73
8.13
13.87
12.48
5.30
-3.04
-7.58
-5.95
0.25
6.57
8.42
3.94
-4.79
-12.98
-15.84
-11.14
-0.66
10.55
16.72
14.37
4.47
-7.92
-16.12
-15.64
-6.97
4.52
11.69
9.95
0.26
-11.48
-17.80
-14.40
-2.78
10.54
17.78
14.57
2.70
-10.86
-18.14
-15.00
-3.46
9.65
16.89
14.60
5.08
-5.10
-9.05
-3.83
7.67
18.54
22.03
15.64
2.79
-9.27
-13.86
-8.68
2.88
13.71
17.39
11.67
-0.19
-11.38
-15.42
-10.01
1.63
12.63
16.34
10.31
-2.38
-14.92
-20.57
-16.51
-5.20
7.05
13.82
11.97
3.48
-6.24
-11.54
-9.94
-3.49
2.79
4.29
-0.27
-7.97
-13.37
-11.95
-2.79
10.55
21.63
24.79
18.16
4.99
-8.04
-14.43
-11.38
-1.24
10.02
16.23
14.44
6.33
-3.12
-8.67
-8.04
-2.96
1.98
2.40
-3.12
-11.81
-18.51
-18.68
-11.35
0.04
9.57
12.17
6.55
-4.10
-13.74
-16.99
-11.95
-1.11
9.89
15.52
13.08
4.30
-5.75
-11.53
-10.01
-2.50
6.16
10.34
7.00
-2.11
-11.37
-14.39
-8.30
4.25
16.47
21.39
16.23
4.21
-7.50
-12.07
-7.13
3.86
13.91
16.92
11.24
0.49
-8.69
-10.78
-4.63
6.05
14.96
17.01
11.09
0.77
-7.84
-9.58
-3.26
7.49
16.33
17.73
10.25
-2.43
-13.65
-17.51
-12.20
-1.17
9.06
12.71
7.98
-1.96
-11.22
-14.79
-11.41
-4.11
1.91
2.59
-2.65
-10.80
-17.38
-18.99
-15.26
-8.93
-4.04
-3.61
-8.02
-14.93
-20.70
-22.51
-19.95
-15.14
-11.42
-11.38
-15.37
-21.40
-26.42
-28.16
-26.42
-23.12
-21.21
-22.82
-27.94
-34.17
-37.78
-35.64
-27.03
-14.45
-2.86
2.39
-1.87
-15.06
-32.86
-48.91
-57.42
-55.19
-42.50
-22.40
0.63
22.43
39.56
49.52
50.84
43.63
30.15
15.43
6.29
8.82
25.58
53.87
86.42
114.63
132.17
137.51
133.86
126.49
119.49
113.90
107.93
99.12
86.49
71.15
55.10
39.32
22.69
2.65
-22.76
-52.85
-83.57
-108.81
-122.39
-120.56
-103.31
-74.02
-37.92
-0.20
35.28
66.30
91.79
111.30
124.49
131.07
130.89
124.44
112.79
97.59
80.73
63.93
48.32
34.41
22.10
11.03
0.92
-8.32
-16.50
-23.30
-28.51
-32.11
-34.33
-35.53
-36.07
-36.15
-35.85
-35.05
-33.62
-31.55
-28.88
-25.77
-22.39
-18.84
-15.18
-11.43
-7.51
-3.32
1.12
5.80
10.68
15.72
20.95
26.35
31.93
37.76
43.88
50.17
56.40
62.21
67.12
70.57
72.09
70.92
66.48
58.56
47.03
32.04
14.04
-6.29
-27.64
-48.92
-69.23
-87.72
-103.57
-116.43
-126.22
-133.03
-137.07
-138.64
-138.09
-135.79
-133.16
-129.93
-126.06
-121.73
-117.29
-113.09
-109.49
-106.93
-105.72
-106.04
-107.77
-110.86
-115.08
-120.13
-125.58
-130.80
-135.25
-138.37
-139.59
-138.22
-133.78
-125.89
-114.45
-99.50
-81.35
-60.63
-38.26
-15.38
6.95
27.68
45.97
61.47
73.83
83.16
89.96
94.98
98.94
102.52
106.05
109.57
112.83
115.47
117.10
117.33
115.99
113.05
108.59
102.89
96.33
89.30
82.12
75.06
68.31
62.05
56.30
50.96
46.00
41.39
37.11
33.15
29.51
26.22
23.28
20.88
18.84
17.10
15.57
14.27
13.15
12.24
11.55
11.06
10.76
10.58
10.56
10.62
10.82
11.15
11.60
12.22
13.01
13.92
14.92
15.95
16.72
17.02
16.48
14.65
11.08
5.56
-2.33
-12.68
-25.22
-39.36
-54.06
-68.06
-79.97
-88.45
-92.46
-91.40
-85.20
-74.11
-59.42
-42.58
-25.07
-8.25
6.92
19.74
29.95
37.56
42.83
46.10
47.91
48.95
49.55
50.26
51.36
52.98
55.05
57.31
59.31
60.90
62.13
63.22
64.68
66.90
69.91
73.33
76.34
77.82
76.85
73.05
66.29
57.01
45.82
33.09
18.80
2.55
-16.10
-37.09
-59.09
-80.57
-99.54
-114.44
-124.44
-129.83
-131.69
-131.50
-130.62
-130.58
-131.89
-134.67
-137.87
-138.75
-133.36
-118.10
-91.76
-56.93
-19.77
12.15
32.96
40.69
37.64
28.58
18.14
8.88
1.01
-6.54
-14.55
-22.74
-29.93
-34.88
-37.23
-37.65
-37.49
-38.07
-40.03
-43.03
-45.72
-45.94
-41.97
-32.40
-16.98
3.54
27.91
54.95
83.65
112.70
139.83
161.84
175.39
178.50
171.78
158.30
142.01
125.86
110.40
93.44
73.29
49.19
22.32
-4.50
-28.44
-47.97
-63.20
-75.31
-85.45
-93.84
-100.23
-104.25
-106.08
-106.34
-106.37
-107.30
-110.07
-114.50
-119.59
-124.10
-126.79
-126.66
-123.12
-116.21
-105.77
-91.88
-74.54
-53.90
-30.41
-4.85
21.64
47.60
71.32
91.25
105.99
114.77
117.53
114.90
108.31
99.66
91.05
84.15
79.97
78.54
79.16
80.77
82.45
83.92
85.47
87.59
90.51
93.76
95.82
94.70
88.84
77.65
62.03
43.94
25.61
8.95
-4.64
-14.00
-18.20
-17.02
-11.63
-5.12
-2.00
-6.29
-19.64
-40.15
-63.03
-82.81
-95.53
-100.28
-98.87
-94.25
-88.57
-81.89
-72.55
-58.73
-40.64
-21.37
-6.08
0.61
-3.26
-15.34
-29.81
-40.49
-42.58
-35.40
-22.39
-8.29
4.36
16.95
33.60
57.25
85.93
111.71
123.54
113.22
80.35
33.39
-14.37
-51.09
-71.22
-76.16
-70.95
-60.07
-45.08
-25.76
-3.06
18.94
34.17
38.22
31.70
20.63
13.06
14.73
25.67
40.48
51.61
53.40
44.41
27.74
8.95
-6.48
-15.04
-16.04
-11.31
-4.09
2.07
4.23
0.62
-9.10
-23.67
-39.91
-52.75
-55.99
-44.28
-15.96
24.73
67.73
100.02
110.48
94.41
55.51
4.34
-45.61
-82.76
-100.88
-100.43
-87.48
-71.01
-59.51
-57.99
-66.80
-81.48
-95.26
-101.74
-97.11
-80.72
-54.71
-23.19
8.28
31.88
39.86
26.84
-6.73
-52.97
-98.34
-128.62
-135.07
-117.31
-84.04
-46.58
-14.06
9.90
26.63
39.71
52.14
65.14
79.28
93.45
107.28
120.24
131.10
138.02
139.28
134.15
118.70
98.46
72.61
42.08
10.64
-14.28
-22.65
-5.60
39.68
106.62
180.47
240.85
270.76
262.05
218.09
151.97
81.61
24.07
-9.26
-14.50
2.94
32.60
62.78
84.26
92.76
89.04
76.56
58.14
33.95
0.18
-46.51
-104.79
-166.74
-219.72
-251.34
-255.34
-234.70
-197.15
-156.20
-125.22
-111.65
-114.03
-124.57
-134.32
-137.75
-134.00
-125.85
-114.76
-100.34
-81.27
-57.67
-32.27
-9.29
7.23
15.15
16.86
18.02
24.02
37.03
54.56
70.99
81.32
85.18
85.57
87.51
95.11
109.47
128.35
146.98
157.89
156.02
140.38
113.97
82.11
49.34
17.62
-13.30
-44.27
-74.84
-102.11
-122.06
-131.14
-127.46
-111.77
-88.93
-64.67
-45.56
-37.29
-42.09
-57.58
-77.06
-90.99
-91.29
-74.66
-43.79
-5.95
30.47
59.18
77.08
84.37
82.62
73.79
60.78
47.76
38.99
37.16
41.70
48.77
52.56
48.41
34.77
13.56
-11.22
-35.57
-56.54
-72.48
-82.42
-85.67
-82.15
-73.07
-61.07
-49.76
-42.53
-41.40
-46.40
-55.69
-66.30
-75.21
-80.75
-82.58
-81.52
-79.27
-76.38
-72.23
-65.19
-53.43
-35.85
-12.58
15.04
44.44
71.92
92.77
102.27
97.74
80.75
57.98
39.51
34.93
49.32
81.37
123.92
166.79
200.45
218.08
215.96
192.89
150.04
91.72
26.42
-33.64
-75.93
-91.37
-77.80
-41.10
7.05
52.29
81.68
88.23
71.97
38.47
-4.09
-47.94
-87.11
-117.18
-135.12
-138.72
-127.31
-103.24
-72.43
-42.97
-22.71
-16.00
-21.87
-33.95
-42.99
-41.84
-29.31
-10.79
5.00
11.21
6.17
-6.00
-17.67
-21.63
-14.54
2.17
23.92
45.86
64.92
80.01
90.23
92.60
82.99
57.84
16.88
-35.07
-88.77
-133.33
-159.72
-164.30
-149.50
-121.77
-88.48
-55.24
-24.91
1.60
24.07
42.21
55.48
63.53
66.67
65.94
62.82
58.71
54.68
51.15
47.97
44.56
40.45
35.64
30.57
25.92
22.27
19.82
18.35
17.30
16.00
14.07
11.53
8.77
6.33
4.63
3.78
3.55
3.53
3.28
2.54
1.38
0.10
-0.89
-1.26
-0.91
-0.03
0.99
1.68
1.77
1.28
0.52
-0.00
0.22
1.38
3.27
5.35
6.90
7.43
6.97
6.02
5.45
6.08
8.28
11.71
15.51
18.44
19.75
19.47
18.47
18.02
19.10
22.04
26.09
29.71
31.16
28.89
21.78
9.18
-8.77
-30.51
-52.61
-70.20
-78.02
-73.57
-58.12
-36.65
-15.87
-1.31
4.84
4.12
0.13
-3.69
-5.89
-6.82
-7.69
-9.13
-10.66
-11.12
-9.67
-6.48
-2.63
0.42
1.51
0.53
-1.70
-3.88
-4.86
-4.14
-2.02
0.64
2.80
3.81
3.61
2.71
1.76
1.34
1.65
2.55
3.75
4.91
5.92
6.79
7.59
8.23
8.54
8.34
7.68
6.87
6.47
6.97
8.59
10.97
13.27
14.56
14.19
12.27
9.73
7.90
7.96
10.30
14.25
18.30
20.91
21.04
18.73
15.06
11.54
9.59
10.27
14.13
20.93
29.27
36.02
36.76
27.18
5.11
-27.67
-65.09
-98.74
-120.97
-127.53
-118.70
-98.07
-70.27
-39.02
-6.30
26.60
57.77
84.16
102.27
109.64
106.15
94.03
76.47
56.82
36.93
16.87
-4.47
-28.63
-56.74
-89.15
-123.74
-157.98
-187.39
-206.09
-208.46
-191.54
-157.24
-112.32
-66.34
-28.26
-3.18
9.19
13.26
14.49
17.69
25.18
37.11
52.54
70.27
88.74
105.67
117.64
120.66
111.56
89.60
57.69
22.14
-9.30
-30.25
-37.77
-33.24
-21.15
-6.78
5.87
15.25
21.85
26.76
30.11
30.89
27.89
21.33
13.32
7.20
5.66
9.12
15.57
21.98
26.52
29.78
34.18
42.00
52.92
63.36
67.90
62.19
44.96
18.46
-13.19
-45.66
-75.38
-99.67
-116.27
-123.39
-120.36
-108.30
-89.41
-67.96
-48.50
-34.44
-27.29
-27.09
-32.91
-43.37
-56.61
-69.98
-80.25
-83.78
-77.86
-61.96
-38.55
-12.49
10.52
26.46
34.46
36.51
35.78
34.23
31.46
25.25
13.70
-2.51
-19.40
-31.00
-31.91
-19.66
4.49
36.28
70.02
100.38
123.07
135.45
136.65
127.51
110.77
90.67
72.09
59.43
55.18
59.42
69.96
83.55
97.09
108.67
117.55
123.47
125.95
123.75
115.21
99.17
75.91
47.90
19.73
-3.01
-15.42
-15.04
-3.35
13.93
28.19
30.91
17.00
-12.51
-50.76
-87.65
-113.99
-125.17
-122.56
-112.21
-101.94
-98.09
-103.65
-118.46
-140.29
-166.46
-194.55
-222.28
-247.12
-266.30
-277.13
-277.83
-268.22
-249.61
-224.47
-195.53
-164.54
-131.36
-93.96
-49.40
3.80
63.19
121.43
167.97
193.26
193.38
172.38
140.50
109.55
87.65
76.39
72.19
70.02
67.05
63.94
63.06
65.33
68.54
68.30
61.10
47.13
30.59
17.22
11.18
12.68
18.17
23.00
24.35
22.78
21.56
23.87
30.28
38.65
45.64
48.99
49.27
50.18
56.18
71.06
95.94
128.41
164.10
198.15
226.28
245.83
256.14
258.19
253.89
247.59
241.10
234.61
227.43
217.64
202.53
178.93
143.77
95.33
34.19
-36.46
-110.61
-179.28
-235.09
-275.18
-301.90
-321.14
-338.90
-358.70
-381.13
-404.67
-427.21
-448.39
-468.94
-489.13
-507.52
-520.97
-526.16
-521.33
-508.86
-490.16
-466.42
-437.39
-400.97
-353.88
-293.06
-217.24
-127.61
-27.45
79.15
185.81
284.39
365.83
422.42
450.83
454.28
442.15
424.40
410.11
402.38
397.69
388.92
370.23
340.64
304.32
267.83
236.09
210.56
189.01
168.51
148.21
130.24
118.03
113.62
115.19
116.91
111.80
94.94
66.59
32.62
2.01
-17.08
-21.07
-12.06
3.70
19.36
30.28
35.33
35.91
34.00
30.69
26.30
21.23
16.82
15.26
18.33
25.95
35.17
40.98
38.67
26.67
8.20
-9.30
-16.99
-8.28
18.55
59.67
107.52
154.00
193.24
222.77
242.48
252.80
251.75
236.47
204.26
154.18
88.14
10.64
-72.53
-156.16
-236.86
-313.42
-385.68
-453.37
-515.00
-567.39
-607.29
-631.11
-636.43
-622.60
-590.44
-541.12
-475.91
-396.84
-307.84
-215.73
-129.16
-56.60
-3.63
29.08
45.26
51.20
52.58
52.57
53.46
57.89
70.19
95.57
136.62
191.09
251.07
305.49
344.76
363.91
365.28
356.52
346.20
339.70
337.55
336.59
332.67
323.27
308.31
289.41
268.16
245.05
219.48
190.46
157.77
122.62
87.34
54.78
27.05
4.97
-12.10
-25.95
-38.38
-50.50
-62.39
-73.18
-81.71
-87.12
-89.33
-89.09
-87.66
-86.10
-85.04
-84.53
-84.06
-83.02
-81.09
-78.15
-74.07
-68.95
-62.67
-55.54
-48.68
-43.70
-41.72
-42.09
-41.58
-35.61
-20.65
3.64
33.97
63.97
87.56
101.58
106.17
103.72
96.74
85.43
70.37
52.21
32.76
14.61
-0.97
-15.83
-34.50
-61.23
-96.28
-133.58
-163.27
-176.05
-167.87
-142.60
-110.07
-81.27
-63.34
-57.32
-58.87
-62.47
-64.22
-63.10
-60.15
-57.32
-56.74
-60.82
-72.39
-93.33
-123.06
-157.63
-190.04
-212.31
-218.31
-205.90
-176.25
-134.78
-87.66
-40.11
4.09
42.25
72.37
93.26
104.87
108.57
106.62
101.83
96.55
91.98
88.22
84.72
80.82
76.17
70.79
64.67
58.10
51.33
44.59
38.23
32.71
28.52
25.83
24.23
22.65
19.87
14.95
7.81
-0.56
-8.34
-13.83
-15.95
-14.99
-12.49
-10.33
-10.48
-14.35
-22.66
-35.01
-49.06
-59.98
-61.12
-46.82
-15.72
26.47
67.71
94.10
95.88
71.94
30.02
-16.95
-56.38
-80.18
-85.98
-75.53
-52.41
-20.63
15.63
51.64
82.47
104.19
115.09
115.87
109.29
98.86
87.70
78.52
73.00
71.87
74.84
80.75
87.94
94.55
98.50
97.16
88.01
69.45
42.15
9.55
-22.93
-49.80
-67.65
-76.26
-78.01
-76.07
-72.73
-68.62
-63.39
-56.98
-50.31
-45.12
-42.91
-43.89
-46.71
-49.19
-49.35
-46.45
-41.37
-36.03
-32.49
-31.92
-34.07
-37.45
-40.08
-40.50
-38.48
-35.11
-32.20
-31.40
-33.34
-37.32
-41.68
-44.77
-45.51
-44.07
-41.57
-39.49
-39.12
-41.31
-46.41
-54.00
-62.46
-68.62
-68.37
-58.17
-36.95
-7.35
24.80
52.66
71.14
78.83
78.01
72.80
66.82
61.73
57.23
52.38
46.88
41.48
37.51
35.80
36.06
37.01
37.15
35.34
31.56
26.77
22.35
19.49
18.68
19.51
20.94
21.80
21.30
19.35
16.66
14.20
12.78
12.83
14.08
15.90
17.45
18.14
17.92
17.36
17.26
18.36
21.07
25.32
30.53
35.81
40.48
43.78
45.72
46.58
46.85
46.85
46.43
45.03
41.80
36.02
26.88
15.40
2.78
-9.32
-18.92
-24.69
-25.50
-21.12
-12.69
-2.69
5.91
10.57
10.40
6.36
0.81
-3.90
-6.70
-8.23
-10.14
-13.87
-19.91
-27.39
-34.93
-40.76
-43.46
-42.15
-36.66
-27.78
-17.79
-10.28
-9.00
-16.33
-31.53
-51.16
-70.43
-85.10
-92.91
-93.92
-89.74
-80.59
-69.06
-55.95
-41.58
-26.80
-13.05
-1.89
5.67
9.68
11.20
11.46
11.99
13.53
15.93
18.49
20.36
21.01
20.38
18.96
17.15
15.84
15.60
16.55
18.47
20.88
23.24
25.15
26.50
27.32
28.29
30.12
33.40
38.16
43.73
48.87
51.89
51.29
46.15
36.78
24.43
10.87
-1.91
-12.74
-21.25
-27.85
-33.61
-39.93
-47.87
-57.71
-67.93
-75.08
-74.75
-63.07
-38.68
-3.97
35.19
70.88
95.41
103.69
94.42
70.18
36.64
0.72
-31.37
-55.60
-70.66
-77.77
-78.78
-75.57
-69.22
-59.87
-47.52
-32.72
-16.52
-0.17
15.38
29.80
42.96
54.45
63.60
69.18
69.99
65.34
55.35
41.24
24.72
7.77
-7.75
-20.49
-29.76
-35.67
-38.86
-40.41
-41.54
-43.14
-45.67
-48.90
-52.06
-54.24
-54.98
-54.24
-52.73
-51.57
-51.38
-52.67
-55.77
-60.87
-67.82
-75.41
-80.98
-80.72
-71.17
-51.03
-22.65
8.55
35.99
54.68
63.11
63.32
59.21
54.26
50.13
46.55
42.63
38.03
33.49
30.29
29.24
30.09
31.60
32.33
31.13
27.96
23.68
19.63
16.97
16.16
16.84
18.02
18.63
17.92
15.86
13.02
10.31
8.53
8.03
8.63
9.71
10.52
10.52
9.57
8.00
6.43
5.51
5.63
6.80
8.61
10.41
11.58
11.82
11.28
10.51
10.29
11.26
13.59
16.91
20.37
23.00
24.18
23.98
23.12
22.78
24.02
27.23
31.95
36.97
40.95
42.97
43.02
41.85
40.68
40.71
42.80
47.49
54.75
63.54
71.38
74.45
68.55
51.05
22.57
-12.58
-47.75
-76.54
-95.32
-104.28
-106.38
-105.57
-104.42
-103.58
-102.41
-100.43
-98.11
-96.83
-98.16
-101.39
-104.50
-104.36
-98.05
-84.24
-63.83
-39.68
-15.56
5.10
20.45
30.26
35.51
37.37
36.46
32.27
23.48
8.79
-12.38
-38.86
-69.41
-102.28
-134.58
-162.04
-179.36
-181.71
-166.81
-136.52
-97.93
-58.24
-24.26
0.31
15.77
25.26
32.25
38.65
44.46
48.68
50.82
51.31
51.56
52.91
55.68
58.90
61.04
60.55
56.95
51.03
44.24
38.19
33.99
31.79
30.76
29.50
26.69
21.61
14.70
6.90
-0.54
-6.43
-10.24
-12.43
-14.20
-17.07
-22.13
-29.36
-37.90
-46.25
-52.38
-54.81
-53.31
-48.97
-43.77
-39.65
-37.21
-35.90
-34.09
-28.95
-18.20
-1.09
21.34
47.10
71.91
93.69
112.11
128.32
145.43
166.63
194.59
230.67
274.16
321.76
367.86
404.94
418.57
399.68
347.83
272.81
190.33
114.82
54.00
8.22
-26.93
-56.42
-81.77
-102.36
-116.54
-123.85
-125.74
-124.69
-122.31
-118.85
-113.47
-104.05
-90.10
-72.45
-53.44
-36.73
-26.13
-24.12
-31.40
-46.85
-67.77
-91.67
-116.17
-139.75
-161.71
-181.71
-199.22
-213.13
-221.71
-219.09
-203.54
-175.82
-138.92
-97.32
-55.89
-19.08
10.10
30.74
43.95
51.75
56.76
61.24
66.11
71.34
75.71
77.51
75.86
68.95
55.39
35.99
14.14
-4.71
-14.55
-11.55
3.97
27.19
49.57
62.40
61.18
46.94
24.83
0.98
-20.73
-39.58
-56.95
-74.58
-92.47
-108.47
-119.54
-123.89
-120.32
-109.31
-92.67
-72.34
-49.66
-24.85
3.01
34.15
67.59
101.56
133.69
161.94
185.15
202.27
211.78
211.17
197.63
170.11
130.97
86.10
43.27
9.51
-11.75
-21.02
-21.49
-16.86
-9.35
0.29
11.47
22.68
31.69
35.19
31.12
19.69
2.86
-16.51
-36.00
-54.60
-72.61
-91.01
-110.71
-132.87
-157.51
-182.57
-203.45
-214.08
-209.19
-188.33
-153.54
-111.95
-72.66
-42.69
-24.34
-14.54
-7.09
3.92
21.71
46.38
75.14
105.05
133.49
157.50
173.18
176.06
163.26
135.55
98.24
59.37
26.87
5.52
-4.19
-5.01
-0.97
4.78
10.55
15.78
19.90
22.26
22.29
20.34
17.96
17.04
18.87
23.39
29.13
33.72
35.10
32.08
25.00
15.46
5.27
-4.33
-13.32
-22.80
-34.31
-49.24
-67.98
-90.44
-115.30
-139.65
-159.09
-168.69
-164.75
-146.72
-118.22
-86.11
-58.30
-40.52
-34.41
-37.65
-45.92
-55.27
-63.47
-70.24
-75.25
-77.82
-76.33
-69.04
-55.21
-35.68
-12.68
10.84
32.22
50.18
64.48
75.66
84.43
91.16
95.70
97.64
97.06
93.78
88.59
82.60
76.93
72.37
69.13
66.88
64.97
62.79
59.94
56.68
53.49
50.86
49.13
48.28
48.03
47.89
47.48
46.63
45.72
45.40
46.31
48.83
53.11
58.59
64.22
69.13
72.06
72.85
72.52
72.82
74.83
77.71
78.02
70.93
52.82
23.28
-14.08
-53.37
-89.13
-118.10
-138.62
-149.32
-147.92
-132.53
-104.24
-69.20
-37.70
-20.06
-21.71
-39.93
-65.58
-88.05
-100.73
-103.19
-98.80
-90.75
-78.97
-60.99
-34.21
0.51
37.97
70.55
91.72
99.21
95.55
86.35
76.78
70.40
68.67
71.93
80.54
95.10
115.61
139.56
161.57
173.05
166.88
140.55
97.77
47.19
-1.38
-40.59
-68.42
-83.92
-92.26
-99.81
-110.58
-125.32
-142.22
-158.04
-168.18
-171.71
-163.92
-144.00
-115.70
-86.79
-66.33
-60.74
-70.70
-90.75
-107.02
-109.39
-95.30
-68.96
-37.79
-7.92
18.36
41.86
64.30
86.04
105.17
118.86
125.67
126.68
124.70
123.48
124.79
128.38
132.01
131.87
124.20
107.04
80.93
49.19
16.70
-12.34
-35.25
-51.40
-62.18
-70.06
-77.27
-84.96
-92.71
-99.23
-103.05
-103.34
-100.25
-95.20
-90.14
-86.74
-85.92
-87.79
-92.23
-98.84
-106.24
-111.55
-110.67
-99.59
-76.46
-43.24
-5.61
28.94
54.17
67.53
70.62
67.55
62.45
57.64
53.28
48.60
43.15
37.65
33.46
31.61
31.98
33.29
33.88
32.34
28.40
22.84
17.12
12.62
10.08
9.29
9.25
8.70
6.76
3.25
-1.32
-6.00
-9.91
-12.56
-14.13
-15.31
-17.02
-19.98
-24.44
-30.12
-36.21
-41.75
-45.79
-47.75
-47.44
-45.14
-41.09
-35.56
-28.67
-20.28
-10.22
1.54
14.61
28.17
41.00
51.81
59.63
64.18
66.06
66.54
67.09
68.85
72.16
76.49
80.71
83.51
84.00
82.07
78.48
74.84
73.22
75.63
82.98
93.97
104.63
109.02
101.15
77.48
38.81
-9.09
-56.52
-92.66
-108.42
-99.25
-65.95
-14.48
45.68
103.61
149.25
175.48
179.21
161.89
128.48
86.37
43.42
6.40
-20.32
-35.30
-39.75
-36.75
-30.04
-23.25
-18.59
-16.95
-18.15
-21.78
-28.20
-39.13
-57.40
-83.30
-115.93
-151.38
-182.97
-203.35
-207.53
-195.15
-170.85
-142.62
-118.80
-106.20
-108.36
-125.27
-153.67
-187.46
-218.30
-236.85
-235.17
-209.03
-159.79
-93.56
-18.59
58.13
132.98
205.75
277.81
348.53
415.47
473.39
516.16
539.14
540.87
523.22
490.44
447.68
399.45
349.28
299.59
252.36
209.42
172.29
141.45
116.13
94.23
73.16
50.86
26.33
-0.03
-26.57
-51.06
-71.67
-87.24
-97.52
-102.81
-103.46
-99.67
-91.40
-78.48
-60.95
-39.21
-14.04
13.65
43.09
73.79
105.41
137.52
169.37
199.84
227.61
251.67
271.64
287.88
301.19
312.25
320.92
326.01
325.44
316.93
298.87
271.16
235.11
192.67
145.82
95.75
42.47
-14.73
-76.86
-144.91
-219.36
-299.66
-383.21
-464.74
-537.06
-593.35
-630.21
-649.82
-660.04
-671.58
-693.70
-730.26
-778.01
-827.99
-868.54
-888.89
-882.22
-846.88
-786.26
-707.56
-619.93
-532.56
-453.56
-388.76
-341.50
-313.37
-304.45
-313.13
-336.19
-368.58
-404.19
-437.23
-463.16
-479.26
-484.45
-478.41
-460.89
-431.67
-390.87
-339.39
-279.42
-214.34
-148.48
-86.31
-31.32
14.62
51.23
79.58
101.38
118.20
131.17
140.69
146.75
149.29
148.60
145.41
140.77
135.75
131.07
127.17
124.03
121.46
119.27
117.44
116.25
116.33
118.44
123.12
130.74
141.31
154.55
169.83
186.09
201.98
215.86
225.85
230.00
226.72
215.17
195.77
170.26
141.62
113.55
89.65
72.53
63.34
61.65
65.89
74.17
85.06
97.93
112.76
129.56
147.76
165.94
182.06
194.38
202.23
206.66
210.00
214.96
223.50
236.42
253.62
274.50
297.98
321.88
342.46
354.61
353.44
336.42
304.99
264.12
219.86
176.81
136.52
98.34
61.81
28.91
4.52
-5.46
2.90
28.95
66.58
105.90
136.36
150.38
145.88
126.41
98.33
66.90
33.33
-5.19
-52.42
-108.87
-169.20
-223.11
-259.33
-270.42
-255.34
-218.87
-168.62
-112.13
-55.41
-2.84
42.43
78.68
106.63
129.42
151.34
175.96
204.39
234.73
263.28
286.28
301.30
308.18
308.99
307.15
306.74
311.20
321.93
337.52
353.71
364.44
364.20
350.12
323.00
287.57
250.00
215.58
187.33
166.01
150.95
142.24
140.81
147.28
161.54
180.53
198.89
211.54
216.18
213.60
208.08
203.99
203.20
206.72
214.29
225.84
242.38
264.66
289.83
313.24
328.22
327.99
310.88
278.78
235.46
184.88
129.93
71.01
10.94
-45.35
-107.73
-178.72
-255.95
-334.09
-406.79
-457.19
-485.50
-495.67
-491.36
-475.05
-450.05
-417.70
-380.05
-340.13
-301.36
-267.97
-240.46
-216.94
-195.35
-173.75
-153.30
-138.54
-134.39
-142.34
-159.25
-175.95
-181.68
-169.70
-138.80
-93.46
-41.41
9.74
54.24
87.35
104.58
101.54
74.18
21.48
-53.39
-143.67
-240.69
-336.16
-423.26
-497.90
-551.95
-576.86
-566.72
-522.19
-451.41
-367.27
-287.72
-219.46
-165.13
-125.11
-98.59
-82.85
-74.10
-66.76
-55.21
-35.97
-8.51
23.26
54.20
80.18
99.80
113.83
123.75
129.78
130.31
123.50
107.73
83.74
54.40
23.50
-5.85
-31.86
-54.03
-72.37
-86.36
-95.75
-100.20
-99.61
-94.00
-83.48
-68.27
-49.13
-27.73
-6.33
12.82
29.02
43.67
59.77
80.17
105.77
134.87
163.84
189.10
208.55
222.36
232.16
239.93
246.71
252.43
256.35
257.80
256.88
254.42
251.54
248.97
246.52
243.02
236.50
224.85
206.36
180.38
147.68
110.38
71.40
33.72
-0.56
-30.65
-56.97
-80.65
-102.60
-122.90
-140.53
-153.80
-160.85
-160.42
-152.26
-137.12
-116.70
-93.31
-69.55
-47.87
-30.12
-17.02
-8.07
-1.74
3.79
9.89
16.87
23.99
29.99
33.74
34.75
33.35
30.30
26.48
22.55
18.90
15.76
13.33
11.78
11.21
11.46
11.99
12.10
10.95
7.91
2.70
-4.49
-13.13
-22.44
-31.73
-40.54
-48.69
-56.15
-62.93
-68.90
-73.89
-77.71
-80.34
-81.94
-82.90
-83.74
-85.01
-87.21
-90.64
-95.28
-100.63
-105.64
-108.84
-108.70
-104.05
-94.57
-80.91
-64.54
-47.36
-31.25
-17.61
-7.19
-0.09
4.11
6.12
6.74
6.73
6.66
6.83
7.35
8.18
9.24
10.54
12.09
13.94
16.10
18.51
20.95
23.15
24.78
25.58
25.44
24.42
22.71
20.57
18.20
15.62
12.67
9.14
4.86
-0.16
-5.66
-11.26
-16.56
-21.33
-25.56
-29.47
-33.41
-37.70
-42.55
-47.93
-53.46
-58.42
-61.72
-62.18
-58.89
-51.68
-41.28
-29.24
-17.42
-7.42
-0.03
4.76
7.70
9.75
11.73
14.10
16.98
20.30
23.86
27.53
31.17
34.66
37.85
40.53
42.50
43.56
43.62
42.66
40.83
38.36
35.43
32.15
28.45
24.23
19.39
13.94
7.96
1.62
-4.90
-11.45
-17.85
-23.94
-29.53
-34.51
-38.95
-43.13
-47.35
-51.84
-56.48
-60.66
-63.48
-63.92
-61.17
-55.00
-45.71
-34.08
-21.21
-8.15
4.12
14.89
23.72
30.48
35.26
38.36
40.11
40.81
40.62
39.65
37.98
35.75
33.24
30.77
28.60
26.89
25.65
24.81
24.25
23.86
23.48
22.97
22.10
20.67
18.48
15.43
11.57
7.11
2.37
-2.32
-6.72
-10.79
-14.63
-18.42
-22.33
-26.41
-30.69
-35.08
-39.44
-43.38
-46.25
-47.19
-45.31
-40.09
-31.62
-20.66
-8.45
3.67
14.59
23.59
30.36
34.85
37.22
37.71
36.70
34.68
32.16
29.58
27.27
25.36
23.84
22.72
21.99
21.78
22.24
23.39
25.14
27.19
29.06
30.18
30.10
28.60
25.76
21.96
17.68
13.44
9.54
6.07
2.89
-0.22
-3.47
-6.92
-10.45
-13.90
-17.05
-19.84
-22.33
-24.70
-27.21
-30.21
-33.91
-38.35
-43.15
-47.49
-50.20
-50.09
-46.34
-38.86
-28.37
-16.14
-3.68
7.75
17.42
25.02
30.56
34.19
36.07
36.38
35.46
33.72
31.62
29.57
27.77
26.25
24.95
23.80
22.78
22.02
21.65
21.73
22.27
23.09
23.94
24.57
24.72
24.21
22.97
21.01
18.42
15.39
12.14
8.92
5.97
3.41
1.25
-0.63
-2.38
-4.17
-6.03
-7.93
-9.74
-11.31
-12.65
-13.89
-15.25
-17.00
-19.30
-22.15
-25.42
-28.67
-31.26
-32.36
-31.20
-27.25
-20.51
-11.60
-1.61
8.13
16.55
22.96
27.24
29.61
30.53
30.40
29.61
28.46
27.16
25.91
24.76
23.75
22.90
22.23
21.77
21.54
21.55
21.73
22.01
22.27
22.47
22.59
22.61
22.45
21.97
21.04
19.49
17.29
14.54
11.50
8.47
5.74
3.48
1.65
0.11
-1.38
-3.02
-4.91
-7.01
-9.14
-11.11
-12.74
-14.01
-15.00
-15.88
-16.84
-18.00
-19.45
-21.24
-23.36
-25.63
-27.67
-28.83
-28.37
-25.74
-20.75
-13.83
-5.83
2.15
9.15
14.59
18.33
20.57
21.60
21.73
21.12
19.91
18.21
16.25
14.34
12.84
12.04
12.05
12.74
13.83
14.95
15.78
16.18
16.09
15.58
14.72
13.58
12.28
10.92
9.62
8.45
7.35
6.14
4.64
2.77
0.55
-1.85
-4.27
-6.62
-8.88
-11.05
-13.12
-15.00
-16.46
-17.30
-17.34
-16.51
-14.93
-12.86
-10.70
-8.88
-7.83
-7.84
-8.99
-11.17
-14.02
-16.94
-19.18
-20.03
-18.95
-15.81
-10.95
-5.03
1.08
6.61
11.04
14.20
16.13
16.99
16.98
16.25
14.92
13.09
10.92
8.59
6.37
4.47
3.07
2.30
2.18
2.71
3.81
5.41
7.34
9.38
11.33
13.02
14.42
15.61
16.74
17.94
19.21
20.41
21.30
21.65
21.30
20.28
18.74
16.93
15.04
13.21
11.42
9.71
8.12
6.81
6.03
5.98
6.69
8.04
9.76
11.59
13.41
15.29
17.38
19.84
22.73
25.96
29.44
33.04
36.64
40.11
43.28
45.92
47.75
48.35
47.27
44.06
38.29
29.80
18.83
6.07
-7.40
-20.43
-32.10
-41.87
-49.68
-55.83
-60.83
-65.26
-69.66
-74.35
-79.10
-83.00
-84.54
-82.23
-75.35
-64.65
-52.43
-41.67
-34.87
-32.88
-34.57
-37.38
-38.55
-36.23
-29.96
-20.58
-9.42
2.25
13.66
24.35
33.99
42.16
48.42
52.45
54.16
53.81
51.74
48.27
43.54
37.48
30.03
21.41
12.26
3.59
-3.44
-8.03
-9.96
-9.73
-8.39
-7.14
-7.01
-8.50
-11.55
-15.66
-20.20
-24.66
-28.84
-32.80
-36.70
-40.52
-43.97
-46.52
-47.74
-47.54
-46.32
-44.73
-43.37
-42.47
-41.93
-41.44
-40.74
-39.73
-38.45
-36.96
-35.35
-33.80
-32.74
-32.77
-34.31
-37.14
-40.33
-42.47
-42.28
-39.07
-32.76
-23.67
-12.01
2.23
19.08
38.18
58.49
78.35
95.75
108.81
116.06
116.45
109.45
95.18
74.55
49.23
21.29
-7.53
-36.32
-65.14
-94.58
-125.22
-157.13
-189.80
-222.39
-253.60
-281.64
-303.79
-316.60
-316.59
-301.39
-270.82
-227.07
-174.06
-116.37
-58.24
-3.19
45.96
86.91
118.13
139.31
151.70
157.96
161.38
164.84
170.06
177.45
186.43
195.88
204.62
211.75
216.77
219.79
221.50
223.09
225.86
230.64
237.12
243.42
246.33
241.91
226.54
197.88
155.47
100.94
37.88
-28.49
-91.97
-146.19
-185.68
-206.98
-209.31
-194.58
-166.62
-130.13
-89.82
-50.06
-14.80
12.37
28.77
33.27
26.79
12.16
-6.90
-27.01
-46.04
-63.22
-78.64
-92.31
-103.69
-111.79
-115.76
-115.47
-111.85
-106.54
-101.16
-96.74
-93.32
-90.24
-86.79
-82.71
-78.30
-74.14
-70.50
-67.11
-63.29
-58.44
-52.38
-45.30
-37.32
-28.05
-16.50
-1.67
16.62
37.26
57.92
75.79
88.57
95.02
94.94
88.85
77.60
62.36
44.86
27.46
12.91
3.59
0.75
3.99
11.38
20.20
27.92
33.07
35.55
36.24
36.29
36.40
36.49
35.83
33.66
29.68
24.36
18.79
14.20
11.49
10.81
11.69
13.34
15.06
16.37
17.03
16.88
15.77
13.70
10.84
7.65
4.66
2.23
0.38
-1.28
-3.17
-5.57
-8.36
-11.27
-14.03
-16.65
-19.42
-22.70
-26.63
-31.04
-35.53
-39.65
-43.12
-45.96
-48.48
-51.28
-55.03
-60.27
-67.14
-75.15
-83.10
-89.29
-92.06
-90.34
-84.10
-74.29
-62.66
-51.23
-41.85
-35.83
-33.80
-35.57
-40.13
-45.69
-49.87
-50.08
-44.17
-30.91
-10.34
16.25
46.75
78.63
109.49
137.17
159.71
175.25
182.06
179.00
165.90
144.07
116.20
85.70
55.79
28.72
5.46
-13.96
-29.90
-42.64
-52.37
-59.37
-64.35
-68.32
-72.36
-77.15
-82.73
-88.62
-94.17
-98.93
-102.83
-106.08
-108.90
-111.26
-112.66
-112.18
-108.75
-101.46
-89.76
-73.66
-53.58
-30.29
-4.77
22.01
49.18
76.13
102.53
128.08
152.23
173.95
191.86
204.77
212.39
215.68
216.59
217.20
218.48
219.59
218.16
211.40
197.57
177.08
152.42
127.17
104.65
86.77
73.82
65.08
59.79
57.84
59.79
66.11
76.22
87.91
97.65
101.50
96.28
80.53
54.73
21.02
-17.46
-57.25
-94.98
-127.81
-154.03
-173.68
-188.83
-203.13
-220.26
-241.94
-266.54
-288.95
-302.22
-300.18
-279.69
-241.51
-189.46
-128.64
-63.77
1.28
63.09
117.93
161.85
191.53
205.62
205.43
194.59
177.87
159.41
141.75
125.52
109.94
93.85
76.39
57.30
36.92
16.00
-4.75
-24.86
-44.59
-65.06
-87.73
-113.46
-141.35
-168.20
-189.31
-200.46
-199.81
-189.00
-172.29
-154.42
-138.49
-125.11
-113.20
-101.87
-91.90
-85.53
-84.95
-90.37
-99.03
-106.05
-106.57
-97.84
-80.22
-56.54
-30.36
-4.37
20.17
43.12
64.32
82.97
97.66
107.10
111.07
110.86
108.96
108.10
110.35
116.41
125.68
136.55
146.87
154.23
156.32
151.25
138.17
117.87
93.22
68.62
48.91
37.68
36.08
42.70
54.38
67.75
80.36
91.12
99.57
105.07
106.36
101.76
90.19
72.09
49.84
27.37
9.01
-1.79
-3.40
3.62
17.01
33.62
50.53
65.81
78.73
89.39
97.90
103.95
106.57
104.49
96.82
83.51
65.56
44.65
22.41
-0.19
-23.08
-46.79
-71.78
-97.77
-123.52
-147.41
-168.16
-185.43
-199.70
-211.53
-220.76
-226.26
-226.53
-220.73
-209.76
-196.36
-184.46
-177.92
-179.40
-189.48
-206.51
-226.98
-246.42
-260.72
-267.32
-265.86
-257.98
-246.16
-232.29
-217.01
-199.82
-180.11
-158.05
-134.76
-111.45
-88.62
-65.68
-41.58
-15.93
10.37
35.34
56.94
74.05
86.98
97.07
106.07
115.56
126.89
141.24
159.62
182.44
209.01
237.30
264.08
285.63
298.67
301.28
293.31
276.38
253.44
227.68
201.45
175.24
147.65
116.20
78.96
35.94
-10.46
-56.18
-97.03
-130.14
-154.55
-170.67
-179.28
-180.77
-175.15
-162.54
-143.77
-120.27
-93.49
-64.34
-32.98
0.49
35.33
69.78
101.43
128.13
148.46
162.06
169.21
170.49
166.62
158.74
148.52
137.92
128.60
121.16
115.12
109.30
102.71
94.95
86.32
77.41
68.70
60.55
53.12
46.49
40.36
33.98
26.28
16.41
4.42
-8.41
-19.89
-28.00
-31.94
-32.58
-32.07
-32.65
-35.56
-40.58
-46.39
-51.45
-54.88
-56.71
-57.54
-57.90
-57.92
-57.33
-55.81
-53.38
-50.52
-47.95
-46.27
-45.60
-45.44
-44.90
-43.07
-39.33
-33.72
-26.99
-20.31
-14.95
-11.97
-11.83
-14.43
-19.17
-25.05
-30.96
-35.80
-38.62
-38.62
-35.44
-29.03
-19.87
-8.90
2.44
12.30
18.79
20.34
16.37
7.58
-3.95
-15.39
-24.03
-28.30
-28.34
-25.91
-23.64
-24.03
-28.62
-37.43
-49.04
-60.84
-69.77
-73.16
-69.31
-57.84
-39.56
-16.09
10.48
37.71
63.01
84.07
99.45
109.21
114.76
117.86
119.29
117.90
110.87
95.36
70.45
38.30
3.64
-28.13
-53.19
-70.39
-80.98
-87.17
-90.58
-91.63
-90.00
-85.56
-79.15
-72.47
-67.24
-64.23
-62.69
-60.65
-55.87
-47.02
-34.29
-19.48
-5.09
6.73
14.96
19.96
23.02
25.59
28.44
31.40
33.33
32.92
29.44
23.46
16.88
12.26
11.71
16.04
24.55
35.45
46.79
57.25
66.28
73.97
80.59
86.24
90.85
94.32
96.56
97.48
97.01
95.17
92.32
89.35
87.49
87.88
91.04
96.52
103.02
108.82
112.39
113.01
111.00
107.68
104.78
103.77
105.04
107.78
110.08
109.63
104.54
93.72
76.74
53.51
24.00
-11.60
-52.29
-95.96
-139.72
-180.62
-216.66
-247.04
-271.77
-290.77
-303.26
-307.87
-303.41
-289.82
-268.37
-241.06
-209.62
-175.01
-137.61
-98.18
-58.63
-21.86
9.05
32.13
47.20
55.58
59.17
59.31
56.36
49.98
40.09
27.46
13.96
2.03
-6.07
-8.82
-5.67
2.99
16.00
31.66
47.91
62.59
73.83
80.32
81.48
77.48
69.10
57.55
44.33
30.85
18.21
6.95
-3.12
-12.66
-22.42
-32.75
-43.32
-53.22
-61.29
-66.73
-69.30
-69.45
-68.04
-65.96
-64.01
-62.65
-62.09
-62.30
-63.11
-64.34
-65.91
-67.79
-69.87
-71.86
-73.15
-72.99
-70.62
-65.62
-58.07
-48.47
-37.64
-26.51
-15.89
-6.33
1.92
8.98
15.18
20.91
26.57
32.34
38.08
43.29
47.03
48.09
45.32
38.09
26.70
12.52
-2.40
-15.97
-26.61
-33.69
-37.30
-37.90
-36.02
-32.18
-27.02
-21.37
-15.95
-10.90
-5.57
1.31
10.94
23.62
38.57
54.17
68.76
81.22
91.10
98.27
102.60
103.82
101.87
97.41
91.85
87.05
84.57
85.13
88.50
93.86
100.26
106.78
112.47
116.07
116.13
111.34
101.13
85.89
66.85
45.57
23.35
1.03
-20.92
-42.11
-62.06
-80.30
-96.45
-110.22
-121.12
-128.38
-131.03
-128.36
-120.36
-107.89
-92.42
-75.45
-58.14
-41.24
-25.39
-11.31
0.32
9.33
16.44
23.12
30.97
40.68
51.54
61.55
68.37
70.36
67.34
60.56
52.07
43.75
36.47
30.00
23.36
15.73
7.12
-1.44
-8.31
-12.07
-12.26
-9.71
-6.06
-3.06
-1.74
-2.07
-3.16
-3.80
-3.02
-0.47
3.55
8.25
12.58
15.34
15.33
11.55
3.45
-8.59
-23.13
-37.84
-50.00
-57.33
-58.58
-53.73
-43.89
-30.75
-16.15
-1.64
11.58
22.52
30.45
34.83
35.65
33.53
29.75
25.95
23.66
23.81
26.41
30.67
35.34
39.21
41.46
41.70
39.85
35.90
29.88
21.98
12.61
2.45
-7.70
-17.17
-25.41
-32.11
-36.95
-39.64
-39.83
-37.41
-32.60
-26.13
-18.99
-12.20
-6.52
-2.31
0.40
1.85
2.41
2.53
2.73
3.54
5.41
8.52
12.74
17.53
22.17
26.01
28.71
30.43
31.66
32.95
34.62
36.47
37.72
37.24
33.87
26.94
16.55
3.59
-10.55
-24.34
-36.43
-45.92
-52.24
-55.26
-55.22
-52.63
-48.33
-43.35
-38.77
-35.49
-34.08
-34.66
-36.96
-40.39
-44.11
-47.12
-48.43
-47.19
-42.85
-35.26
-24.70
-11.79
2.49
16.97
30.26
40.82
47.10
47.86
42.43
31.04
14.82
-4.49
-24.80
-44.12
-60.87
-74.01
-82.94
-87.45
-87.65
-83.89
-76.71
-66.76
-54.76
-41.53
-28.02
-15.21
-4.06
4.83
11.37
15.98
19.43
22.39
25.26
28.11
30.82
33.36
35.80
38.40
41.25
44.27
47.13
49.47
51.06
51.93
52.24
52.13
51.70
50.95
50.01
49.06
48.21
47.31
45.90
43.38
39.44
34.29
28.54
22.88
17.63
12.64
7.39
1.38
-5.54
-13.16
-21.27
-29.91
-39.42
-50.08
-61.67
-73.21
-83.27
-90.38
-93.62
-92.87
-88.73
-82.17
-74.11
-65.32
-56.35
-47.80
-40.23
-34.11
-29.68
-26.81
-24.92
-23.36
-21.72
-20.23
-19.76
-21.42
-26.02
-33.43
-42.32
-50.47
-55.49
-55.61
-50.29
-40.27
-27.19
-12.89
1.23
14.54
27.11
39.33
51.58
64.19
77.45
91.93
108.36
127.36
148.94
172.10
195.05
215.90
233.46
247.51
258.65
267.46
273.93
277.31
276.52
270.99
260.93
247.16
230.29
210.15
185.52
154.63
116.18
70.19
18.33
-36.53
-91.21
-143.05
-190.27
-231.70
-266.20
-292.29
-308.39
-313.61
-308.44
-294.85
-275.71
-253.70
-230.59
-206.91
-182.51
-157.30
-131.83
-107.37
-85.51
-67.67
-54.64
-46.39
-42.26
-41.12
-41.76
-43.06
-44.14
-44.46
-43.76
-42.06
-39.48
-36.33
-32.95
-29.55
-25.99
-21.78
-16.38
-9.53
-1.46
7.22
15.84
23.90
31.04
36.83
40.57
41.41
38.87
33.27
25.89
18.45
12.41
8.30
5.58
3.18
0.07
-4.17
-9.49
-15.45
-21.56
-27.36
-32.28
-35.73
-37.08
-35.89
-31.96
-25.48
-16.81
-6.39
5.32
18.07
31.63
45.76
60.09
74.10
86.95
97.78
106.03
111.73
115.76
119.49
124.29
130.88
138.89
147.05
153.78
157.86
158.84
157.11
153.38
148.41
142.69
136.42
129.52
121.65
112.16
100.13
84.84
66.00
44.17
20.69
-2.79
-24.85
-44.68
-62.14
-77.46
-90.82
-102.26
-111.70
-119.12
-124.79
-129.14
-132.54
-135.10
-136.66
-137.03
-136.23
-134.69
-133.11
-132.07
-131.62
-131.02
-128.89
-123.58
-113.65
-98.29
-77.54
-52.17
-23.51
6.98
38.03
68.79
98.93
128.61
158.03
186.98
214.16
236.98
251.89
255.31
244.87
220.26
183.47
138.15
88.49
38.27
-9.68
-53.31
-90.90
-120.76
-141.42
-152.04
-153.12
-146.44
-134.58
-120.08
-104.72
-89.19
-73.45
-57.27
-40.76
-24.49
-9.27
4.20
15.57
24.83
32.05
37.19
40.14
40.83
39.38
36.12
31.46
25.66
18.82
10.92
1.87
-8.38
-19.88
-32.89
-47.78
-64.87
-84.12
-104.85
-125.79
-145.26
-161.72
-174.07
-181.90
-185.32
-184.75
-180.60
-173.27
-163.43
-152.17
-141.11
-131.99
-125.81
-122.03
-118.21
-110.47
-94.70
-68.30
-31.28
13.44
61.05
106.41
145.42
175.72
196.43
207.63
209.77
203.61
190.41
172.11
151.19
130.11
110.74
93.90
79.58
67.32
56.78
48.03
41.48
37.60
36.52
37.84
40.57
43.38
44.99
44.61
42.19
38.51
34.88
32.65
32.73
35.13
39.06
43.14
46.10
47.13
46.19
43.87
41.07
38.64
37.06
36.44
36.50
36.73
36.56
35.48
33.25
29.96
26.01
21.88
18.00
14.56
11.52
8.73
6.00
3.28
0.50
-2.43
-5.66
-9.31
-13.25
-17.09
-20.39
-22.91
-24.79
-26.66
-29.37
-33.73
-40.24
-48.95
-59.51
-71.42
-84.03
-96.60
-108.20
-117.78
-124.30
-127.03
-125.63
-120.25
-111.28
-99.11
-84.03
-66.20
-45.92
-23.91
-1.44
19.71
37.66
50.82
58.36
60.40
57.98
52.80
46.68
41.18
37.28
35.38
35.47
37.35
40.70
45.09
49.99
54.66
58.32
60.34
60.32
58.19
54.04
47.91
39.76
29.56
17.33
3.41
-11.46
-26.19
-39.55
-50.39
-57.96
-61.94
-62.40
-59.84
-55.02
-49.02
-43.14
-38.70
-36.73
-37.58
-40.66
-44.41
-46.70
-45.35
-38.87
-26.80
-9.79
10.74
33.25
56.48
79.69
102.51
124.66
145.44
163.58
177.41
185.14
185.53
178.30
164.39
145.56
123.80
100.49
75.95
49.54
20.27
-12.44
-48.23
-85.82
-123.42
-158.94
-190.26
-215.18
-231.70
-238.57
-236.10
-226.49
-213.06
-198.66
-183.90
-166.66
-143.17
-110.34
-68.06
-19.76
28.73
71.64
105.44
129.44
144.73
152.51
152.97
145.44
129.53
106.45
79.33
52.43
29.61
13.07
2.90
-2.37
-4.90
-6.55
-8.50
-11.30
-15.24
-20.59
-27.54
-36.20
-46.23
-56.78
-66.56
-74.10
-78.13
-78.01
-73.86
-66.55
-57.43
-47.91
-39.02
-31.10
-23.90
-16.79
-9.29
-1.38
6.45
13.46
19.08
23.15
26.05
28.36
30.49
32.49
34.04
34.70
34.24
32.73
30.53
28.09
25.77
23.69
21.77
19.75
17.26
13.94
9.61
4.32
-1.50
-7.07
-11.44
-13.83
-13.82
-11.56
-7.69
-3.06
1.48
5.33
8.18
10.00
10.91
11.19
11.07
10.74
10.26
9.54
8.47
6.93
5.03
3.03
1.32
0.20
-0.23
-0.10
0.33
0.81
1.23
1.56
1.84
2.06
2.12
1.89
1.28
0.30
-0.98
-2.47
-4.09
-5.76
-7.39
-8.85
-10.05
-10.94
-11.63
-12.28
-13.09
-14.16
-15.46
-16.89
-18.21
-19.12
-19.24
-18.28
-15.98
-12.33
-7.60
-2.26
3.08
7.84
11.68
14.47
16.29
17.36
17.91
18.18
18.30
18.30
18.15
17.78
17.18
16.40
15.53
14.71
14.06
13.59
13.26
12.98
12.64
12.17
11.58
10.86
10.04
9.13
8.16
7.09
5.81
4.22
2.14
-0.45
-3.46
-6.61
-9.56
-11.94
-13.59
-14.62
-15.32
-16.08
-17.10
-18.34
-19.40
-19.72
-18.80
-16.45
-12.94
-8.91
-5.20
-2.51
-1.23
-1.41
-2.84
-5.15
-7.93
-10.72
-13.00
-14.32
-14.34
-12.98
-10.45
-7.16
-3.55
-0.00
3.18
5.78
7.53
8.21
7.69
6.05
3.53
0.52
-2.66
-5.70
-8.37
-10.44
-11.65
-11.77
-10.68
-8.50
-5.66
-2.77
-0.57
0.40
-0.17
-2.17
-5.05
-7.97
-9.98
-10.33
-8.67
-5.20
-0.49
4.61
9.39
13.37
16.40
18.57
20.09
21.14
21.78
22.08
22.03
21.65
20.97
20.01
18.84
17.58
16.38
15.40
14.77
14.58
14.79
15.30
15.93
16.44
16.56
16.05
14.74
12.62
9.83
6.69
3.52
0.57
-2.01
-4.22
-6.09
-7.61
-8.70
-9.32
-9.49
-9.32
-9.02
-8.87
-9.13
-10.00
-11.64
-14.11
-17.33
-20.94
-24.34
-26.74
-27.34
-25.70
-21.78
-16.11
-9.45
-2.64
3.72
9.27
13.85
17.40
19.87
21.25
21.62
21.17
20.18
18.97
17.79
16.81
16.12
15.72
15.58
15.60
15.68
15.73
15.76
15.83
16.02
16.40
16.93
17.57
18.21
18.78
19.19
19.37
19.19
18.53
17.31
15.49
13.15
10.48
7.67
4.85
2.08
-0.70
-3.58
-6.58
-9.64
-12.52
-14.92
-16.53
-17.19
-16.93
-16.03
-14.88
-13.89
-13.35
-13.21
-13.06
-12.10
-9.39
-4.19
3.73
13.94
25.42
36.78
46.68
54.01
58.10
58.72
56.06
50.57
42.97
34.08
24.68
15.34
6.34
-2.31
-10.61
-18.39
-25.20
-30.39
-33.27
-33.39
-30.73
-25.72
-19.16
-12.05
-5.36
0.10
3.73
5.30
4.88
2.86
-0.14
-3.40
-6.30
-8.36
-9.35
-9.31
-8.51
-7.36
-6.29
-5.63
-5.52
-5.85
-6.38
-6.90
-7.34
-7.83
-8.58
-9.77
-11.38
-13.21
-14.96
-16.34
-17.23
-17.61
-17.58
-17.26
-16.83
-16.48
-16.46
-16.92
-17.75
-18.52
-18.56
-17.11
-13.72
-8.40
-1.67
5.61
12.49
18.29
22.66
25.57
27.22
27.83
27.58
26.52
24.60
21.68
17.68
12.64
6.89
0.99
-4.28
-8.20
-10.25
-10.24
-8.28
-4.68
0.20
6.05
12.58
19.42
26.07
31.93
36.47
39.41
40.78
40.87
40.10
38.83
37.25
35.40
33.19
30.53
27.37
23.79
19.97
16.21
12.80
10.02
8.02
6.84
6.43
6.67
7.34
8.08
8.40
7.73
5.52
1.48
-4.48
-12.17
-21.28
-31.36
-41.72
-51.32
-58.77
-62.63
-61.86
-56.25
-46.69
-34.83
-22.64
-11.67
-2.72
4.23
9.63
14.02
17.74
20.90
23.51
25.69
27.59
29.33
30.69
31.02
29.32
24.57
16.25
4.68
-8.81
-22.23
-33.53
-41.28
-45.04
-45.45
-43.74
-41.25
-38.97
-37.32
-36.30
-35.72
-35.36
-35.12
-34.91
-34.58
-33.93
-32.75
-30.93
-28.49
-25.65
-22.75
-20.11
-17.95
-16.25
-14.75
-13.12
-11.04
-8.33
-5.01
-1.28
2.58
6.26
9.50
12.09
13.80
14.49
14.09
12.71
10.67
8.39
6.33
4.83
4.06
4.00
4.58
5.68
7.22
9.13
11.24
13.31
15.05
16.18
16.57
16.33
15.81
15.52
16.00
17.63
20.48
24.26
28.38
32.11
34.71
35.73
34.95
32.48
28.57
23.57
17.78
11.50
4.96
-1.68
-8.36
-15.08
-21.92
-28.89
-35.89
-42.72
-49.17
-55.08
-60.48
-65.57
-70.68
-76.14
-82.23
-89.09
-96.73
-104.93
-113.23
-120.90
-127.11
-131.09
-132.29
-130.55
-126.02
-119.11
-110.24
-99.73
-87.58
-73.40
-56.45
-35.85
-10.97
18.22
50.81
85.10
118.94
150.35
177.92
200.99
219.48
233.55
243.41
249.25
251.32
249.93
245.37
237.67
226.49
211.19
191.13
166.05
136.35
103.02
67.45
31.07
-4.86
-39.34
-71.63
-101.21
-127.66
-150.65
-169.75
-184.42
-194.17
-198.59
-197.69
-191.95
-182.31
-169.86
-155.65
-140.52
-125.03
-109.67
-94.81
-80.77
-67.79
-56.00
-45.43
-36.21
-28.59
-22.77
-18.72
-16.02
-13.84
-11.15
-7.00
-0.76
7.78
18.38
30.45
43.01
54.94
65.01
72.19
75.82
75.71
72.19
65.89
57.60
48.03
37.81
27.49
17.62
8.81
1.63
-3.43
-6.14
-6.55
-5.00
-2.03
1.77
5.83
9.69
13.02
15.59
17.23
17.91
17.68
16.68
15.13
13.28
11.37
9.59
8.00
6.57
5.21
3.81
2.41
1.23
0.51
0.47
1.13
2.29
3.65
4.94
6.06
7.05
8.12
9.44
11.06
12.87
14.61
16.00
16.76
16.79
16.13
15.02
13.74
12.54
11.47
10.35
8.83
6.46
2.88
-2.11
-8.47
-15.92
-23.99
-32.15
-39.93
-47.07
-53.52
-59.44
-64.96
-70.09
-74.64
-78.33
-80.86
-82.07
-81.79
-79.82
-75.92
-69.91
-62.03
-53.01
-44.15
-36.94
-32.63
-31.80
-34.20
-38.77
-44.10
-48.81
-51.96
-53.24
-52.88
-51.50
-49.79
-48.31
-47.26
-46.60
-46.03
-45.18
-43.60
-40.89
-36.76
-31.13
-24.29
-16.84
-9.55
-3.00
2.75
8.48
15.50
25.17
38.14
53.87
70.64
86.11
98.30
106.41
111.02
113.67
116.05
119.16
123.11
127.46
131.88
136.47
141.68
147.80
154.55
160.92
165.60
167.47
165.92
160.84
152.29
140.21
124.52
105.16
82.38
56.64
28.34
-2.31
-35.20
-69.91
-105.33
-139.62
-170.58
-196.36
-215.93
-229.16
-236.54
-238.62
-235.65
-227.63
-214.58
-196.98
-175.91
-153.02
-130.18
-109.22
-91.72
-78.93
-71.54
-69.51
-71.81
-76.52
-81.15
-83.30
-81.19
-74.10
-62.28
-46.61
-28.26
-8.40
11.80
31.19
48.63
63.11
73.98
81.03
84.53
85.22
84.16
82.43
81.05
80.54
80.93
81.76
82.43
82.48
81.70
80.12
77.74
74.47
70.10
64.61
58.25
51.55
45.08
39.21
34.00
29.22
24.57
19.81
14.85
9.74
4.69
0.01
-3.94
-7.07
-9.86
-13.41
-19.30
-28.92
-42.75
-60.07
-78.98
-96.92
-111.43
-120.64
-123.53
-119.95
-110.58
-96.70
-80.13
-62.88
-46.72
-32.79
-21.39
-12.04
-3.93
3.62
10.87
17.51
23.01
26.94
29.45
31.32
33.92
38.63
46.33
57.11
70.27
84.73
99.41
113.46
126.20
136.94
144.76
148.74
148.28
143.40
134.84
123.77
111.23
97.76
83.30
67.38
49.62
30.01
9.03
-12.37
-32.97
-51.50
-66.73
-77.72
-83.90
-85.27
-82.38
-76.46
-69.22
-62.70
-58.88
-59.17
-63.97
-72.33
-82.18
-90.89
-96.14
-96.62
-92.34
-84.24
-73.54
-61.18
-47.58
-32.93
-17.53
-2.15
12.14
24.35
33.95
41.10
46.38
50.47
53.76
56.25
57.66
57.63
55.99
52.76
48.23
42.83
37.02
31.20
25.71
20.66
15.98
11.47
6.94
2.36
-2.08
-6.02
-9.13
-11.25
-12.53
-13.25
-13.71
-14.06
-14.16
-13.82
-12.83
-11.22
-9.18
-6.98
-4.80
-2.66
-0.49
1.79
4.15
6.50
8.81
11.24
14.06
17.57
21.77
26.27
30.31
32.91
33.25
30.85
25.73
18.43
9.80
0.73
-8.02
-15.93
-22.64
-27.86
-31.25
-32.44
-31.11
-27.26
-21.30
-13.99
-6.25
0.97
6.82
10.57
11.65
9.69
4.68
-2.90
-12.11
-21.68
-30.26
-36.71
-40.25
-40.54
-37.69
-32.21
-24.92
-16.74
-8.52
-0.87
5.96
12.01
17.43
22.25
26.35
29.42
31.24
31.69
30.96
29.57
28.33
28.15
29.76
33.51
39.22
46.41
54.25
61.84
68.47
73.78
77.79
80.83
83.29
85.51
88.24
92.00
97.00
103.20
110.32
118.06
126.15
134.37
142.41
151.04
160.84
172.06
184.59
198.01
211.74
225.19
237.77
248.86
259.88
272.20
286.74
303.65
321.94
339.76
354.89
365.29
369.46
369.16
366.38
362.66
358.35
352.57
344.12
332.66
319.47
291.74
242.74
170.55
79.28
-21.86
-121.91
-211.68
-285.57
-341.66
-380.91
-403.86
-412.75
-410.86
-401.91
-389.47
-376.24
-363.71
-352.42
-342.46
-331.88
-319.25
-303.78
-285.54
-265.43
-244.82
-225.13
-207.52
-192.80
-180.29
-169.18
-158.71
-148.40
-138.18
-128.23
-118.83
-110.27
-102.79
-95.96
-89.31
-82.34
-74.79
-66.77
-58.64
-50.80
-43.44
-36.53
-29.67
-22.82
-16.41
-11.36
-8.67
-8.77
-11.12
-14.36
-16.88
-17.41
-15.67
-12.09
-7.33
-1.80
4.59
12.21
21.30
31.31
41.82
51.55
59.73
66.06
70.21
71.82
70.42
65.88
57.93
47.36
35.22
22.92
11.72
1.92
-6.82
-14.91
-22.26
-28.56
-33.05
-35.18
-34.86
-32.66
-29.58
-26.80
-24.83
-23.53
-22.54
-21.62
-20.84
-20.53
-20.43
-20.13
-18.99
-16.11
-11.10
-4.42
2.72
8.83
12.46
13.44
11.71
7.11
0.06
-8.90
-19.07
-29.66
-39.92
-49.66
-59.05
-69.28
-82.54
-99.71
-120.06
-142.02
-163.54
-182.78
-198.53
-209.95
-210.69
-200.43
-179.94
-150.33
-114.02
-74.68
-36.53
-3.35
24.71
47.87
65.77
78.77
87.68
92.73
94.05
92.16
88.11
83.55
79.97
78.43
76.56
74.53
72.98
72.70
74.50
78.85
85.83
94.73
104.16
113.11
121.42
128.89
135.07
139.31
140.69
138.38
131.78
120.86
106.50
90.50
74.42
59.34
45.93
34.65
26.00
20.52
18.50
19.88
24.28
30.78
38.39
46.54
55.16
64.43
74.20
83.52
90.71
94.03
92.53
86.77
78.89
71.72
67.46
66.58
67.45
66.98
61.80
49.41
28.73
0.03
-35.71
-77.42
-124.16
-174.82
-227.84
-280.78
-330.24
-372.06
-402.01
-416.69
-414.13
-393.51
-354.46
-296.46
-219.13
-123.68
-14.53
99.91
208.44
300.13
367.68
409.32
428.30
430.17
419.87
400.05
371.49
334.75
291.73
245.82
200.68
158.75
120.41
84.43
49.17
14.00
-20.18
-51.22
-76.71
-95.13
-106.14
-110.49
-109.37
-103.77
-94.01
-79.92
-61.23
-38.08
-11.37
17.34
46.08
72.86
96.02
114.24
126.64
132.63
131.96
124.73
111.54
93.42
71.76
48.13
24.08
1.00
-20.03
-38.33
-53.75
-66.67
-77.89
-88.33
-98.75
-109.48
-120.31
-130.67
-139.87
-147.32
-152.68
-155.93
-157.40
-157.65
-157.39
-157.18
-157.50
-158.40
-159.50
-160.16
-159.74
-157.87
-154.46
-149.54
-143.17
-135.51
-126.72
-117.00
-106.77
-96.72
-87.71
-80.54
-75.51
-72.28
-70.32
-68.65
-66.17
-62.03
-56.12
-49.09
-42.12
-36.28
-32.26
-31.35
-34.10
-40.00
-47.66
-55.53
-62.52
-68.17
-72.09
-74.37
-77.45
-83.08
-91.18
-99.59
-105.54
-107.03
-103.45
-94.71
-82.12
-70.87
-65.27
-66.76
-73.49
-82.64
-92.16
-101.64
-110.78
-120.77
-137.47
-165.45
-205.81
-255.71
-311.09
-368.58
-426.41
-482.36
-503.17
-466.22
-370.75
-240.19
-104.12
18.45
121.77
201.31
267.46
325.93
374.16
409.22
431.73
447.39
457.82
464.59
467.25
465.14
455.87
434.62
399.24
352.02
299.61
249.79
209.15
180.76
165.00
158.35
153.90
145.60
130.45
109.27
84.92
60.85
39.26
21.53
7.32
-4.80
-15.68
-24.96
-31.45
-34.22
-33.02
-28.61
-22.00
-14.40
-6.91
-0.11
5.87
11.12
15.62
19.34
22.16
24.16
25.42
26.18
26.60
26.60
25.78
23.68
20.06
15.21
9.86
5.02
1.53
-0.30
-0.81
-0.75
-0.98
-2.08
-4.25
-7.48
-11.80
-17.42
-24.67
-33.68
-44.18
-55.52
-66.90
-77.77
-88.10
-98.38
-109.31
-121.39
-134.63
-148.56
-162.38
-175.23
-186.32
-194.88
-200.22
-201.80
-199.43
-193.40
-184.42
-173.26
-160.26
-144.97
-126.26
-102.93
-74.40
-41.30
-5.45
30.75
65.00
95.79
122.48
145.18
164.41
180.76
194.82
207.05
217.66
226.51
232.96
236.06
234.81
228.61
217.51
202.21
183.79
163.39
141.94
120.18
98.79
78.44
59.90
43.77
30.28
19.21
9.89
1.57
-6.28
-13.74
-20.54
-26.28
-30.77
-34.15
-36.77
-39.04
-41.13
-43.05
-44.62
-45.71
-46.29
-46.56
-46.82
-47.40
-48.60
-50.67
-53.83
-58.33
-64.41
-72.12
-81.11
-90.51
-98.84
-104.38
-105.64
-101.86
-93.37
-81.41
-67.68
-53.77
-40.81
-29.44
-19.95
-12.48
-7.07
-3.65
-1.81
-0.85
-0.01
1.28
3.20
5.50
7.82
9.92
11.95
14.34
17.56
21.83
26.94
32.37
37.42
41.52
44.36
45.85
45.93
44.51
41.51
36.98
31.22
24.85
18.62
13.17
8.79
5.31
2.19
-1.22
-5.38
-10.49
-16.29
-22.21
-27.44
-31.13
-32.53
-31.12
-26.79
-19.88
-11.22
-1.92
6.95
14.66
21.06
26.57
31.97
38.01
45.08
53.10
61.50
69.51
76.39
81.58
84.71
85.45
83.55
78.83
71.30
61.38
49.84
37.72
26.12
15.93
7.69
1.58
-2.52
-4.94
-6.18
-6.90
-7.89
-9.94
-13.71
-19.46
-26.90
-35.31
-43.78
-51.49
-57.98
-63.22
-67.45
-70.97
-73.85
-75.84
-76.29
-74.39
-69.41
-61.11
-49.94
-37.11
-24.37
-13.52
-5.93
-2.12
-1.76
-3.94
-7.52
-11.52
-15.29
-18.43
-20.66
-21.73
-21.44
-19.69
-16.48
-11.85
-5.72
2.14
11.93
23.65
36.91
50.89
64.68
77.56
89.15
99.38
108.20
115.32
120.19
122.29
121.39
117.85
112.38
105.66
98.03
89.28
78.88
66.38
51.75
35.50
18.49
1.70
-14.19
-28.82
-42.14
-54.17
-64.91
-74.24
-81.99
-87.92
-91.71
-93.00
-91.37
-86.59
-78.75
-68.40
-56.55
-44.48
-33.36
-24.04
-16.93
-11.92
-8.64
-6.53
-5.01
-3.60
-2.05
-0.36
1.18
2.12
2.02
0.56
-2.34
-6.67
-12.36
-19.35
-27.56
-36.73
-46.30
-55.44
-63.08
-68.32
-70.55
-69.69
-66.06
-60.22
-52.68
-43.81
-33.72
-22.38
-9.79
3.99
18.72
34.03
49.40
64.17
77.54
88.60
96.55
100.87
101.51
98.90
93.86
87.29
79.97
72.39
64.74
57.03
49.29
41.67
34.53
28.32
23.51
20.36
18.82
18.41
18.37
17.80
16.00
12.64
7.80
1.86
-4.63
-11.15
-17.26
-22.58
-26.85
-29.96
-31.97
-33.21
-34.18
-35.38
-37.21
-39.85
-43.28
-47.29
-51.54
-55.51
-58.62
-60.28
-60.06
-57.86
-54.00
-49.09
-43.79
-38.50
-33.13
-27.02
-19.28
-9.18
3.40
17.71
32.22
44.96
54.16
58.65
58.20
53.44
45.60
36.09
26.20
16.89
8.75
2.10
-2.96
-6.44
-8.46
-9.26
-9.13
-8.40
-7.33
-6.09
-4.75
-3.44
-2.30
-1.50
-1.06
-0.76
-0.07
1.68
5.04
10.26
17.06
24.75
32.36
38.92
43.61
45.87
45.51
42.62
37.64
31.26
24.28
17.57
11.92
7.89
5.76
5.52
6.81
9.06
11.59
13.74
14.92
14.65
12.49
7.97
0.68
-9.66
-22.97
-38.67
-55.79
-73.09
-89.31
-103.38
-114.43
-121.71
-124.61
-122.66
-115.75
-104.27
-89.20
-71.87
-53.73
-36.08
-19.83
-5.57
6.30
15.50
21.85
25.38
26.44
25.71
24.02
22.22
20.87
20.20
20.13
20.51
21.34
22.93
25.89
30.88
38.27
47.86
58.76
69.57
78.74
84.88
87.07
84.92
78.59
68.57
55.51
40.20
23.58
6.79
-8.73
-21.39
-29.67
-32.55
-29.91
-22.76
-13.08
-3.41
3.81
6.81
4.84
-1.87
-12.36
-25.37
-39.71
-54.52
-69.34
-83.84
-97.48
-109.08
-116.55
-116.99
-107.23
-84.81
-48.99
-1.50
53.32
109.38
160.07
199.84
225.34
235.78
232.62
218.71
197.42
171.98
145.20
119.36
96.20
76.77
61.31
49.26
39.61
31.30
23.60
16.28
9.52
3.68
-1.03
-4.66
-7.58
-10.36
-13.58
-17.68
-22.74
-28.47
-34.19
-38.97
-42.04
-42.96
-41.89
-39.46
-36.56
-33.82
-31.45
-29.22
-26.79
-24.01
-21.06
-18.34
-16.12
-14.37
-12.73
-10.90
-9.06
-7.99
-8.90
-12.95
-20.69
-31.82
-45.35
-60.02
-74.66
-88.49
-101.01
-111.78
-120.37
-126.36
-129.52
-130.07
-128.64
-126.07
-123.06
-119.79
-115.91
-110.69
-103.51
-94.09
-82.73
-70.17
-57.30
-44.93
-33.56
-23.48
-14.83
-7.64
-1.89
2.57
6.03
8.86
11.41
13.96
16.72
19.80
23.31
27.30
31.77
36.64
41.74
46.86
51.78
56.32
60.31
63.65
66.28
68.22
69.55
70.37
70.67
70.33
69.07
66.51
62.31
56.29
48.40
38.84
27.98
16.40
4.84
-5.90
-15.22
-22.82
-28.86
-33.82
-38.18
-42.16
-45.53
-47.75
-48.26
-46.85
-43.81
-39.89
-35.92
-32.45
-29.58
-26.96
-24.10
-20.62
-16.40
-11.59
-6.41
-0.97
4.75
10.85
17.42
24.35
31.30
37.79
43.33
47.59
50.50
52.31
53.47
54.50
55.74
57.30
59.03
60.62
61.72
62.09
61.52
59.81
56.67
51.83
45.08
36.48
26.39
15.34
3.85
-7.81
-19.63
-31.84
-44.64
-58.09
-71.96
-85.81
-98.97
-110.65
-119.99
-126.18
-128.63
-127.14
-122.06
-114.22
-104.80
-94.93
-85.44
-76.69
-68.63
-60.94
-53.22
-45.12
-36.39
-26.82
-16.30
-4.80
7.48
20.11
32.50
44.10
54.54
63.65
71.44
77.92
83.01
86.59
88.54
88.89
87.85
85.71
82.68
78.85
74.17
68.51
61.90
54.43
46.39
38.04
29.59
21.13
12.64
4.16
-4.24
-12.34
-19.88
-26.62
-32.38
-37.03
-40.39
-42.23
-42.31
-40.56
-37.10
-32.41
-27.11
-21.85
-17.09
-13.06
-9.80
-7.33
-5.63
-4.67
-4.36
-4.61
-5.34
-6.57
-8.30
-10.48
-12.86
-15.04
-16.65
-17.44
-17.43
-16.76
-15.59
-13.93
-11.73
-9.00
-5.93
-2.91
-0.34
1.49
2.55
2.93
2.76
2.04
0.75
-1.10
-3.41
-5.86
-8.12
-9.92
-11.16
-11.93
-12.49
-13.12
-14.09
-15.51
-17.19
-18.61
-19.05
-17.82
-14.60
-9.59
-3.46
3.03
9.29
15.18
20.83
26.41
31.87
36.95
41.35
45.08
48.53
52.33
56.99
62.52
68.31
73.32
76.40
76.62
73.56
67.31
58.36
47.53
35.76
24.04
13.25
4.09
-3.10
-8.32
-11.80
-13.94
-15.06
-15.49
-15.53
-15.53
-15.95
-17.23
-19.70
-23.37
-27.93
-32.73
-37.07
-40.37
-42.39
-43.27
-43.33
-42.96
-42.37
-41.45
-39.81
-36.95
-32.49
-26.39
-19.11
-11.40
-4.14
2.02
6.79
10.33
13.17
15.96
19.21
23.16
27.66
32.28
36.46
39.64
41.33
41.09
38.47
32.89
23.72
10.37
-7.52
-29.96
-56.62
-86.75
-119.13
-151.88
-182.27
-206.77
-221.36
-222.28
-206.91
-174.55
-126.71
-66.86
0.26
69.48
135.92
195.34
244.22
279.88
300.63
306.20
298.03
279.21
253.93
226.35
199.66
175.48
154.08
135.01
117.92
102.90
90.18
79.66
70.53
61.42
51.04
38.89
25.54
12.38
0.87
-8.20
-14.91
-20.00
-24.34
-28.47
-32.50
-36.45
-40.54
-45.48
-52.26
-61.86
-74.82
-91.04
-109.76
-129.74
-149.58
-167.88
-183.47
-195.48
-203.44
-207.28
-207.26
-203.85
-197.48
-188.47
-177.07
-163.57
-148.46
-132.34
-115.62
-98.21
-79.34
-57.76
-32.42
-2.97
29.86
64.48
98.91
131.17
159.36
181.52
195.68
200.16
194.50
180.05
160.06
138.69
119.56
104.38
92.62
82.30
71.39
59.09
46.01
33.55
22.83
13.87
5.69
-2.95
-12.57
-22.52
-31.23
-37.06
-39.28
-38.40
-36.00
-33.92
-33.42
-34.70
-37.02
-39.18
-40.23
-39.81
-38.25
-36.21
-34.33
-32.92
-31.79
-30.53
-28.67
-25.94
-22.45
-18.66
-15.22
-12.60
-10.95
-9.88
-8.74
-6.82
-3.71
0.50
5.35
10.20
14.55
18.11
20.79
22.54
23.26
22.75
20.85
17.61
13.34
8.64
4.21
0.65
-1.65
-2.63
-2.50
-1.59
-0.27
1.28
3.00
4.96
7.22
9.68
12.01
13.68
14.17
13.19
10.84
7.66
4.46
1.99
0.69
0.51
1.05
1.81
2.41
2.78
3.03
3.30
3.58
3.66
3.20
1.96
-0.11
-2.81
-5.79
-8.75
-11.49
-14.01
-16.41
-18.79
-21.14
-23.33
-25.07
-26.11
-26.28
-25.52
-23.94
-21.72
-18.99
-15.92
-12.68
-9.56
-6.95
-5.26
-4.66
-5.01
-5.81
-6.33
-5.95
-4.46
-2.05
0.73
3.24
4.96
5.66
5.37
4.32
2.78
1.03
-0.68
-2.17
-3.28
-3.92
-4.07
-3.77
-3.19
-2.49
-1.80
-1.17
-0.49
0.33
1.38
2.56
3.58
4.08
3.77
2.52
0.42
-2.29
-5.40
-8.68
-12.01
-15.30
-18.51
-21.60
-24.61
-27.54
-30.35
-32.85
-34.69
-35.41
-34.63
-32.25
-28.48
-23.88
-19.15
-14.90
-11.47
-8.79
-6.40
-3.70
-0.17
4.40
9.87
15.80
21.65
27.05
31.84
36.06
39.81
43.03
45.45
46.64
46.25
44.14
40.53
35.88
30.74
25.56
20.59
15.91
11.55
7.65
4.48
2.29
1.17
0.92
1.05
1.01
0.40
-0.83
-2.48
-4.18
-5.62
-6.69
-7.44
-8.01
-8.50
-8.95
-9.33
-9.62
-9.77
-9.71
-9.36
-8.69
-7.70
-6.57
-5.66
-5.39
-6.09
-7.81
-10.28
-12.90
-14.92
-15.64
-14.65
-11.87
-7.62
-2.44
3.08
8.40
13.10
16.97
19.90
21.91
23.13
23.71
23.83
23.62
23.14
22.31
21.05
19.30
17.13
14.72
12.38
10.30
8.54
7.09
5.83
4.68
3.58
2.51
1.30
-0.23
-2.47
-5.86
-10.63
-16.70
-23.67
-30.92
-37.85
-43.93
-48.79
-52.17
-53.83
-53.60
-51.47
-47.69
-42.83
-37.69
-33.01
-29.20
-26.22
-23.48
-20.12
-15.41
-8.89
-0.65
8.75
18.47
27.62
35.56
41.89
46.49
49.27
50.21
49.37
46.87
42.92
37.86
32.06
25.85
19.38
12.72
5.87
-1.12
-8.00
-14.25
-19.20
-22.12
-22.54
-20.38
-16.01
-10.17
-3.78
2.24
7.21
10.72
12.72
13.36
12.97
12.00
10.90
10.10
9.88
10.29
11.13
11.96
12.20
11.35
9.09
5.40
0.63
-4.63
-9.62
-13.60
-16.01
-16.66
-15.72
-13.66
-11.05
-8.31
-5.64
-2.94
-0.05
3.18
6.73
10.38
13.82
16.71
18.77
19.83
19.84
18.95
17.40
15.51
13.59
11.87
10.40
9.15
8.01
6.88
5.78
4.79
4.07
3.83
4.22
5.34
7.22
9.78
12.82
16.05
19.04
21.32
22.34
21.69
19.09
14.44
7.82
-0.57
-10.42
-21.36
-32.87
-44.30
-54.94
-64.11
-71.34
-76.43
-79.38
-80.31
-79.31
-76.34
-71.32
-64.23
-55.23
-44.77
-33.45
-21.88
-10.56
0.28
10.58
20.46
30.06
39.51
48.92
58.33
67.69
76.83
85.50
93.31
99.83
104.58
107.13
107.15
104.48
99.28
92.06
83.74
75.47
68.33
63.02
59.62
57.64
56.17
54.19
50.93
45.89
38.90
29.88
18.75
5.22
-11.20
-31.19
-55.51
-84.71
-118.70
-156.37
-195.38
-232.31
-263.22
-284.45
-293.43
-289.12
-272.07
-244.20
-208.35
-168.01
-126.95
-89.01
-57.64
-35.33
-23.04
-19.74
-22.59
-27.52
-30.30
-27.65
-18.01
-1.67
19.63
43.60
68.23
92.34
115.64
138.35
160.45
181.23
199.07
211.80
217.50
215.17
205.17
189.15
169.53
148.73
128.66
110.45
94.55
80.93
69.29
59.23
50.26
41.89
33.62
25.01
15.71
5.56
-5.36
-16.68
-27.71
-37.69
-45.91
-51.90
-55.48
-56.74
-55.85
-53.01
-48.45
-42.52
-35.78
-28.99
-22.94
-18.28
-15.42
-14.38
-14.92
-16.62
-19.00
-21.64
-24.20
-26.44
-28.21
-29.48
-30.22
-30.44
-30.10
-29.11
-27.41
-25.03
-22.12
-18.97
-15.91
-13.21
-11.08
-9.55
-8.58
-8.03
-7.73
-7.53
-7.30
-6.92
-6.33
-5.51
-4.49
-3.35
-2.17
-1.08
-0.19
0.40
0.60
0.36
-0.34
-1.53
-3.26
-5.53
-8.33
-11.58
-15.08
-18.50
-21.38
-23.23
-23.55
-22.05
-18.70
-13.81
-7.97
-1.94
3.57
8.05
11.25
13.23
14.19
14.45
14.29
13.94
13.56
13.25
13.06
13.01
13.10
13.29
13.60
14.07
14.71
15.49
16.23
16.63
16.38
15.35
13.63
11.59
9.69
8.28
7.51
7.34
7.62
8.23
9.14
10.35
11.81
13.46
15.16
16.81
18.37
19.83
21.12
22.17
22.85
23.07
22.78
22.05
20.95
19.59
17.96
16.01
13.59
10.50
6.59
1.78
-3.86
-10.14
-16.73
-23.25
-29.35
-34.81
-39.69
-44.33
-49.25
-55.04
-62.07
-70.29
-79.32
-88.42
-96.82
-103.86
-109.04
-112.06
-112.78
-111.23
-107.61
-102.35
-96.04
-89.30
-82.61
-76.24
-70.21
-64.36
-58.41
-52.07
-45.06
-37.10
-27.97
-17.50
-5.72
7.13
20.57
33.93
46.53
57.79
67.37
75.27
81.73
87.19
92.12
96.94
101.90
107.06
112.24
117.15
121.38
124.59
126.48
126.85
125.45
121.96
116.06
107.53
96.46
83.38
69.21
54.99
41.59
29.49
18.78
9.27
0.85
-6.36
-12.02
-15.73
-17.40
-17.47
-16.89
-16.80
-18.15
-21.34
-26.17
-32.02
-38.20
-44.19
-49.73
-54.63
-58.70
-61.66
-63.27
-63.54
-62.71
-61.15
-59.20
-56.89
-54.11
-50.72
-46.86
-42.86
-39.23
-36.25
-33.87
-31.62
-28.91
-25.33
-20.89
-16.01
-11.19
-6.82
-2.90
0.82
4.59
8.39
11.82
14.25
15.18
14.45
12.31
9.32
6.04
2.99
0.57
-0.90
-1.10
0.16
2.79
6.36
10.17
13.50
15.83
17.03
17.26
16.88
16.17
15.34
14.60
14.23
14.70
16.56
20.27
25.98
33.51
42.29
51.63
60.78
69.02
75.75
80.41
82.62
82.22
79.35
74.40
67.87
60.14
51.38
41.58
30.64
18.61
5.85
-7.00
-19.16
-29.89
-38.67
-45.31
-49.83
-52.42
-53.31
-52.74
-50.98
-48.34
-45.15
-41.69
-38.17
-34.61
-30.89
-26.82
-22.30
-17.41
-12.37
-7.45
-2.82
1.52
5.67
9.64
13.27
16.14
17.70
17.50
15.29
11.22
5.81
-0.16
-5.78
-10.22
-12.90
-13.59
-12.47
-9.95
-6.51
-2.50
1.87
6.47
11.02
15.07
18.09
19.70
19.81
18.80
17.31
16.02
15.36
15.37
15.77
16.15
16.21
15.89
15.31
14.63
13.88
12.82
11.12
8.44
4.72
0.19
-4.71
-9.45
-13.76
-17.60
-21.19
-24.74
-28.37
-32.06
-35.69
-39.17
-42.38
-45.25
-47.63
-49.26
-49.85
-49.15
-47.18
-44.26
-41.00
-38.14
-36.28
-35.68
-36.15
-37.16
-38.06
-38.27
-37.46
-35.59
-32.73
-28.97
-24.32
-18.71
-12.05
-4.32
4.42
14.11
24.63
35.93
47.90
60.36
72.95
85.12
96.19
105.45
112.26
116.16
116.88
114.44
109.03
100.96
90.66
78.56
65.13
50.94
36.68
23.16
11.26
1.72
-5.02
-9.00
-10.68
-10.90
-10.51
-10.15
-10.04
-9.97
-9.51
-8.24
-6.04
-3.16
-0.10
2.63
4.65
5.81
6.10
5.53
4.06
1.75
-1.16
-4.17
-6.59
-7.83
-7.70
-6.42
-4.57
-2.82
-1.65
-1.27
-1.81
-3.41
-6.43
-11.40
-18.84
-29.03
-41.89
-57.09
-74.11
-92.47
-111.70
-131.31
-150.60
-168.63
-184.36
-196.81
-205.34
-209.61
-209.61
-205.37
-196.86
-184.03
-166.98
-146.25
-122.81
-98.02
-73.28
-49.70
-27.89
-7.94
10.38
27.40
43.35
58.33
72.37
85.49
97.73
109.10
119.49
128.55
135.78
140.55
142.35
140.94
136.46
129.44
120.68
111.03
101.23
91.87
83.34
75.88
69.60
64.49
60.42
57.07
54.04
50.89
47.28
42.97
37.88
32.12
25.84
19.24
12.53
5.81
-0.87
-7.54
-14.19
-20.68
-26.70
-31.83
-35.68
-38.01
-38.93
-38.86
-38.39
-38.16
-38.54
-39.56
-40.87
-41.90
-42.04
-40.90
-38.45
-34.97
-30.92
-26.79
-22.86
-19.20
-15.71
-12.18
-8.46
-4.45
-0.05
4.81
10.14
15.84
21.60
27.04
31.72
35.36
37.89
39.43
40.19
40.37
40.16
39.75
39.37
39.20
39.28
39.34
38.96
37.64
35.14
31.59
27.49
23.45
19.98
17.30
15.41
14.27
13.83
14.06
14.78
15.50
15.53
14.22
11.36
7.39
3.32
0.31
-0.81
0.05
2.25
4.74
6.50
6.93
5.95
3.85
1.05
-2.15
-5.62
-9.30
-13.12
-16.85
-20.19
-22.83
-24.56
-25.35
-25.32
-24.69
-23.64
-22.34
-20.80
-18.97
-16.80
-14.33
-11.77
-9.43
-7.67
-6.68
-6.44
-6.67
-6.97
-7.05
-6.91
-6.84
-7.33
-8.79
-11.33
-14.70
-18.34
-21.57
-23.84
-24.93
-24.99
-24.40
-23.65
-23.13
-23.02
-23.25
-23.49
-23.30
-22.26
-20.07
-16.70
-12.39
-7.55
-2.72
1.65
5.28
8.06
10.09
11.57
12.79
14.05
15.62
17.65
20.13
22.86
25.51
27.75
29.31
30.09
30.18
29.75
28.98
28.02
26.91
25.66
24.26
22.72
21.03
19.22
17.25
15.05
12.57
9.87
7.11
4.54
2.35
0.57
-0.92
-2.29
-3.61
-4.78
-5.47
-5.48
-4.84
-3.97
-3.54
-4.19
-6.22
-9.44
-13.33
-17.27
-20.88
-24.10
-27.11
-30.13
-33.17
-36.08
-38.53
-40.27
-41.17
-41.11
-39.98
-37.63
-33.95
-29.03
-23.27
-17.31
-11.83
-7.36
-4.00
-1.50
0.64
2.82
5.34
8.18
11.20
14.17
16.94
19.46
21.68
23.60
25.16
26.28
26.94
27.18
27.11
26.85
26.47
25.95
25.26
24.45
23.75
23.48
23.94
25.19
27.01
28.97
30.50
31.20
30.84
29.41
26.96
23.62
19.52
14.88
10.02
5.35
1.24
-2.15
-4.88
-7.24
-9.53
-11.92
-14.41
-16.75
-18.63
-19.83
-20.34
-20.33
-20.10
-19.92
-19.98
-20.32
-20.92
-21.67
-22.40
-22.85
-22.74
-21.81
-19.95
-17.28
-14.12
-10.93
-8.10
-5.89
-4.31
-3.23
-2.44
-1.80
-1.21
-0.62
0.01
0.77
1.77
3.09
4.79
6.80
8.98
11.14
13.12
14.81
16.27
17.64
19.18
21.16
23.66
26.52
29.28
31.33
32.13
31.48
29.58
27.00
24.36
22.18
20.56
19.31
18.05
16.44
14.34
11.84
9.22
6.77
4.64
2.74
0.86
-1.28
-3.74
-6.37
-8.85
-10.88
-12.31
-13.26
-14.02
-14.90
-16.10
-17.61
-19.33
-21.11
-22.90
-24.63
-26.15
-27.12
-27.11
-25.74
-22.87
-18.77
-13.93
-9.01
-4.54
-0.84
2.01
4.13
5.61
6.50
6.79
6.43
5.36
3.57
1.16
-1.68
-4.70
-7.63
-10.22
-12.24
-13.53
-13.94
-13.46
-12.22
-10.52
-8.72
-7.23
-6.41
-6.50
-7.70
-10.02
-13.52
-18.17
-23.87
-30.25
-36.76
-42.67
-47.10
-49.24
-48.44
-44.39
-37.17
-27.29
-15.54
-2.95
9.36
20.29
28.90
34.56
37.13
37.09
35.36
33.03
30.99
29.67
28.96
28.32
27.21
25.21
22.18
18.20
13.35
7.85
2.07
-3.50
-8.27
-11.74
-13.59
-13.81
-12.57
-10.20
-7.03
-3.37
0.41
3.88
6.66
8.45
9.22
9.14
8.59
8.00
7.72
7.89
8.44
9.15
9.79
10.22
10.49
10.76
11.18
11.80
12.42
12.72
12.37
11.18
9.26
6.95
4.68
2.84
1.58
0.74
-0.03
-1.13
-2.84
-5.20
-8.04
-11.04
-13.93
-16.55
-18.85
-20.81
-22.34
-23.28
-23.47
-22.91
-21.77
-20.38
-19.11
-18.17
-17.57
-17.12
-16.55
-15.55
-13.91
-11.43
-8.02
-3.71
1.31
6.64
11.76
16.10
19.28
21.17
21.87
21.71
21.05
20.17
19.32
18.62
18.13
17.82
17.57
17.16
16.35
14.92
12.82
10.16
7.12
3.90
0.53
-3.13
-7.33
-12.33
-18.22
-24.86
-31.98
-39.19
-46.05
-52.06
-56.66
-59.19
-58.93
-55.24
-47.69
-36.28
-21.51
-4.48
13.28
29.96
43.79
53.39
58.01
57.60
52.80
44.68
34.57
23.79
13.48
4.50
-2.67
-7.98
-11.69
-14.19
-15.84
-16.76
-16.85
-15.96
-13.98
-11.06
-7.64
-4.31
-1.69
-0.20
0.05
-0.75
-2.17
-3.73
-5.02
-5.87
-6.35
-6.63
-6.91
-7.25
-7.57
-7.70
-7.45
-6.78
-5.77
-4.57
-3.32
-2.10
-0.90
0.34
1.62
2.92
4.24
5.65
7.29
9.38
12.02
15.13
18.32
21.02
22.62
22.74
21.44
19.15
16.55
14.28
12.69
11.76
11.22
10.73
10.03
9.07
7.92
6.67
5.30
3.70
1.65
-1.04
-4.40
-8.25
-12.19
-15.69
-18.16
-19.22
-18.70
-16.76
-13.79
-10.31
-6.80
-3.62
-1.01
0.89
1.98
2.13
1.28
-0.54
-3.08
-5.95
-8.56
-10.45
-11.30
-11.08
-10.10
-8.76
-7.48
-6.45
-5.59
-4.58
-3.05
-0.75
2.33
5.89
9.41
12.33
14.24
14.93
14.48
13.02
10.77
7.86
4.40
0.46
-3.82
-8.22
-12.49
-16.31
-19.52
-22.02
-23.83
-25.01
-25.68
-26.10
-26.68
-27.93
-30.25
-33.94
-38.93
-44.77
-50.68
-55.69
-59.01
-60.04
-58.57
-54.63
-48.43
-40.27
-30.47
-19.46
-7.72
4.11
15.32
25.21
33.24
39.13
42.97
45.11
45.97
46.04
45.60
44.83
43.75
42.41
40.94
39.54
38.37
37.35
36.30
34.97
33.19
30.91
28.27
25.50
22.81
20.33
18.04
15.89
13.77
11.63
9.42
7.13
4.79
2.38
-0.15
-2.96
-6.20
-10.02
-14.35
-18.84
-22.86
-25.66
-26.64
-25.53
-22.49
-18.00
-12.69
-7.14
-1.84
2.84
6.66
9.45
11.21
12.04
12.19
11.95
11.60
11.30
11.09
10.93
10.73
10.47
10.10
9.57
8.76
7.46
5.48
2.72
-0.64
-4.25
-7.61
-10.30
-12.09
-13.02
-13.32
-13.22
-12.88
-12.32
-11.46
-10.25
-8.72
-7.03
-5.42
-4.13
-3.26
-2.78
-2.57
-2.55
-2.71
-3.13
-3.87
-4.81
-5.65
-5.96
-5.38
-3.88
-1.77
0.37
1.92
2.48
2.05
0.96
-0.32
-1.35
-1.90
-1.95
-1.65
-1.12
-0.46
0.38
1.40
2.57
3.70
4.54
4.87
4.62
3.89
2.85
1.70
0.56
-0.53
-1.57
-2.55
-3.41
-4.06
-4.43
-4.55
-4.54
-4.57
-4.78
-5.25
-5.89
-6.45
-6.59
-5.94
-4.26
-1.45
2.30
6.58
10.84
14.44
16.84
17.63
16.66
14.11
10.47
6.43
2.75
-0.00
-1.60
-2.27
-2.50
-2.86
-3.78
-5.34
-7.33
-9.39
-11.13
-12.28
-12.76
-12.57
-11.74
-10.19
-7.72
-4.16
0.53
6.23
12.57
19.15
25.61
31.71
37.35
42.38
46.59
49.65
51.26
51.30
49.90
47.42
44.28
40.78
37.00
32.88
28.33
23.33
18.05
12.73
7.63
2.92
-1.42
-5.48
-9.35
-13.03
-16.39
-19.19
-21.22
-22.38
-22.70
-22.34
-21.52
-20.49
-19.56
-19.10
-19.40
-20.61
-22.57
-24.81
-26.67
-27.56
-27.16
-25.50
-22.95
-20.03
-17.23
-14.91
-13.26
-12.33
-11.98
-11.99
-12.08
-11.99
-11.61
-10.95
-10.13
-9.22
-8.22
-7.05
-5.60
-3.81
-1.69
0.77
3.58
6.80
10.45
14.40
18.36
21.94
24.79
26.75
27.91
28.47
28.66
28.55
28.02
26.87
24.91
22.12
18.69
14.98
11.36
8.16
5.50
3.37
1.60
0.04
-1.45
-2.99
-4.66
-6.54
-8.73
-11.19
-13.85
-16.62
-19.44
-22.40
-25.64
-29.19
-32.78
-35.83
-37.51
-37.08
-34.19
-29.09
-22.49
-15.31
-8.39
-2.29
2.74
6.70
9.61
11.51
12.44
12.48
11.75
10.43
8.74
6.90
5.12
3.57
2.39
1.67
1.42
1.62
2.20
3.12
4.29
5.58
6.85
7.89
8.53
8.63
8.15
7.06
5.38
3.17
0.52
-2.41
-5.39
-8.12
-10.37
-12.00
-13.01
-13.52
-13.73
-13.83
-13.88
-13.90
-13.86
-13.74
-13.55
-13.30
-12.95
-12.43
-11.67
-10.67
-9.58
-8.77
-8.69
-9.81
-12.40
-16.36
-21.16
-25.90
-29.49
-31.02
-30.03
-26.65
-21.60
-15.81
-10.19
-5.32
-1.35
1.81
4.39
6.61
8.60
10.46
12.28
14.15
16.12
18.23
20.45
22.71
24.84
26.67
28.06
28.96
29.51
30.01
30.74
31.84
33.13
34.15
34.39
33.54
31.67
29.15
26.47
24.00
21.79
19.68
17.46
15.11
12.88
11.15
10.23
10.25
11.06
12.41
14.05
15.84
17.62
19.15
19.99
19.62
17.64
13.87
8.48
1.80
-5.90
-14.56
-24.28
-35.13
-46.83
-58.50
-68.72
-75.75
-77.94
-74.23
-64.43
-49.34
-30.56
-10.12
9.90
27.73
42.15
52.51
58.69
61.00
60.03
56.50
51.10
44.26
36.13
26.66
15.67
3.18
-10.52
-24.84
-38.92
-51.82
-62.69
-70.82
-75.76
-77.34
-75.72
-71.43
-65.22
-57.92
-50.27
-42.76
-35.58
-28.77
-22.35
-16.43
-11.24
-6.99
-3.77
-1.40
0.44
2.14
3.95
5.88
7.79
9.41
10.47
10.69
9.80
7.56
3.88
-0.96
-6.34
-11.35
-15.25
-17.67
-18.74
-18.82
-18.03
-15.98
-11.89
-5.03
4.72
16.45
28.55
39.25
47.16
51.73
53.13
52.02
49.12
45.10
40.43
35.48
30.50
25.58
20.72
15.97
11.60
8.15
6.23
6.31
8.50
12.45
17.53
23.14
28.90
34.65
40.28
45.54
49.95
52.94
54.13
53.43
51.15
47.73
43.60
38.95
33.80
28.10
21.93
15.59
9.47
3.98
-0.60
-4.13
-6.60
-8.05
-8.58
-8.37
-7.79
-7.35
-7.66
-9.30
-12.68
-17.87
-24.59
-32.15
-39.69
-46.26
-51.06
-53.52
-53.38
-50.67
-45.72
-39.14
-31.74
-24.53
-18.37
-13.87
-11.12
-9.77
-9.19
-8.75
-8.13
-7.31
-6.43
-5.59
-4.73
-3.61
-2.00
0.17
2.78
5.57
8.33
10.98
13.57
16.13
18.59
20.69
22.07
22.36
21.35
19.00
15.45
10.93
5.76
0.27
-5.13
-10.11
-14.41
-17.92
-20.67
-22.76
-24.34
-25.55
-26.48
-27.23
-27.75
-27.76
-26.68
-23.79
-18.48
-10.65
-0.87
9.74
19.84
28.23
34.23
37.70
38.91
38.33
36.56
34.18
31.83
30.03
29.11
29.09
29.68
30.34
30.54
29.84
28.02
25.12
21.34
16.98
12.35
7.74
3.34
-0.70
-4.30
-7.44
-10.09
-12.26
-13.98
-15.31
-16.45
-17.61
-18.97
-20.57
-22.30
-23.89
-25.07
-25.70
-25.84
-25.81
-26.05
-26.90
-28.47
-30.48
-32.27
-32.98
-31.81
-28.32
-22.68
-15.61
-8.21
-1.58
3.47
6.57
7.81
7.54
6.30
4.64
3.12
2.20
2.20
3.15
4.87
7.01
9.13
10.92
12.17
12.80
12.80
12.22
11.18
9.84
8.38
6.94
5.56
4.20
2.81
1.41
0.14
-0.83
-1.33
-1.30
-0.81
-0.03
0.82
1.57
2.06
2.23
2.06
1.55
0.68
-0.63
-2.47
-4.95
-7.93
-11.00
-13.43
-14.30
-12.87
-8.88
-2.76
4.42
11.32
16.78
20.18
21.55
21.47
20.63
19.56
18.40
16.97
15.01
12.38
9.20
5.82
2.60
-0.20
-2.44
-4.15
-5.33
-6.07
-6.52
-6.99
-7.79
-9.06
-10.53
-11.44
-10.75
-7.65
-2.16
4.72
11.24
15.52
16.33
13.50
7.86
0.77
-6.43
-12.85
-18.09
-22.12
-25.13
-27.34
-29.12
-30.89
-33.07
-35.97
-39.51
-43.33
-46.80
-49.29
-50.32
-49.67
-47.38
-43.74
-39.10
-33.77
-27.86
-21.23
-13.53
-4.44
6.07
17.54
29.07
39.55
48.05
54.02
57.46
58.72
58.35
56.86
54.64
51.95
48.96
45.79
42.53
39.22
35.86
32.52
29.24
26.11
23.21
20.57
18.19
16.01
13.88
11.60
8.96
5.81
2.13
-2.01
-6.40
-10.82
-14.97
-18.62
-21.61
-23.79
-25.15
-25.71
-25.54
-24.69
-23.16
-20.91
-17.89
-14.13
-9.74
-5.01
-0.31
3.99
7.63
10.52
12.69
14.20
15.10
15.30
14.62
12.91
10.08
6.22
1.56
-3.48
-8.37
-12.46
-15.09
-15.73
-14.14
-10.51
-5.42
0.28
5.87
10.93
15.49
19.94
24.78
30.50
37.43
45.79
55.75
67.31
80.20
93.65
106.32
116.51
122.57
123.37
118.61
108.87
95.24
78.97
61.12
42.48
23.73
5.55
-11.28
-26.02
-38.13
-47.55
-54.60
-59.83
-63.78
-66.72
-68.71
-69.69
-69.72
-69.01
-67.89
-66.65
-65.42
-64.10
-62.44
-60.22
-57.37
-54.03
-50.47
-46.99
-43.85
-41.17
-39.01
-37.37
-36.23
-35.63
-35.57
-36.10
-37.19
-38.74
-40.42
-41.69
-41.86
-40.26
-36.48
-30.56
-23.09
-15.03
-7.47
-1.28
3.16
5.94
7.48
8.31
8.81
9.12
9.25
9.20
9.10
9.21
9.82
11.12
13.06
15.41
17.85
20.06
21.93
23.44
24.64
25.56
26.16
26.43
26.39
26.23
26.18
26.50
27.34
28.75
30.73
33.21
36.20
39.63
43.34
47.00
50.14
52.23
52.85
51.80
49.16
45.22
40.27
34.54
28.10
20.84
12.66
3.49
-6.54
-17.19
-28.01
-38.41
-47.77
-55.50
-61.19
-64.61
-65.72
-64.59
-61.34
-56.04
-48.87
-40.22
-30.86
-21.87
-14.38
-9.25
-6.81
-6.78
-8.52
-11.19
-14.03
-16.39
-17.80
-17.86
-16.37
-13.31
-8.87
-3.46
2.50
8.67
14.86
21.00
27.04
32.92
38.49
43.65
48.32
52.47
56.02
58.75
60.28
60.12
57.90
53.48
47.15
39.46
30.99
22.03
12.49
1.91
-10.19
-24.04
-39.50
-56.10
-73.31
-90.70
-107.96
-124.74
-140.56
-154.70
-166.39
-174.97
-180.01
-181.29
-178.71
-172.21
-161.74
-147.47
-129.86
-109.83
-88.60
-67.49
-47.61
-29.69
-13.97
-0.25
11.86
22.71
32.44
40.91
47.77
52.71
55.70
57.02
57.25
57.03
56.88
57.06
57.57
58.22
58.76
58.95
58.58
57.51
55.65
53.06
49.86
46.39
43.05
40.32
38.57
38.03
38.73
40.58
43.37
46.85
50.77
54.80
58.53
61.46
62.96
62.48
59.62
54.26
46.61
37.12
26.36
14.87
3.15
-8.45
-19.65
-30.17
-39.73
-48.01
-54.67
-59.44
-62.19
-62.99
-62.13
-59.97
-56.87
-53.13
-49.00
-44.81
-41.02
-38.16
-36.60
-36.43
-37.18
-38.02
-37.98
-36.37
-32.98
-28.13
-22.48
-16.69
-11.26
-6.33
-1.79
2.57
6.87
11.08
15.03
18.52
21.47
23.97
26.29
28.67
31.27
34.09
36.97
39.72
42.16
44.19
45.74
46.79
47.26
47.02
45.96
43.95
40.96
37.08
32.52
27.62
22.75
18.19
14.06
10.31
6.84
3.58
0.57
-2.03
-4.15
-5.80
-7.18
-8.52
-10.03
-11.79
-13.69
-15.59
-17.32
-18.76
-19.82
-20.49
-20.82
-20.99
-21.25
-21.80
-22.76
-23.99
-25.14
-25.68
-25.13
-23.18
-19.87
-15.55
-10.81
-6.26
-2.36
0.65
2.86
4.47
5.83
7.24
9.03
11.47
14.78
19.12
24.48
30.74
37.62
44.78
51.81
58.20
63.36
66.65
67.55
65.76
61.34
54.71
46.49
37.35
27.86
18.43
9.36
0.84
-6.94
-13.85
-19.78
-24.71
-28.64
-31.56
-33.41
-34.14
-33.66
-31.91
-28.85
-24.52
-18.99
-12.44
-5.17
2.42
9.87
16.73
22.61
27.21
30.34
31.77
31.32
28.89
24.60
18.90
12.61
6.64
1.73
-1.79
-4.14
-5.90
-7.80
-10.31
-13.56
-17.17
-20.60
-23.20
-24.51
-24.30
-22.62
-19.68
-15.73
-11.04
-5.83
-0.36
5.08
10.18
14.64
18.28
21.03
22.88
23.78
23.57
22.03
18.95
14.37
8.56
2.07
-4.47
-10.46
-15.45
-19.16
-21.46
-22.29
-21.71
-19.85
-17.00
-13.56
-9.91
-6.32
-2.92
0.38
3.71
7.25
11.09
15.22
19.46
23.56
27.10
29.57
30.50
29.51
26.61
22.13
16.81
11.46
6.75
2.93
-0.17
-3.08
-6.40
-10.54
-15.63
-21.56
-28.09
-34.87
-41.61
-47.86
-53.09
-56.67
-58.05
-56.87
-53.11
-47.05
-39.18
-30.14
-20.56
-10.99
-1.94
6.20
13.07
18.39
22.00
23.84
23.99
22.73
20.56
18.14
16.18
15.32
15.92
17.99
21.18
24.89
28.44
31.21
32.73
32.67
30.80
26.97
21.07
13.02
2.80
-9.47
-23.49
-38.75
-54.44
-69.44
-82.43
-92.00
-96.91
-96.26
-89.74
-77.70
-61.20
-41.87
-21.57
-2.15
14.94
28.78
38.94
45.44
48.52
48.58
46.14
41.88
36.61
31.18
26.40
22.87
20.97
20.81
22.28
25.15
29.10
33.73
38.65
43.38
47.38
50.15
51.22
50.26
47.20
42.20
35.69
28.25
20.57
13.29
6.96
1.91
-1.72
-3.93
-4.83
-4.54
-3.16
-0.83
2.21
5.61
8.87
11.40
12.65
12.22
9.92
5.95
0.83
-4.63
-9.58
-13.35
-15.61
-16.47
-16.35
-15.81
-15.42
-15.57
-16.44
-18.03
-20.14
-22.36
-24.11
-24.80
-23.91
-21.25
-17.02
-11.79
-6.32
-1.27
2.98
6.41
9.32
12.18
15.39
19.14
23.31
27.49
31.04
33.34
33.92
32.73
30.11
26.71
23.23
20.25
18.00
16.42
15.18
13.80
11.81
8.79
4.46
-1.30
-8.41
-16.62
-25.57
-34.74
-43.52
-51.24
-57.22
-60.91
-61.99
-60.48
-56.65
-50.92
-43.72
-35.35
-26.04
-16.00
-5.45
5.35
16.15
26.69
36.61
45.52
52.83
57.97
60.45
60.05
56.91
51.48
44.35
36.17
27.59
19.16
11.42
4.78
-0.54
-4.59
-7.72
-10.40
-13.13
-16.25
-19.93
-24.14
-28.80
-33.78
-38.84
-43.65
-47.72
-50.54
-51.71
-51.11
-48.97
-45.82
-42.23
-38.62
-35.08
-31.39
-27.17
-22.14
-16.22
-9.71
-3.13
2.92
8.00
11.97
15.01
17.45
19.70
21.96
24.27
26.52
28.56
30.32
31.75
32.88
33.64
33.95
33.76
33.08
32.06
30.94
29.94
29.17
28.59
28.01
27.16
25.86
23.99
21.60
18.84
15.90
12.90
9.82
6.56
2.91
-1.23
-5.83
-10.68
-15.42
-19.64
-23.00
-25.33
-26.70
-27.47
-28.18
-29.39
-31.52
-34.67
-38.61
-42.80
-46.55
-49.19
-50.20
-49.36
-46.70
-42.48
-37.12
-31.07
-24.68
-18.15
-11.58
-5.04
1.38
7.47
13.04
17.92
22.11
25.68
28.72
31.28
33.29
34.67
35.39
35.56
35.37
35.08
34.87
34.79
34.76
34.57
34.02
32.88
31.02
28.34
24.87
20.69
15.91
10.69
5.20
-0.28
-5.36
-9.55
-12.35
-13.40
-12.66
-10.44
-7.38
-4.16
-1.43
0.51
1.66
2.25
2.60
2.91
3.15
3.18
2.77
1.80
0.30
-1.53
-3.40
-5.04
-6.30
-7.16
-7.70
-8.07
-8.38
-8.69
-9.01
-9.29
-9.52
-9.74
-10.06
-10.66
-11.67
-13.12
-14.88
-16.72
-18.33
-19.49
-20.12
-20.21
-19.86
-19.17
-18.25
-17.30
-16.55
-16.29
-16.70
-17.72
-18.96
-19.82
-19.67
-18.16
-15.33
-11.61
-7.57
-3.72
-0.31
2.61
5.08
7.10
8.54
9.19
8.87
7.53
5.34
2.62
-0.20
-2.70
-4.45
-5.16
-4.67
-2.89
0.16
4.39
9.66
15.68
21.97
27.88
32.64
35.52
36.04
34.14
30.13
24.65
18.49
12.39
6.94
2.50
-0.70
-2.61
-3.25
-2.76
-1.38
0.55
2.63
4.38
5.33
5.11
3.53
0.60
-3.45
-8.22
-13.30
-18.28
-22.89
-26.96
-30.38
-33.03
-34.72
-35.21
-34.32
-31.99
-28.37
-23.88
-19.08
-14.58
-10.84
-8.04
-6.05
-4.59
-3.44
-2.55
-2.12
-2.45
-3.75
-6.03
-9.09
-12.54
-16.01
-19.13
-21.53
-22.79
-22.48
-20.24
-15.93
-9.66
-1.87
6.86
15.86
24.50
32.17
38.42
42.96
45.78
47.12
47.34
46.79
45.58
43.58
40.51
36.12
30.41
23.72
16.62
9.82
3.97
-0.53
-3.54
-5.19
-5.73
-5.41
-4.37
-2.64
-0.27
2.63
5.75
8.74
11.22
12.89
13.59
13.26
11.98
9.94
7.49
4.98
2.66
0.53
-1.72
-4.53
-8.23
-12.81
-17.94
-23.08
-27.71
-31.55
-34.49
-36.52
-37.65
-37.79
-36.85
-34.81
-31.74
-27.75
-22.94
-17.45
-11.43
-5.17
0.99
6.72
11.80
16.19
19.99
23.36
26.38
29.09
31.38
33.08
34.01
33.98
32.82
30.40
26.70
21.75
15.78
9.10
2.09
-4.82
-11.36
-17.34
-22.73
-27.55
-31.77
-35.20
-37.45
-38.05
-36.57
-32.81
-26.88
-19.29
-10.77
-2.20
5.57
11.86
16.20
18.43
18.62
17.16
14.61
11.63
8.81
6.61
5.28
4.82
5.12
5.96
7.08
8.20
8.97
9.10
8.41
6.93
4.90
2.75
0.86
-0.51
-1.29
-1.61
-1.64
-1.53
-1.41
-1.42
-1.73
-2.49
-3.75
-5.34
-6.94
-8.11
-8.52
-7.97
-6.39
-3.78
-0.13
4.58
10.28
16.70
23.37
29.64
34.90
38.69
40.83
41.38
40.57
38.68
35.96
32.57
28.53
23.78
18.21
11.86
4.87
-2.40
-9.52
-15.98
-21.35
-25.29
-27.57
-28.12
-27.02
-24.63
-21.46
-18.09
-15.04
-12.62
-10.93
-9.93
-9.62
-10.09
-11.52
-13.97
-17.34
-21.24
-25.12
-28.49
-30.95
-32.32
-32.49
-31.33
-28.63
-24.25
-18.26
-11.04
-3.27
4.27
10.83
15.83
18.93
19.96
18.93
16.07
11.89
7.14
2.73
-0.60
-2.43
-2.74
-1.90
-0.47
0.93
1.74
1.50
-0.04
-3.13
-7.82
-13.90
-20.87
-27.82
-33.63
-37.14
-37.51
-34.36
-27.88
-18.79
-7.98
3.53
14.80
24.92
33.00
38.29
40.34
39.21
35.48
30.20
24.46
19.18
14.91
11.76
9.62
8.25
7.43
6.92
6.53
5.97
5.11
3.90
2.39
0.65
-1.28
-3.30
-5.28
-6.98
-8.15
-8.59
-8.26
-7.30
-5.87
-4.19
-2.42
-0.76
0.55
1.20
0.99
-0.13
-1.89
-3.84
-5.43
-6.29
-6.43
-6.22
-6.24
-7.09
-9.13
-12.45
-16.79
-21.74
-26.79
-31.51
-35.61
-38.94
-41.50
-43.33
-44.49
-44.99
-44.76
-43.65
-41.47
-38.07
-33.31
-27.19
-19.84
-11.54
-2.79
5.78
13.51
19.83
24.42
27.23
28.49
28.60
28.04
27.16
26.25
25.47
24.89
24.52
24.27
23.95
23.33
22.19
20.41
18.04
15.29
12.41
9.66
7.22
5.21
3.67
2.65
2.26
2.58
3.75
5.83
8.81
12.47
16.44
20.22
23.28
25.21
25.77
24.98
23.00
20.16
16.79
13.23
9.81
6.83
4.51
2.89
1.88
1.17
0.37
-0.92
-2.98
-5.97
-9.87
-14.50
-19.53
-24.46
-28.62
-31.30
-31.90
-30.14
-26.23
-20.84
-14.85
-9.07
-3.96
0.46
4.43
8.24
11.92
15.19
17.54
18.45
17.61
15.04
11.05
6.12
0.72
-4.86
-10.49
-16.13
-21.68
-26.76
-30.78
-33.03
-32.96
-30.47
-25.99
-20.43
-14.85
-10.18
-6.97
-5.40
-5.32
-6.45
-8.42
-10.85
-13.38
-15.66
-17.40
-18.45
-18.79
-18.43
-17.41
-15.73
-13.40
-10.50
-7.23
-3.80
-0.43
2.76
5.69
8.27
10.35
11.69
12.10
11.60
10.49
9.29
8.58
8.77
9.91
11.75
13.81
15.61
16.81
17.29
17.07
16.24
14.86
12.90
10.34
7.22
3.79
0.55
-1.81
-2.64
-1.52
1.52
5.93
10.86
15.40
18.87
21.01
21.92
21.93
21.41
20.62
19.71
18.73
17.70
16.64
15.55
14.35
12.88
10.96
8.43
5.32
1.90
-1.41
-4.14
-5.87
-6.44
-5.89
-4.43
-2.38
-0.04
2.39
4.77
7.09
9.33
11.46
13.41
15.10
16.39
17.13
17.16
16.29
14.42
11.56
7.97
4.15
0.74
-1.71
-2.93
-3.13
-2.93
-3.07
-4.15
-6.39
-9.53
-12.99
-16.12
-18.41
-19.68
-20.06
-19.83
-19.24
-18.39
-17.16
-15.34
-12.73
-9.27
-5.13
-0.63
3.92
8.25
12.29
16.14
19.97
23.97
28.14
32.31
36.04
38.78
39.96
39.15
36.16
31.07
24.13
15.75
6.42
-3.31
-12.79
-21.37
-28.43
-33.43
-36.08
-36.29
-34.21
-30.24
-24.89
-18.78
-12.50
-6.52
-1.14
3.51
7.44
10.78
13.60
15.97
17.78
18.80
18.71
17.24
14.23
9.88
4.66
-0.79
-5.89
-10.27
-13.87
-16.85
-19.40
-21.62
-23.36
-24.33
-24.21
-22.76
-20.04
-16.32
-12.04
-7.62
-3.38
0.53
4.08
7.25
10.03
12.38
14.30
15.88
17.25
18.55
19.79
20.85
21.48
21.41
20.46
18.60
15.94
12.71
9.16
5.47
1.73
-2.01
-5.67
-9.07
-11.93
-14.02
-15.23
-15.64
-15.45
-14.85
-13.98
-12.84
-11.42
-9.75
-7.96
-6.26
-4.88
-3.98
-3.66
-3.93
-4.68
-5.74
-6.81
-7.52
-7.52
-6.57
-4.63
-1.85
1.41
4.75
7.69
9.84
10.92
10.82
9.61
7.48
4.63
1.21
-2.67
-6.91
-11.32
-15.55
-19.15
-21.60
-22.55
-21.86
-19.58
-15.96
-11.38
-6.27
-1.15
3.45
7.09
9.44
10.41
10.10
8.80
6.88
4.72
2.65
0.92
-0.29
-0.95
-1.10
-0.87
-0.41
0.16
0.82
1.51
2.09
2.35
1.96
0.68
-1.57
-4.59
-8.00
-11.35
-14.30
-16.73
-18.66
-20.28
-21.72
-23.02
-24.03
-24.44
-23.89
-22.08
-18.93
-14.67
-9.84
-5.13
-1.13
1.73
3.34
3.83
3.35
2.10
0.25
-2.02
-4.38
-6.47
-7.98
-8.77
-8.92
-8.63
-8.12
-7.46
-6.50
-5.01
-2.80
0.17
3.70
7.44
11.02
14.14
16.62
18.40
19.51
19.95
19.71
18.75
17.04
14.64
11.68
8.38
5.02
1.84
-0.91
-3.04
-4.43
-5.04
-4.99
-4.52
-4.02
-3.87
-4.43
-5.88
-8.23
-11.33
-14.90
-18.61
-22.07
-24.85
-26.43
-26.30
-24.05
-19.55
-13.02
-5.11
3.29
11.24
18.04
23.38
27.27
29.96
31.72
32.76
33.20
33.20
32.93
32.64
32.54
32.74
33.10
33.25
32.70
30.99
27.96
23.80
19.02
14.26
9.96
6.26
2.91
-0.47
-4.20
-8.37
-12.78
-17.08
-20.90
-24.00
-26.24
-27.66
-28.36
-28.53
-28.47
-28.52
-29.00
-30.08
-31.66
-33.45
-35.00
-35.92
-35.99
-35.25
-33.92
-32.39
-31.04
-30.21
-30.11
-30.71
-31.69
-32.44
-32.23
-30.38
-26.61
-21.10
-14.45
-7.55
-1.26
3.81
7.40
9.56
10.55
10.71
10.36
9.79
9.21
8.82
8.81
9.38
10.67
12.77
15.57
18.80
22.12
25.19
27.77
29.77
31.12
31.78
31.64
30.57
28.57
25.81
22.69
19.75
17.50
16.28
16.08
16.63
17.51
18.35
18.94
19.24
19.23
18.84
17.80
15.77
12.46
7.78
1.91
-4.80
-11.97
-19.24
-26.23
-32.49
-37.36
-39.98
-39.63
-35.96
-29.27
-20.49
-11.01
-2.17
5.02
10.18
13.45
15.31
16.31
16.85
17.22
17.60
18.22
19.30
21.08
23.66
26.99
30.85
34.97
39.10
43.09
46.84
50.26
53.25
55.60
57.05
57.38
56.46
54.30
51.07
47.07
42.66
38.19
33.91
29.91
26.07
22.14
17.83
12.96
7.54
1.81
-3.87
-9.12
-13.78
-17.89
-21.76
-25.74
-30.18
-35.20
-40.64
-46.07
-50.81
-54.17
-55.62
-54.89
-52.06
-47.48
-41.66
-35.22
-28.69
-22.58
-17.27
-12.98
-9.74
-7.42
-5.71
-4.33
-3.06
-1.83
-0.71
0.16
0.69
0.77
0.34
-0.63
-2.14
-4.12
-6.40
-8.77
-11.00
-12.93
-14.57
-16.01
-17.34
-18.54
-19.44
-19.84
-19.63
-18.95
-18.15
-17.75
-18.20
-19.72
-22.22
-25.36
-28.73
-31.95
-34.75
-37.03
-38.79
-40.13
-41.17
-42.03
-42.74
-43.12
-42.65
-40.59
-36.12
-28.72
-18.41
-5.95
7.39
20.10
30.91
39.02
44.23
46.75
47.08
45.78
43.47
40.73
38.08
35.90
34.44
33.74
33.76
34.39
35.50
36.86
38.19
39.16
39.47
38.97
37.65
35.64
33.09
30.13
26.86
23.49
20.36
17.94
16.63
16.59
17.68
19.49
21.57
23.47
24.95
25.76
25.67
24.38
21.60
17.19
11.20
3.91
-4.38
-13.34
-22.73
-32.24
-41.36
-49.35
-55.24
-58.11
-57.30
-52.71
-44.86
-34.82
-23.96
-13.72
-5.35
0.34
3.03
2.90
0.49
-3.39
-7.92
-12.31
-15.92
-18.31
-19.21
-18.54
-16.42
-13.13
-9.03
-4.49
0.16
4.65
8.69
12.04
14.43
15.71
15.92
15.32
14.26
13.08
12.01
11.08
10.21
9.28
8.22
7.02
5.69
4.22
2.51
0.47
-1.89
-4.53
-7.29
-10.01
-12.57
-14.75
-16.27
-16.68
-15.48
-12.28
-7.05
-0.27
7.17
14.10
19.41
22.31
22.53
20.25
16.00
10.49
4.46
-1.37
-6.41
-10.10
-12.00
-11.80
-9.44
-5.10
0.72
7.42
14.38
21.13
27.37
32.94
37.69
41.41
43.82
44.65
43.73
41.07
36.87
31.45
25.19
18.46
11.57
4.70
-2.07
-8.70
-15.23
-21.72
-28.22
-34.77
-41.31
-47.53
-52.84
-56.38
-57.22
-54.72
-48.81
-40.10
-29.71
-18.92
-8.82
-0.09
6.99
12.45
16.44
19.12
20.69
21.39
21.49
21.25
20.89
20.52
20.23
20.04
19.95
19.93
19.90
19.83
19.76
19.75
19.87
20.08
20.10
19.56
18.09
15.55
12.06
8.03
3.90
-0.05
-3.81
-7.64
-11.86
-16.66
-22.01
-27.63
-32.93
-37.12
-39.34
-38.86
-35.32
-28.96
-20.61
-11.51
-2.94
4.11
9.19
12.30
13.76
13.99
13.40
12.40
11.35
10.56
10.18
10.18
10.38
10.67
11.01
11.58
12.60
14.16
16.18
18.35
20.29
21.66
22.30
22.14
21.21
19.58
17.29
14.43
11.11
7.52
3.80
0.12
-3.41
-6.75
-9.92
-13.05
-16.27
-19.74
-23.56
-27.76
-32.19
-36.48
-40.04
-42.13
-42.01
-39.29
-34.06
-26.93
-18.90
-11.04
-4.21
1.09
4.80
7.14
8.54
9.48
10.32
11.30
12.44
13.56
14.44
14.86
14.75
14.20
13.35
12.33
11.24
10.11
8.92
7.68
6.38
5.02
3.62
2.20
0.74
-0.72
-2.16
-3.53
-4.70
-5.61
-6.22
-6.65
-7.13
-7.94
-9.25
-11.04
-13.13
-15.19
-16.92
-18.18
-18.97
-19.40
-19.61
-19.66
-19.59
-19.43
-19.22
-19.10
-19.28
-19.98
-21.31
-23.16
-25.05
-26.28
-26.10
-23.98
-19.90
-14.31
-8.02
-1.89
3.40
7.61
10.88
13.66
16.54
20.01
24.40
29.71
35.69
41.83
47.45
51.76
53.97
53.42
49.71
42.90
33.64
23.07
12.57
3.45
-3.40
-7.63
-9.32
-8.87
-6.71
-3.31
0.87
5.26
9.23
12.21
13.72
13.58
11.80
8.55
4.13
-1.19
-7.14
-13.48
-19.93
-26.17
-31.71
-36.00
-38.47
-38.65
-36.33
-31.65
-25.08
-17.36
-9.41
-2.22
3.27
6.41
6.93
5.12
1.82
-1.88
-4.92
-6.61
-6.77
-5.66
-3.74
-1.48
0.83
3.08
5.28
7.48
9.67
11.81
13.77
15.45
16.81
17.86
18.69
19.37
19.88
20.05
19.68
18.65
17.11
15.48
14.37
14.33
15.58
17.92
20.79
23.52
25.54
26.55
26.58
25.75
24.18
21.79
18.43
13.87
8.13
1.40
-5.84
-12.96
-19.41
-24.73
-28.69
-31.21
-32.28
-31.93
-30.31
-27.65
-24.36
-20.94
-17.90
-15.66
-14.41
-14.16
-14.76
-16.01
-17.71
-19.66
-21.59
-23.12
-23.73
-22.95
-20.50
-16.50
-11.47
-6.29
-1.85
1.18
2.52
2.22
0.62
-1.91
-5.02
-8.42
-11.84
-15.03
-17.76
-19.85
-21.19
-21.69
-21.29
-19.95
-17.60
-14.26
-9.98
-4.94
0.60
6.27
11.65
16.23
19.61
21.56
22.12
21.64
20.56
19.33
18.18
17.12
15.94
14.44
12.50
10.17
7.61
5.03
2.62
0.49
-1.26
-2.58
-3.48
-3.98
-4.21
-4.31
-4.44
-4.62
-4.81
-4.84
-4.58
-4.00
-3.18
-2.39
-1.99
-2.26
-3.31
-4.92
-6.60
-7.66
-7.55
-5.98
-3.12
0.54
4.35
7.71
10.26
11.87
12.49
12.16
10.93
8.94
6.48
3.96
1.74
0.05
-1.12
-1.92
-2.52
-2.95
-3.03
-2.47
-1.01
1.49
4.98
9.32
14.32
19.79
25.50
31.10
36.15
40.14
42.64
43.34
42.08
38.83
33.63
26.70
18.43
9.44
0.53
-7.43
-13.68
-17.62
-18.97
-17.76
-14.34
-9.39
-3.79
1.52
5.67
8.02
8.21
6.12
1.90
-4.08
-11.22
-18.74
-25.84
-31.87
-36.50
-39.79
-42.00
-43.46
-44.22
-44.06
-42.53
-39.24
-34.07
-27.36
-19.77
-12.12
-5.14
0.73
5.37
8.81
11.13
12.35
12.44
11.42
9.53
7.09
4.55
2.30
0.59
-0.50
-1.01
-0.98
-0.47
0.49
1.79
3.27
4.70
5.85
6.59
6.81
6.52
5.70
4.38
2.55
0.35
-1.97
-4.06
-5.56
-6.22
-6.05
-5.32
-4.39
-3.62
-3.22
-3.17
-3.38
-3.75
-4.30
-5.12
-6.26
-7.62
-8.92
-9.85
-10.18
-9.86
-8.96
-7.62
-5.90
-3.77
-1.15
1.95
5.30
8.52
11.19
13.03
14.02
14.42
14.52
14.56
14.56
14.35
13.75
12.64
11.12
9.48
8.04
7.03
6.47
6.22
6.03
5.77
5.39
4.97
4.70
4.72
5.16
6.06
7.46
9.36
11.70
14.29
16.79
18.78
19.86
19.78
18.44
15.96
12.49
8.23
3.29
-2.17
-7.90
-13.52
-18.54
-22.52
-25.15
-26.48
-26.78
-26.50
-25.99
-25.38
-24.54
-23.17
-20.98
-17.81
-13.74
-9.07
-4.22
0.34
4.15
6.83
8.17
8.11
6.88
4.84
2.36
-0.28
-3.01
-5.94
-9.25
-13.05
-17.33
-21.90
-26.46
-30.66
-34.08
-36.34
-37.10
-36.15
-33.41
-29.01
-23.24
-16.43
-8.95
-1.12
6.73
14.23
20.94
26.52
30.66
33.22
34.19
33.64
31.66
28.40
24.07
19.04
13.80
8.91
4.83
1.87
0.05
-0.78
-0.91
-0.57
0.04
0.82
1.69
2.55
3.22
3.42
2.82
1.10
-1.96
-6.42
-12.13
-18.73
-25.62
-32.03
-37.10
-40.01
-40.18
-37.38
-31.75
-23.77
-14.15
-3.70
6.75
16.39
24.60
30.94
35.26
37.64
38.26
37.30
34.83
30.87
25.52
19.00
11.74
4.20
-3.10
-9.71
-15.14
-18.89
-20.52
-19.83
-16.96
-12.49
-7.22
-1.93
2.88
7.00
10.51
13.56
16.16
18.18
19.31
19.23
17.72
14.71
10.40
5.24
-0.12
-4.99
-8.78
-11.12
-11.86
-11.08
-9.03
-6.09
-2.75
0.42
2.91
4.45
5.10
5.31
5.68
6.76
8.72
11.32
14.02
16.12
17.16
16.96
15.62
13.43
10.67
7.61
4.47
1.57
-0.77
-2.20
-2.47
-1.47
0.69
3.75
7.35
11.04
14.42
17.06
18.57
18.59
16.96
13.66
8.98
3.41
-2.47
-8.14
-13.29
-17.87
-21.95
-25.59
-28.73
-31.17
-32.67
-33.07
-32.35
-30.70
-28.42
-25.86
-23.36
-21.32
-20.05
-19.84
-20.84
-23.01
-26.20
-30.19
-34.75
-39.78
-45.19
-50.80
-56.19
-60.65
-63.24
-63.01
-59.30
-51.99
-41.55
-28.95
-15.34
-1.79
10.89
22.21
31.82
39.52
45.09
48.43
49.54
48.57
45.83
41.67
36.50
30.75
24.85
19.26
14.46
10.86
8.74
8.15
8.95
10.84
13.39
16.17
18.76
20.85
22.24
22.88
22.88
22.41
21.72
20.97
20.22
19.45
18.55
17.38
15.87
13.96
11.64
8.94
5.93
2.76
-0.34
-3.12
-5.39
-7.03
-8.09
-8.73
-9.15
-9.57
-10.15
-10.95
-11.92
-12.92
-13.63
-13.74
-12.94
-11.10
-8.24
-4.58
-0.40
3.99
8.25
12.13
15.34
17.69
19.13
19.81
20.06
20.25
20.70
21.54
22.69
23.90
24.87
25.33
25.17
24.48
23.52
22.63
22.09
22.02
22.30
22.63
22.71
22.33
21.49
20.33
19.05
17.74
16.38
14.79
12.74
9.99
6.39
1.95
-3.10
-8.42
-13.54
-18.10
-21.88
-24.86
-27.11
-28.74
-29.74
-30.03
-29.51
-28.17
-26.15
-23.72
-21.23
-19.05
-17.52
-16.93
-17.54
-19.49
-22.73
-27.01
-31.81
-36.48
-40.41
-43.18
-44.62
-44.84
-44.03
-42.32
-39.73
-36.10
-31.26
-25.14
-17.85
-9.65
-0.93
7.95
16.61
24.71
31.90
37.85
42.35
45.32
46.90
47.42
47.30
46.92
46.50
46.13
45.75
45.30
44.72
43.99
43.09
41.95
40.44
38.38
35.63
32.07
27.66
22.44
16.45
9.82
2.73
-4.58
-11.87
-18.90
-25.52
-31.68
-37.39
-42.71
-47.73
-52.55
-57.27
-61.94
-66.46
-70.55
-73.67
-75.26
-74.82
-72.10
-67.17
-60.39
-52.34
-43.68
-35.02
-26.82
-19.34
-12.63
-6.53
-0.75
5.14
11.50
18.57
26.32
34.46
42.52
49.98
56.42
61.59
65.45
68.04
69.49
69.90
69.34
67.84
65.48
62.38
58.72
54.81
51.09
47.97
45.73
44.42
43.83
43.68
43.80
44.23
45.01
46.00
46.54
45.67
42.44
36.57
28.67
20.07
12.20
5.95
1.36
-2.21
-5.40
-8.49
-11.23
-13.15
-13.99
-13.93
-13.44
-12.88
-12.27
-11.09
-8.77
-4.97
0.06
5.56
10.56
14.23
16.19
16.48
15.48
13.58
11.07
8.06
4.58
0.76
-3.16
-6.82
-9.97
-12.53
-14.74
-16.99
-19.55
-22.46
-25.33
-27.57
-28.64
-28.41
-27.22
-25.79
-24.91
-25.09
-26.49
-28.89
-31.93
-35.31
-38.93
-42.81
-47.01
-51.45
-55.88
-59.98
-63.44
-66.08
-67.81
-68.64
-68.57
-67.54
-65.50
-62.40
-58.25
-53.14
-47.17
-40.55
-33.59
-26.70
-20.32
-14.80
-10.21
-6.34
-2.76
0.91
4.81
8.75
12.34
15.21
17.16
18.22
18.53
18.12
16.95
14.94
12.17
8.96
5.79
3.11
1.16
-0.13
-1.01
-1.71
-2.22
-2.27
-1.52
0.26
2.98
6.22
9.47
12.28
14.52
16.28
17.75
19.00
19.88
20.14
19.57
18.15
16.11
13.78
11.38
8.98
6.49
3.87
1.19
-1.31
-3.38
-4.82
-5.64
-5.99
-6.10
-6.13
-6.11
-5.99
-5.70
-5.26
-4.84
-4.76
-5.34
-6.71
-8.69
-10.76
-12.19
-12.38
-11.08
-8.50
-5.22
-1.89
0.99
3.24
4.91
6.16
7.10
7.71
7.98
7.92
7.68
7.56
7.89
8.90
10.59
12.75
15.01
17.01
18.55
19.66
20.51
21.28
22.00
22.48
22.35
21.30
19.24
16.36
13.08
9.81
6.81
4.13
1.72
-0.49
-2.43
-3.94
-4.86
-5.16
-5.01
-4.78
-4.85
-5.51
-6.82
-8.65
-10.70
-12.70
-14.49
-16.03
-17.40
-18.71
-20.02
-21.40
-22.88
-24.49
-26.16
-27.68
-28.63
-28.49
-26.79
-23.40
-18.56
-12.91
-7.22
-2.16
1.84
4.76
6.76
8.16
9.24
10.23
11.23
12.31
13.45
14.61
15.71
16.67
17.43
17.95
18.24
18.35
18.36
18.35
18.36
18.44
18.49
18.47
18.33
18.09
17.77
17.35
16.73
15.77
14.36
12.46
10.19
7.72
5.20
2.66
0.01
-2.80
-5.77
-8.73
-11.49
-13.83
-15.67
-17.00
-17.85
-18.32
-18.47
-18.45
-18.48
-18.91
-20.02
-21.91
-24.39
-26.92
-28.80
-29.29
-27.91
-24.53
-19.42
-13.19
-6.59
-0.38
4.86
8.79
11.40
12.88
13.62
13.97
14.18
14.40
14.64
14.98
15.50
16.37
17.64
19.23
20.93
22.45
23.61
24.38
24.82
25.00
24.84
24.18
22.84
20.79
18.31
15.85
13.91
12.84
12.75
13.51
14.86
16.46
17.98
19.11
19.49
18.82
16.83
13.43
8.71
2.96
-3.42
-9.95
-16.21
-21.87
-26.81
-31.01
-34.59
-37.74
-40.52
-42.83
-44.33
-44.51
-42.82
-38.92
-32.85
-25.13
-16.60
-8.24
-0.88
4.95
9.06
11.46
12.28
11.74
10.11
7.70
4.88
2.01
-0.61
-2.79
-4.36
-5.18
-5.14
-4.26
-2.63
-0.45
1.98
4.42
6.60
8.34
9.50
9.98
9.76
8.87
7.45
5.64
3.60
1.46
-0.71
-2.77
-4.57
-5.90
-6.51
-6.23
-5.00
-2.87
-0.05
3.16
6.48
9.61
12.32
14.36
15.49
15.45
14.14
11.62
8.18
4.34
0.68
-2.19
-3.76
-3.69
-1.90
1.44
5.80
10.35
14.09
15.97
15.13
11.04
3.65
-6.63
-18.94
-32.23
-45.45
-57.81
-68.87
-78.36
-85.97
-91.04
-92.64
-89.76
-81.76
-68.73
-51.58
-31.84
-11.28
8.40
25.78
39.80
49.78
55.41
56.90
54.97
50.66
45.09
39.23
33.69
28.81
24.83
21.92
20.36
20.29
21.58
23.74
26.05
27.76
28.36
27.70
25.95
23.50
20.80
18.15
15.67
13.17
10.21
6.17
0.47
-7.19
-16.66
-27.32
-38.22
-48.38
-56.94
-63.27
-66.92
-67.49
-64.77
-58.78
-49.89
-38.87
-26.65
-14.17
-2.07
9.34
20.00
29.92
39.00
46.97
53.49
58.36
61.57
63.45
64.43
64.92
65.17
65.18
64.80
63.87
62.28
60.03
57.20
53.89
50.27
46.53
42.83
39.33
36.04
32.83
29.45
25.59
21.01
15.61
9.45
2.72
-4.29
-11.28
-17.96
-24.13
-29.61
-34.33
-38.32
-41.67
-44.51
-47.00
-49.18
-50.93
-51.83
-51.25
-48.61
-43.56
-36.27
-27.45
-18.12
-9.35
-1.96
3.65
7.43
9.58
10.40
10.22
9.34
8.03
6.51
4.86
3.17
1.49
-0.00
-1.07
-1.43
-0.98
0.23
1.96
3.87
5.67
7.06
7.89
8.00
7.31
5.75
3.36
0.26
-3.33
-7.14
-10.86
-14.22
-17.04
-19.23
-20.84
-21.99
-22.77
-23.22
-23.25
-22.73
-21.52
-19.61
-17.14
-14.37
-11.62
-9.08
-6.71
-4.24
-1.27
2.60
7.54
13.44
19.92
26.41
32.38
37.36
41.06
43.29
44.00
43.22
41.11
37.93
34.00
29.70
25.34
21.17
17.40
14.14
11.49
9.46
7.90
6.50
4.83
2.43
-0.95
-5.25
-10.13
-15.12
-19.81
-24.04
-27.93
-31.77
-35.80
-40.01
-44.14
-47.74
-50.41
-51.95
-52.33
-51.70
-50.16
-47.75
-44.41
-40.08
-34.81
-28.74
-22.12
-15.25
-8.42
-1.95
3.90
9.00
13.44
17.49
21.49
25.64
29.89
33.98
37.65
40.77
43.49
46.09
48.81
51.69
54.54
57.03
58.80
59.58
59.16
57.44
54.33
49.87
44.18
37.42
29.69
21.10
11.68
1.61
-8.71
-18.75
-27.91
-35.72
-42.00
-46.75
-50.04
-51.87
-52.14
-50.76
-47.78
-43.54
-38.60
-33.62
-29.17
-25.65
-23.20
-21.82
-21.35
-21.56
-22.16
-22.82
-23.26
-23.29
-22.79
-21.72
-20.10
-17.96
-15.42
-12.61
-9.61
-6.46
-3.05
0.66
4.59
8.37
11.47
13.33
13.64
12.42
10.01
6.89
3.45
-0.04
-3.46
-6.70
-9.60
-11.92
-13.45
-14.08
-13.83
-12.82
-11.17
-8.97
-6.27
-3.11
0.33
3.76
6.75
8.87
9.84
9.67
8.65
7.22
5.88
4.99
4.71
4.95
5.49
6.04
6.36
6.33
5.96
5.36
4.64
3.88
3.05
2.08
0.89
-0.47
-1.85
-3.04
-3.92
-4.49
-4.86
-5.22
-5.68
-6.27
-6.97
-7.74
-8.53
-9.27
-9.69
-9.34
-7.71
-4.44
0.46
6.56
13.06
19.13
24.08
27.62
29.75
30.70
30.74
30.09
28.96
27.58
26.22
25.16
24.56
24.46
24.75
25.24
25.82
26.38
26.83
26.91
26.23
24.24
20.50
14.83
7.45
-1.07
-10.00
-18.57
-26.15
-32.20
-36.31
-38.12
-37.49
-34.50
-29.57
-23.42
-16.92
-10.98
-6.38
-3.67
-3.10
-4.60
-7.84
-12.36
-17.66
-23.37
-29.21
-35.01
-40.63
-45.92
-50.74
-54.90
-58.15
-60.14
-60.39
-58.32
-53.36
-45.09
-33.41
-18.60
-1.27
17.78
37.68
57.69
77.21
95.66
112.42
126.72
137.78
145.08
148.58
148.75
146.44
142.41
137.00
130.07
121.23
110.14
96.85
81.81
65.61
48.78
31.68
14.62
-1.98
-17.41
-30.81
-41.39
-48.69
-52.69
-53.82
-52.79
-50.33
-47.09
-43.55
-40.10
-37.08
-34.82
-33.47
-32.79
-31.99
-29.74
-24.58
-15.54
-2.70
12.54
27.89
40.80
49.21
51.95
48.78
40.17
26.96
10.34
-8.17
-26.70
-43.26
-56.17
-64.36
-67.78
-67.15
-63.71
-58.78
-53.54
-48.81
-45.15
-42.96
-42.51
-43.98
-47.32
-52.10
-57.52
-62.54
-66.16
-67.74
-67.17
-64.71
-60.87
-56.03
-50.44
-44.32
-38.05
-32.20
-27.48
-24.30
-22.58
-21.72
-20.80
-19.13
-16.56
-13.50
-10.65
-8.61
-7.55
-7.10
-6.62
-5.54
-3.65
-1.21
1.25
3.14
4.07
3.95
3.04
1.74
0.52
-0.19
-0.16
0.67
2.18
4.10
6.08
7.77
8.94
9.45
9.29
8.54
7.33
5.85
4.39
3.27
2.78
3.06
4.08
5.64
7.46
9.29
11.02
12.69
14.39
16.16
18.03
19.92
21.67
23.06
23.85
23.79
22.78
20.90
18.45
15.81
13.30
11.10
9.12
7.15
4.97
2.49
-0.27
-3.13
-5.86
-8.26
-10.15
-11.44
-12.15
-12.37
-12.28
-12.12
-12.06
-12.17
-12.34
-12.24
-11.43
-9.50
-6.28
-1.93
3.01
7.78
11.69
14.31
15.67
16.14
16.19
16.17
16.16
16.00
15.45
14.39
12.90
11.19
9.58
8.30
7.49
7.20
7.41
8.07
9.07
10.30
11.58
12.73
13.62
14.15
14.28
14.02
13.41
12.51
11.43
10.31
9.26
8.38
7.65
6.96
6.12
4.92
3.19
0.92
-1.76
-4.60
-7.31
-9.72
-11.78
-13.63
-15.43
-17.34
-19.39
-21.54
-23.65
-25.45
-26.59
-26.65
-25.27
-22.34
-18.09
-13.10
-8.15
-3.85
-0.50
1.97
3.88
5.51
6.99
8.26
9.24
9.90
10.38
10.90
11.62
12.54
13.45
14.03
13.97
13.05
11.25
8.64
5.41
1.80
-1.98
-5.66
-8.94
-11.47
-12.94
-13.11
-11.97
-9.72
-6.75
-3.51
-0.38
2.36
4.52
5.97
6.62
6.47
5.63
4.35
2.91
1.49
-0.00
-1.91
-4.71
-8.67
-13.75
-19.42
-24.83
-29.05
-31.40
-31.58
-29.74
-26.34
-21.91
-16.99
-11.93
-7.00
-2.33
2.03
6.07
9.82
13.29
16.45
19.19
21.36
22.87
23.68
23.83
23.46
22.60
21.31
19.61
17.47
14.93
11.97
8.57
4.66
0.23
-4.68
-9.81
-14.76
-19.06
-22.27
-24.20
-24.85
-24.46
-23.32
-21.72
-19.80
-17.59
-15.05
-12.26
-9.41
-6.88
-5.10
-4.44
-5.09
-6.90
-9.44
-12.09
-14.14
-15.01
-14.30
-11.92
-8.03
-3.00
2.64
8.35
13.67
18.25
21.91
24.65
26.61
28.01
29.11
30.02
30.76
31.20
31.14
30.46
29.17
27.50
25.77
24.34
23.44
23.22
23.69
24.84
26.60
28.85
31.37
33.85
35.94
37.32
37.76
37.19
35.61
33.08
29.57
25.11
19.71
13.54
6.89
0.10
-6.50
-12.72
-18.53
-23.98
-29.06
-33.60
-37.26
-39.62
-40.40
-39.59
-37.51
-34.67
-31.68
-28.96
-26.79
-25.16
-23.86
-22.55
-20.85
-18.44
-15.22
-11.33
-7.13
-3.17
0.03
2.08
2.90
2.68
1.93
1.26
1.18
1.99
3.57
5.49
7.18
8.12
8.08
7.10
5.45
3.41
1.28
-0.77
-2.51
-3.73
-4.19
-3.78
-2.62
-1.02
0.50
1.41
1.33
0.16
-1.92
-4.56
-7.36
-10.02
-12.36
-14.38
-16.10
-17.49
-18.52
-19.08
-19.15
-18.77
-18.04
-17.05
-15.82
-14.33
-12.59
-10.69
-8.83
-7.26
-6.12
-5.45
-5.23
-5.40
-5.95
-6.83
-7.88
-8.69
-8.73
-7.46
-4.58
-0.26
4.96
10.30
15.07
18.86
21.60
23.49
24.77
25.58
25.95
25.83
25.20
24.13
22.79
21.38
20.07
18.99
18.24
17.94
18.18
18.99
20.31
21.99
23.80
25.49
26.77
27.38
27.10
25.81
23.52
20.41
16.73
12.75
8.58
4.21
-0.42
-5.30
-10.31
-15.14
-19.49
-23.12
-26.04
-28.45
-30.64
-32.86
-35.22
-37.65
-39.98
-42.11
-44.11
-46.19
-48.64
-51.48
-54.40
-56.70
-57.53
-56.16
-52.31
-46.22
-38.53
-30.08
-21.53
-13.36
-5.80
0.95
6.64
10.87
13.25
13.61
12.03
8.96
5.02
0.86
-2.97
-6.11
-8.32
-9.41
-9.25
-7.79
-5.13
-1.53
2.63
7.04
11.53
16.17
21.07
26.33
31.78
37.06
41.70
45.32
47.73
48.89
48.81
47.49
44.93
41.30
36.95
32.41
28.17
24.45
21.06
17.54
13.40
8.48
2.98
-2.58
-7.70
-12.06
-15.53
-18.10
-19.57
-19.56
-17.61
-13.47
-7.32
0.16
7.94
15.07
20.90
25.32
28.66
31.38
33.79
35.83
37.05
36.79
34.53
30.14
23.96
16.72
9.28
2.30
-3.85
-9.06
-13.36
-16.70
-18.96
-20.02
-19.89
-18.76
-17.02
-15.06
-13.17
-11.47
-9.96
-8.64
-7.56
-6.80
-6.41
-6.36
-6.56
-6.84
-7.08
-7.28
-7.52
-7.95
-8.62
-9.52
-10.49
-11.33
-11.87
-12.02
-11.81
-11.33
-10.72
-10.11
-9.63
-9.41
-9.63
-10.36
-11.55
-12.91
-13.90
-13.92
-12.54
-9.69
-5.70
-1.25
2.97
6.38
8.78
10.23
11.04
11.52
11.91
12.36
12.90
13.52
14.18
14.81
15.29
15.44
15.04
13.95
12.11
9.63
6.79
3.95
1.40
-0.70
-2.42
-3.99
-5.70
-7.71
-9.99
-12.23
-14.01
-14.93
-14.75
-13.50
-11.49
-9.16
-6.95
-5.17
-3.93
-3.20
-2.92
-3.03
-3.53
-4.39
-5.49
-6.55
-7.26
-7.34
-6.67
-5.40
-3.81
-2.23
-0.92
-0.03
0.34
0.13
-0.59
-1.63
-2.61
-2.98
-2.20
0.02
3.58
7.90
12.14
15.49
17.38
17.69
16.71
14.96
12.98
11.12
9.47
7.97
6.52
5.05
3.61
2.27
1.02
-0.28
-1.80
-3.68
-5.89
-8.22
-10.43
-12.32
-13.76
-14.81
-15.54
-16.00
-16.16
-15.92
-15.22
-14.08
-12.55
-10.70
-8.57
-6.18
-3.65
-1.13
1.13
2.91
4.03
4.46
4.21
3.37
1.99
0.16
-1.96
-4.16
-6.14
-7.66
-8.61
-9.10
-9.40
-9.85
-10.79
-12.34
-14.35
-16.34
-17.65
-17.68
-16.08
-12.93
-8.70
-4.10
0.21
3.81
6.54
8.52
9.95
11.10
12.18
13.36
14.73
16.35
18.13
19.91
21.41
22.35
22.52
21.82
20.31
18.23
15.91
13.72
11.91
10.54
9.51
8.56
7.50
6.29
5.05
4.06
3.57
3.72
4.50
5.74
7.23
8.82
10.38
11.82
13.00
13.61
13.31
11.75
8.75
4.35
-1.16
-7.33
-13.70
-19.86
-25.55
-30.58
-34.86
-38.26
-40.68
-41.98
-42.03
-40.73
-37.98
-33.78
-28.25
-21.73
-14.59
-7.22
0.20
7.66
15.28
23.12
30.97
38.31
44.35
48.26
49.49
47.93
43.91
38.09
31.06
23.16
14.33
4.39
-6.64
-18.16
-28.93
-37.27
-41.57
-40.82
-34.85
-24.35
-10.52
5.31
21.95
38.40
53.82
67.50
79.01
88.32
95.97
102.72
109.21
115.36
120.24
122.14
119.16
109.82
93.47
70.48
41.91
9.22
-25.97
-61.92
-96.88
-129.05
-156.92
-179.42
-196.12
-207.07
-212.57
-212.70
-207.12
-195.06
-175.65
-148.62
-114.85
-76.66
-37.49
-1.12
29.35
52.19
67.17
75.16
77.37
74.90
68.59
59.29
48.18
36.84
26.98
19.89
16.07
15.17
16.27
18.38
20.88
23.52
26.42
29.75
33.58
37.83
42.28
46.68
50.78
54.31
57.01
58.71
59.45
59.40
58.74
57.40
54.88
50.31
42.87
32.20
18.73
3.64
-11.56
-25.61
-37.78
-47.96
-56.40
-63.41
-69.17
-73.78
-77.33
-79.92
-81.56
-81.98
-80.64
-76.83
-70.08
-60.34
-48.16
-34.47
-20.31
-6.57
6.16
17.58
27.54
35.89
42.47
47.08
49.55
49.85
48.13
44.77
40.38
35.67
31.31
27.81
25.41
24.12
23.87
24.63
26.48
29.49
33.63
38.57
43.71
48.28
51.56
53.04
52.48
49.86
45.32
39.01
31.15
22.06
12.23
2.21
-7.42
-16.26
-24.07
-30.78
-36.33
-40.60
-43.42
-44.66
-44.39
-42.97
-41.06
-39.49
-39.02
-40.17
-42.93
-46.80
-50.85
-54.03
-55.45
-54.69
-51.80
-47.19
-41.32
-34.53
-26.94
-18.63
-9.73
-0.63
8.06
15.70
21.80
26.16
28.85
30.11
30.21
29.40
27.93
26.01
23.99
22.26
21.16
20.90
21.42
22.35
23.21
23.45
22.70
20.79
17.82
14.05
9.85
5.61
1.64
-1.84
-4.81
-7.40
-9.75
-12.00
-14.16
-16.12
-17.69
-18.75
-19.33
-19.65
-20.09
-21.02
-22.70
-25.15
-28.08
-30.88
-32.85
-33.32
-31.94
-28.73
-24.09
-18.65
-13.01
-7.65
-2.83
1.32
4.72
7.32
9.10
10.15
10.64
10.84
11.07
11.65
12.83
14.81
17.63
21.15
25.05
28.93
32.39
35.15
37.10
38.26
38.68
38.38
37.33
35.47
32.80
29.39
25.44
21.16
16.83
12.64
8.76
5.20
1.91
-1.32
-4.66
-8.22
-11.95
-15.66
-19.05
-21.77
-23.61
-24.47
-24.49
-23.84
-22.78
-21.54
-20.31
-19.19
-18.20
-17.15
-15.69
-13.36
-9.78
-4.82
1.21
7.66
13.62
18.34
21.34
22.58
22.38
21.21
19.55
17.73
15.97
14.38
13.00
11.89
11.05
10.44
9.98
9.50
8.89
8.08
7.12
6.10
5.16
4.33
3.53
2.62
1.38
-0.29
-2.34
-4.53
-6.56
-8.16
-9.28
-10.03
-10.67
-11.44
-12.44
-13.60
-14.70
-15.49
-15.82
-15.68
-15.22
-14.63
-14.17
-14.05
-14.43
-15.31
-16.43
-17.29
-17.24
-15.73
-12.52
-7.89
-2.54
2.67
7.01
10.06
11.77
12.34
11.99
10.95
9.36
7.44
5.49
3.84
2.80
2.54
3.00
3.98
5.20
6.48
7.75
9.06
10.51
12.13
13.81
15.35
16.44
16.85
16.43
15.28
13.58
11.62
9.70
7.97
6.46
5.04
3.53
1.78
-0.23
-2.39
-4.49
-6.33
-7.79
-8.82
-9.50
-9.95
-10.38
-11.02
-12.09
-13.67
-15.54
-17.20
-17.94
-17.10
-14.29
-9.62
-3.63
2.90
9.19
14.73
19.25
22.71
25.18
26.76
27.55
27.74
27.47
26.84
25.80
24.17
21.68
18.21
13.79
8.69
3.31
-1.93
-6.66
-10.59
-13.49
-15.20
-15.62
-14.86
-13.19
-11.06
-8.99
-7.44
-6.66
-6.72
-7.55
-9.03
-11.07
-13.61
-16.54
-19.71
-22.79
-25.39
-27.12
-27.76
-27.31
-26.09
-24.60
-23.33
-22.66
-22.75
-23.58
-24.95
-26.55
-27.86
-28.25
-27.08
-23.83
-18.41
-11.19
-2.98
5.26
12.59
18.49
22.83
25.79
27.78
29.14
30.13
30.87
31.38
31.63
31.59
31.23
30.50
29.36
27.74
25.62
22.96
19.78
16.10
12.01
7.64
3.21
-0.98
-4.59
-7.30
-8.88
-9.29
-8.60
-7.07
-5.09
-3.10
-1.48
-0.52
-0.30
-0.70
-1.52
-2.49
-3.44
-4.33
-5.26
-6.43
-8.07
-10.30
-13.07
-16.03
-18.64
-20.23
-20.28
-18.55
-15.24
-10.97
-6.47
-2.47
0.59
2.56
3.53
3.72
3.42
2.88
2.28
1.79
1.52
1.56
2.01
2.93
4.30
6.00
7.82
9.52
10.92
11.94
12.61
12.99
13.09
12.84
12.18
11.13
9.89
8.69
7.67
6.79
5.82
4.49
2.65
0.41
-1.92
-4.00
-5.63
-6.81
-7.70
-8.51
-9.41
-10.53
-11.96
-13.84
-16.27
-19.21
-22.35
-25.15
-27.00
-27.48
-26.52
-24.50
-22.07
-19.97
-18.72
-18.55
-19.39
-21.06
-23.32
-25.94
-28.66
-31.09
-32.74
-32.99
-31.35
-27.52
-21.60
-13.99
-5.31
3.79
12.81
21.41
29.38
36.46
42.35
46.75
49.43
50.37
49.76
47.93
45.24
42.04
38.63
35.30
32.33
29.91
28.00
26.34
24.60
22.51
20.03
17.26
14.35
11.29
7.89
3.92
-0.79
-6.19
-11.98
-17.70
-22.84
-26.84
-29.21
-29.59
-27.86
-24.32
-19.65
-14.69
-10.18
-6.53
-3.74
-1.56
0.30
2.01
3.55
4.85
5.84
6.57
7.26
8.09
9.16
10.42
11.66
12.62
13.13
13.18
12.87
12.42
11.99
11.66
11.38
10.96
10.18
8.86
6.94
4.51
1.78
-1.04
-3.82
-6.61
-9.53
-12.72
-16.14
-19.50
-22.35
-24.15
-24.53
-23.38
-20.89
-17.48
-13.67
-9.97
-6.68
-3.83
-1.15
1.82
5.54
10.28
15.92
21.94
27.58
32.06
34.83
35.72
34.86
32.52
28.97
24.41
19.07
13.27
7.49
2.25
-2.02
-5.15
-7.22
-8.50
-9.21
-9.48
-9.25
-8.46
-7.12
-5.42
-3.71
-2.35
-1.71
-1.99
-3.24
-5.34
-8.04
-11.03
-13.94
-16.47
-18.37
-19.53
-20.00
-19.97
-19.71
-19.52
-19.57
-19.90
-20.33
-20.58
-20.36
-19.57
-18.34
-17.02
-16.03
-15.66
-15.90
-16.39
-16.56
-15.81
-13.73
-10.27
-5.65
-0.33
5.18
10.39
14.88
18.33
20.54
21.47
21.32
20.42
19.16
17.87
16.70
15.59
14.44
13.15
11.74
10.33
9.07
8.02
7.17
6.45
5.78
5.16
4.53
3.88
3.11
2.12
0.84
-0.70
-2.35
-3.92
-5.19
-6.06
-6.49
-6.41
-5.70
-4.14
-1.59
1.84
5.65
9.06
11.11
11.09
8.72
4.27
-1.47
-7.44
-12.49
-15.62
-16.13
-13.82
-8.97
-2.37
4.90
11.78
17.47
21.58
24.13
25.43
25.86
25.86
25.78
25.89
26.34
27.12
28.06
28.89
29.34
29.17
28.28
26.66
24.36
21.42
17.89
13.82
9.31
4.46
-0.66
-6.03
-11.67
-17.58
-23.63
-29.60
-35.17
-40.01
-43.92
-46.79
-48.54
-49.08
-48.29
-46.08
-42.55
-38.10
-33.38
-29.14
-25.97
-24.05
-23.04
-22.25
-20.83
-18.18
-14.12
-9.06
-3.72
1.02
4.52
6.49
6.98
6.33
4.90
3.00
0.95
-0.90
-2.16
-2.43
-1.52
0.52
3.32
6.38
9.25
11.72
13.87
15.92
18.05
20.21
22.11
23.33
23.52
22.65
21.06
19.30
17.94
17.27
17.23
17.36
17.04
15.81
13.51
10.32
6.62
2.74
-1.12
-4.95
-8.81
-12.70
-16.52
-20.12
-23.39
-26.24
-28.53
-29.83
-29.35
-26.18
-19.64
-9.84
2.11
14.35
24.89
32.47
36.98
39.34
40.88
42.47
44.07
44.94
44.19
41.52
37.56
33.57
30.81
29.92
30.71
32.44
34.35
36.08
37.77
39.79
42.31
45.11
47.67
49.39
49.94
49.42
48.23
46.85
45.60
44.54
43.48
42.19
40.45
38.16
35.22
31.56
27.11
21.94
16.27
10.54
5.24
0.75
-2.92
-6.12
-9.41
-13.36
-18.28
-24.09
-30.40
-36.63
-42.27
-46.96
-50.63
-53.38
-55.48
-57.28
-59.12
-61.33
-64.20
-67.89
-72.30
-77.10
-81.64
-85.05
-86.46
-85.23
-81.10
-74.23
-64.98
-53.82
-41.14
-27.27
-12.56
2.63
17.98
33.30
48.66
64.45
81.10
98.87
117.64
136.72
155.06
171.49
184.93
194.53
199.76
200.31
196.18
187.65
175.24
159.63
141.48
121.32
99.49
76.20
51.73
26.48
0.93
-24.45
-49.37
-73.75
-97.67
-121.20
-144.19
-166.19
-186.42
-203.84
-217.36
-226.00
-229.15
-226.75
-219.28
-207.78
-193.48
-177.60
-160.99
-144.11
-127.01
-109.51
-91.43
-72.62
-52.98
-32.38
-10.57
12.77
37.92
64.87
93.21
122.02
149.96
175.36
196.47
211.67
219.70
219.88
212.19
197.24
176.26
150.82
122.71
93.65
65.15
38.30
13.63
-8.98
-30.15
-50.81
-71.85
-93.91
-117.25
-141.87
-167.57
-194.01
-220.67
-246.80
-271.38
-293.28
-311.33
-324.52
-332.08
-333.54
-328.69
-317.52
-300.26
-277.34
-249.49
-217.72
-183.23
-147.41
-111.65
-77.23
-45.17
-16.11
9.65
32.19
51.74
68.67
83.31
95.92
106.60
115.36
122.13
126.90
129.70
130.62
129.69
126.99
122.66
117.01
110.55
103.87
97.49
91.61
86.02
80.26
73.81
66.44
58.26
49.72
41.42
33.90
27.50
22.29
18.10
14.65
11.67
8.94
6.39
4.04
1.93
0.14
-1.34
-2.55
-3.62
-4.70
-5.97
-7.61
-9.70
-12.16
-14.63
-16.50
-17.08
-15.82
-12.61
-7.92
-2.64
2.16
5.61
7.23
7.02
5.35
2.66
-0.63
-4.31
-8.20
-12.13
-15.90
-19.27
-22.06
-24.13
-25.43
-25.93
-25.54
-24.14
-21.63
-18.08
-13.71
-9.01
-4.49
-0.67
2.16
3.92
4.79
5.07
5.08
5.08
5.17
5.38
5.61
5.80
5.82
5.54
4.86
3.70
2.10
0.26
-1.55
-3.00
-3.88
-4.15
-4.05
-3.96
-4.39
-5.67
-7.86
-10.60
-13.12
-14.45
-13.72
-10.57
-5.25
1.44
8.51
15.15
20.95
25.82
29.86
33.04
35.18
36.02
35.45
33.68
31.20
28.64
26.55
25.30
25.03
25.65
27.00
28.83
30.97
33.32
35.81
38.36
40.90
43.19
44.85
45.36
44.20
40.94
35.44
27.71
17.97
6.67
-5.55
-17.85
-29.31
-38.95
-45.92
-49.56
-49.49
-45.68
-38.46
-28.50
-16.76
-4.36
7.58
18.09
26.50
32.49
36.08
37.63
37.88
37.93
38.94
41.75
46.54
52.72
59.29
65.20
69.86
73.19
75.50
77.06
77.73
76.99
74.34
69.74
63.80
57.59
52.19
48.20
45.63
43.94
42.35
40.18
36.99
32.56
26.92
20.35
13.29
6.46
0.65
-3.51
-5.72
-6.18
-5.54
-4.65
-4.32
-5.03
-6.73
-8.83
-10.51
-11.05
-10.10
-7.78
-4.55
-1.03
2.28
5.08
7.22
8.60
9.04
8.26
5.85
1.50
-4.86
-12.92
-21.88
-30.67
-38.20
-43.83
-47.43
-49.47
-50.72
-51.88
-53.38
-55.26
-57.36
-59.48
-61.45
-63.13
-64.32
-64.77
-64.23
-62.59
-59.96
-56.51
-52.51
-48.19
-43.64
-38.92
-34.07
-29.10
-24.06
-19.01
-14.03
-9.24
-4.80
-0.88
2.38
4.88
6.65
7.75
8.28
8.41
8.29
8.00
7.49
6.68
5.45
3.89
2.22
0.83
0.08
0.07
0.62
1.30
1.61
1.15
-0.27
-2.62
-5.72
-9.31
-13.02
-16.41
-18.94
-20.07
-19.47
-17.10
-13.35
-8.89
-4.47
-0.78
1.73
2.81
2.32
0.17
-3.57
-8.59
-14.17
-19.23
-22.55
-23.09
-20.33
-14.38
-5.88
4.25
15.13
25.96
36.10
44.93
51.96
56.80
59.41
60.08
59.45
58.22
56.89
55.67
54.36
52.55
49.72
45.36
39.04
30.41
19.37
6.17
-8.47
-23.36
-37.14
-48.63
-57.03
-62.15
-64.30
-64.06
-62.09
-59.01
-55.44
-52.04
-49.41
-47.98
-47.73
-48.12
-48.13
-46.64
-42.77
-36.29
-27.62
-17.72
-7.66
1.73
10.13
17.68
24.74
31.68
38.60
45.39
51.71
57.26
61.87
65.64
68.88
71.97
75.15
78.38
81.31
83.38
84.02
82.79
79.41
73.78
65.93
56.11
44.83
32.90
21.27
10.83
2.21
-4.35
-8.83
-11.39
-12.18
-11.48
-9.72
-7.54
-5.70
-4.77
-4.99
-6.26
-8.23
-10.53
-12.93
-15.32
-17.66
-19.93
-21.98
-23.64
-24.72
-25.00
-24.33
-22.62
-19.94
-16.48
-12.58
-8.67
-5.16
-2.33
-0.30
0.97
1.62
1.76
1.42
0.47
-1.35
-4.28
-8.34
-13.20
-18.08
-21.92
-23.72
-22.88
-19.44
-14.00
-7.54
-0.98
5.12
10.58
15.56
20.21
24.58
28.55
31.92
34.58
36.51
37.78
38.37
38.22
37.14
34.96
31.59
27.08
21.58
15.34
8.61
1.59
-5.51
-12.52
-19.29
-25.65
-31.42
-36.39
-40.37
-43.24
-45.00
-45.76
-45.66
-44.74
-42.86
-39.81
-35.37
-29.53
-22.50
-14.78
-7.02
0.07
5.86
9.94
12.28
13.23
13.44
13.62
14.20
15.21
16.31
17.03
17.05
16.35
15.06
13.28
10.91
7.67
3.29
-2.23
-8.59
-15.27
-21.70
-27.44
-32.21
-35.82
-38.17
-39.20
-38.88
-37.37
-34.90
-31.78
-28.27
-24.51
-20.48
-16.02
-10.80
-4.49
3.09
11.87
21.42
30.96
39.60
46.47
50.93
52.63
51.48
47.68
41.68
34.26
26.44
19.39
14.10
11.13
10.37
11.09
12.16
12.38
10.84
7.04
0.98
-7.06
-16.70
-27.54
-39.20
-51.23
-63.10
-74.32
-84.53
-93.51
-101.09
-106.95
-110.44
-110.67
-106.73
-98.19
-85.33
-69.23
-51.47
-33.77
-17.58
-3.81
7.18
15.54
21.78
26.58
30.68
34.79
39.39
44.73
50.72
56.92
62.68
67.32
70.44
72.00
72.36
72.03
71.45
70.69
69.48
67.30
63.74
58.68
52.54
46.17
40.79
37.60
37.55
40.96
47.40
55.72
64.40
71.98
77.54
80.76
81.94
81.60
80.14
77.60
73.66
67.82
59.72
49.28
36.84
22.98
8.45
-6.02
-19.75
-32.07
-42.39
-50.21
-55.28
-57.71
-58.06
-57.17
-56.03
-55.52
-56.24
-58.46
-62.17
-67.09
-72.69
-78.24
-82.93
-86.03
-87.01
-85.64
-81.97
-76.25
-68.81
-60.07
-50.47
-40.59
-31.07
-22.58
-15.63
-10.47
-7.00
-4.75
-3.00
-0.86
2.43
7.32
13.76
21.22
28.77
35.50
40.70
44.17
46.17
47.31
48.23
49.36
50.82
52.45
54.02
55.29
56.14
56.55
56.43
55.68
54.13
51.63
48.16
43.84
38.89
33.50
27.80
21.81
15.46
8.72
1.64
-5.67
-13.07
-20.46
-27.85
-35.33
-43.05
-51.01
-59.03
-66.69
-73.46
-78.98
-83.14
-86.26
-88.93
-91.82
-95.32
-99.40
-103.45
-106.35
-106.63
-102.86
-93.99
-79.73
-60.66
-38.12
-13.88
10.32
33.12
53.68
71.54
86.35
97.78
105.45
109.11
108.82
104.93
98.17
89.45
79.78
70.17
61.52
54.50
49.42
46.20
44.39
43.27
42.04
39.97
36.52
31.47
24.91
17.25
9.00
0.64
-7.50
-15.21
-22.23
-28.10
-32.26
-34.25
-34.04
-32.21
-29.74
-27.69
-26.76
-27.07
-28.32
-29.96
-31.53
-32.66
-33.05
-32.38
-30.33
-26.74
-21.69
-15.61
-9.17
-3.07
2.10
5.99
8.46
9.55
9.42
8.30
6.49
4.37
2.32
0.64
-0.52
-1.22
-1.69
-2.19
-2.86
-3.65
-4.34
-4.62
-4.23
-3.07
-1.16
1.33
4.18
7.17
10.07
12.70
14.92
16.67
17.93
18.73
19.04
18.79
17.84
16.01
13.19
9.41
4.84
-0.15
-5.00
-9.12
-11.92
-13.01
-12.34
-10.24
-7.34
-4.45
-2.27
-1.21
-1.38
-2.54
-4.32
-6.42
-8.63
-10.85
-13.00
-14.94
-16.48
-17.38
-17.50
-16.83
-15.56
-13.97
-12.29
-10.64
-8.98
-7.23
-5.34
-3.40
-1.62
-0.23
0.68
1.21
1.52
1.81
2.15
2.48
2.65
2.58
2.29
1.94
1.68
1.56
1.46
1.20
0.74
0.27
0.27
1.34
3.94
8.20
13.79
20.06
26.19
31.47
35.41
37.78
38.56
37.81
35.66
32.32
28.05
23.11
17.73
12.08
6.28
0.45
-5.18
-10.27
-14.41
-17.15
-18.21
-17.44
-14.90
-10.83
-5.49
0.73
7.43
14.22
20.67
26.44
31.22
34.74
36.72
36.70
34.08
28.18
18.55
5.21
-11.11
-28.98
-46.63
-62.28
-74.47
-82.31
-85.34
-83.47
-76.92
-66.26
-52.50
-36.97
-21.06
-5.84
8.15
20.97
32.83
43.70
53.08
59.98
63.35
62.49
57.44
48.89
38.04
26.13
14.15
2.83
-7.33
-15.92
-22.50
-26.54
-27.62
-25.47
-20.10
-11.82
-1.19
11.10
24.28
37.48
49.80
60.30
68.05
72.38
72.93
69.79
63.42
54.44
43.48
30.98
17.16
2.09
-14.12
-31.14
-48.25
-64.32
-77.98
-87.95
-93.33
-93.83
-89.83
-82.17
-71.83
-59.72
-46.51
-32.69
-18.68
-4.93
7.97
19.32
28.43
34.74
38.09
38.78
37.55
35.38
33.05
30.99
29.15
27.22
24.92
22.22
19.38
16.80
14.80
13.44
12.59
11.99
11.50
11.09
10.83
10.88
11.33
12.17
13.32
14.57
15.59
16.04
15.58
14.02
11.35
7.79
3.67
-0.74
-5.29
-10.04
-15.19
-20.95
-27.37
-34.34
-41.53
-48.50
-54.77
-59.89
-63.45
-65.14
-64.81
-62.45
-58.25
-52.57
-45.87
-38.67
-31.44
-24.62
-18.48
-13.20
-8.81
-5.23
-2.39
-0.19
1.40
2.37
2.72
2.45
1.67
0.53
-0.73
-1.77
-2.18
-1.46
0.81
4.98
11.11
18.96
28.01
37.60
47.04
55.76
63.35
69.52
74.08
76.84
77.65
76.45
73.34
68.59
62.56
55.70
48.36
40.77
32.96
24.88
16.47
7.70
-1.30
-10.29
-18.95
-26.90
-33.81
-39.43
-43.59
-46.26
-47.49
-47.33
-45.90
-43.29
-39.62
-35.00
-29.59
-23.57
-17.29
-11.23
-6.02
-2.23
-0.18
0.22
-0.45
-1.40
-1.93
-1.75
-1.12
-0.71
-1.33
-3.69
-8.17
-14.89
-23.69
-34.18
-45.77
-57.66
-68.93
-78.70
-86.37
-91.57
-94.24
-94.39
-91.97
-86.82
-78.73
-67.58
-53.51
-36.94
-18.61
0.46
19.03
35.75
49.31
58.72
63.50
63.88
60.72
55.26
48.88
42.70
37.48
33.59
31.01
29.50
28.63
27.97
27.17
26.04
24.63
23.21
22.05
21.41
21.37
21.89
22.81
23.95
25.15
26.26
27.15
27.67
27.74
27.40
26.72
25.83
24.77
23.54
22.02
20.20
18.16
16.13
14.38
13.05
12.05
11.05
9.67
7.62
4.79
1.27
-2.82
-7.47
-12.77
-18.85
-25.78
-33.48
-41.74
-50.25
-58.71
-66.84
-74.35
-80.91
-86.08
-89.33
-90.08
-87.84
-82.28
-73.35
-61.40
-47.10
-31.37
-15.25
0.25
14.30
26.24
35.65
42.32
46.20
47.43
46.34
43.43
39.35
34.79
30.41
26.71
23.95
22.18
21.29
21.16
21.73
23.01
25.04
27.82
31.17
34.86
38.59
42.18
45.57
48.83
52.00
55.03
57.75
59.91
61.36
62.07
62.15
61.77
61.02
59.91
58.43
56.66
54.80
53.22
52.39
52.74
54.71
58.56
64.48
72.41
82.09
93.08
104.78
116.53
127.56
136.96
143.61
146.38
144.37
137.37
125.92
111.27
94.85
77.79
60.66
43.43
25.87
7.90
-10.08
-27.32
-42.86
-56.02
-66.59
-74.84
-81.48
-87.36
-93.20
-99.50
-106.65
-114.99
-124.91
-136.80
-150.80
-166.76
-184.33
-203.13
-223.03
-243.95
-265.27
-285.25
-300.76
-307.79
-302.73
-283.74
-251.59
-209.67
-162.89
-116.33
-73.97
-38.27
-10.23
10.12
23.26
30.12
31.95
30.37
27.13
23.80
21.46
20.44
20.44
20.75
20.69
19.94
18.65
17.41
16.90
17.62
19.68
22.71
26.09
29.15
31.45
32.89
33.66
33.93
33.79
33.05
31.39
28.64
24.90
20.64
16.50
13.03
10.46
8.68
7.41
6.46
5.89
5.82
6.33
7.14
7.71
7.56
6.59
5.33
4.92
6.78
12.19
22.07
36.80
56.24
79.73
106.03
133.34
159.44
182.14
199.71
211.18
216.31
215.14
207.67
193.71
173.19
146.64
115.58
82.40
49.84
20.17
-5.29
-26.25
-43.02
-56.03
-65.56
-71.71
-74.67
-75.00
-73.63
-71.63
-69.82
-68.44
-67.13
-65.16
-61.84
-56.93
-50.64
-43.63
-36.64
-30.26
-24.76
-20.18
-16.43
-13.42
-11.20
-9.64
-8.54
-7.59
-6.71
-6.20
-6.76
-9.24
-14.14
-21.30
-29.71
-37.89
-44.34
-48.00
-48.49
-46.04
-41.29
-35.17
-28.73
-23.07
-19.19
-17.84
-19.16
-22.60
-27.07
-31.28
-34.16
-35.14
-34.30
-32.19
-29.57
-27.07
-25.16
-24.03
-23.73
-24.18
-25.30
-27.03
-29.35
-32.24
-35.70
-39.77
-44.39
-49.36
-54.37
-58.92
-62.52
-64.70
-65.25
-64.29
-62.24
-59.69
-57.04
-54.39
-51.47
-47.83
-43.09
-37.25
-30.72
-24.16
-18.28
-13.58
-10.29
-8.35
-7.54
-7.43
-7.46
-6.84
-4.83
-0.83
5.21
12.76
20.74
27.94
33.38
36.64
37.94
37.89
37.10
35.87
34.13
31.65
