1565784816.00
64.000000
-0.00
-0.00
-0.00
-0.00
-0.00
-0.00
-0.00
-0.00
-0.00
-0.00
0.00
0.01
0.01
-0.00
-0.03
-0.05
-0.05
0.00
0.13
0.36
0.66
1.01
1.37
1.72
2.06
2.40
2.79
3.24
3.80
4.42
5.06
5.67
6.21
6.69
7.17
7.71
8.37
9.25
10.25
11.28
12.22
13.03
13.76
14.57
15.66
17.19
19.37
22.01
24.85
27.58
30.05
32.32
34.72
37.67
41.49
46.57
52.57
58.96
65.19
70.90
76.14
81.41
87.38
94.58
103.55
113.77
124.48
134.81
144.20
152.68
160.89
170.13
179.11
190.10
203.69
220.04
237.99
254.65
265.67
266.40
253.42
225.86
186.08
137.93
85.82
33.07
-18.78
-69.47
-119.16
-167.61
-214.00
-256.92
-295.47
-328.92
-356.75
-378.29
-392.53
-398.21
-394.16
-379.86
-355.56
-323.54
-286.47
-247.08
-207.69
-169.81
-134.10
-100.62
-69.14
-39.33
-11.18
15.29
39.97
62.59
82.94
100.81
115.90
127.76
135.85
139.54
138.41
132.76
123.15
110.56
96.32
81.92
68.74
57.99
50.47
46.60
46.33
49.13
54.09
60.15
66.18
71.13
74.15
74.73
72.75
68.41
62.15
54.56
46.29
37.88
29.55
21.29
12.82
3.76
-6.30
-17.74
-30.73
-45.03
-60.21
-75.89
-91.57
-106.79
-121.06
-133.92
-145.06
-154.31
-161.38
-166.41
-170.27
-174.11
-179.33
-187.14
-198.41
-213.50
-232.18
-253.06
-274.59
-295.60
-314.92
-331.79
-345.45
-355.27
-360.65
-361.00
-355.12
-339.37
-311.41
-269.88
-215.15
-148.83
-73.76
6.52
84.58
156.89
222.40
281.28
336.75
389.56
438.70
481.75
515.60
536.81
544.55
539.15
521.14
491.09
448.62
392.75
322.14
236.25
136.63
26.19
-91.58
-212.24
-329.42
-434.71
-518.35
-571.83
-591.05
-578.04
-540.67
-490.01
-436.37
-385.92
-340.15
-297.08
-253.78
-210.47
-166.59
-121.63
-74.86
-25.52
26.39
79.05
128.78
170.60
199.31
211.46
205.57
182.40
144.29
94.24
35.37
-29.27
-96.59
-163.09
-224.08
-274.85
-310.59
-327.43
-323.61
-300.06
-260.34
-209.81
-154.51
-99.43
-48.04
-2.45
36.08
66.57
88.12
100.47
104.35
101.68
96.41
94.02
100.48
121.41
161.22
222.43
304.91
404.81
513.76
619.53
709.64
774.14
807.84
810.84
787.02
741.85
684.22
619.55
551.14
481.68
413.91
350.43
293.27
241.96
196.05
155.08
118.38
86.46
61.30
45.90
42.87
52.82
72.73
95.72
111.88
110.67
85.39
36.02
-30.48
-102.35
-167.24
-216.59
-248.06
-265.35
-276.58
-289.94
-310.48
-338.75
-371.34
-403.00
-429.01
-445.87
-450.83
-442.31
-417.95
-376.52
-320.30
-255.72
-191.63
-135.60
-90.26
-52.34
-15.10
27.38
76.22
126.36
168.85
194.88
199.14
181.17
144.25
93.07
31.99
-35.58
-106.43
-176.79
-242.33
-298.98
-343.62
-375.49
-395.44
-405.12
-406.35
-400.49
-388.12
-369.41
-344.64
-314.67
-281.24
-246.72
-213.43
-183.28
-157.29
-135.44
-117.04
-101.18
-87.18
-74.84
-64.26
-55.60
-48.86
-43.64
-39.23
-34.84
-29.80
-23.73
-16.57
-8.35
0.93
11.43
23.49
37.54
53.89
72.60
93.46
115.90
139.11
162.20
184.52
206.01
227.73
251.80
280.62
315.42
354.90
394.78
428.70
450.30
455.42
443.53
417.63
382.75
344.24
306.20
270.89
238.76
208.81
178.67
144.80
103.35
51.80
-8.90
-73.29
-132.06
-174.88
-193.97
-186.95
-157.66
-114.43
-66.94
-22.95
13.28
40.82
60.71
74.56
83.82
89.91
94.53
99.40
105.69
113.48
121.94
130.03
136.90
142.22
145.74
146.89
144.80
138.73
128.84
116.28
102.55
88.31
72.73
54.03
30.87
4.04
-23.08
-45.84
-60.32
-65.09
-61.11
-50.48
-35.08
-16.28
4.17
23.15
36.47
40.81
36.21
26.89
19.57
19.70
28.05
39.84
47.30
43.81
27.13
0.22
-30.77
-59.50
-81.50
-94.71
-98.91
-95.00
-84.78
-70.89
-56.66
-45.34
-39.27
-39.49
-46.04
-58.98
-78.81
-106.36
-141.59
-182.20
-223.03
-256.99
-277.35
-280.35
-267.18
-243.55
-217.43
-195.52
-180.18
-168.76
-155.34
-134.53
-104.72
-69.15
-33.68
-2.95
22.41
45.58
70.44
98.02
124.82
144.43
151.72
146.73
135.18
125.45
123.73
130.79
142.32
152.35
157.24
157.28
155.27
153.45
151.28
145.97
134.48
116.14
93.43
70.69
51.92
38.72
29.93
22.94
15.44
6.67
-2.55
-10.69
-16.43
-19.56
-21.60
-25.97
-37.30
-60.22
-97.26
-146.64
-201.55
-251.25
-284.39
-292.94
-274.94
-234.72
-180.97
-123.61
-71.42
-31.09
-6.82
0.20
-7.41
-22.82
-36.31
-38.33
-23.48
6.94
45.52
82.21
108.62
120.94
120.27
110.51
95.79
79.05
62.24
47.07
35.60
29.73
30.19
36.04
44.87
54.01
61.90
68.80
76.55
87.66
103.65
124.20
147.34
170.03
189.43
203.99
213.70
219.44
222.18
222.01
217.94
208.38
191.69
166.79
133.37
92.33
46.06
-0.76
-41.73
-70.49
-82.76
-78.98
-64.96
-50.26
-44.52
-53.19
-75.55
-105.70
-135.85
-160.32
-177.69
-189.94
-199.49
-206.49
-208.13
-201.18
-185.49
-166.05
-151.23
-148.08
-157.03
-170.57
-176.77
-165.57
-134.20
-88.16
-37.74
7.08
39.78
57.58
59.35
43.93
11.25
-35.46
-88.15
-135.61
-167.81
-180.15
-175.29
-160.98
-145.64
-134.37
-127.35
-120.52
-108.04
-85.30
-51.05
-8.80
33.68
66.71
81.99
75.75
50.22
12.06
-30.50
-70.41
-102.76
-124.37
-132.65
-125.69
-103.97
-71.77
-37.38
-10.71
0.81
-4.63
-22.44
-43.99
-60.88
-68.77
-68.71
-65.27
-63.08
-63.75
-65.43
-64.44
-58.15
-47.34
-35.89
-28.49
-27.64
-31.66
-35.36
-31.71
-15.86
13.28
53.46
100.86
152.37
206.23
261.20
315.23
364.56
404.21
429.74
439.70
435.92
423.12
407.26
393.27
383.05
374.99
364.91
348.38
323.05
289.91
252.87
216.97
185.70
158.80
132.33
100.60
58.45
3.39
-63.87
-139.61
-217.98
-291.82
-353.79
-397.32
-419.44
-423.36
-419.14
-421.03
-441.30
-483.79
-540.69
-595.66
-630.93
-635.95
-612.32
-572.11
-530.74
-498.65
-476.78
-454.56
-419.70
-363.77
-285.92
-192.31
-92.21
6.24
98.64
183.96
261.99
330.59
385.58
422.53
439.44
438.50
425.83
409.92
398.25
394.42
396.72
399.46
395.72
380.19
352.13
313.32
267.76
219.44
170.45
120.14
66.14
6.52
-58.29
-124.91
-188.10
-241.79
-281.51
-305.77
-315.72
-314.18
-303.78
-286.25
-263.02
-236.19
-207.74
-179.39
-151.62
-122.61
-90.92
-56.80
-23.35
4.03
20.51
27.63
34.24
53.28
95.16
161.23
242.27
322.41
386.62
424.01
434.97
428.39
415.42
403.00
390.88
374.04
347.51
313.78
274.20
230.16
180.68
122.78
53.53
-26.91
-113.80
-197.42
-265.53
-310.62
-331.64
-335.07
-330.79
-326.95
-326.79
-328.06
-325.20
-312.78
-291.25
-259.60
-217.04
-162.84
-97.24
-22.70
55.47
130.13
193.81
240.81
270.61
284.92
287.69
282.16
268.88
246.28
213.24
171.67
126.82
86.17
54.43
31.09
10.74
-14.48
-50.37
-97.20
-149.39
-198.53
-237.26
-263.46
-279.45
-289.83
-298.10
-304.45
-306.49
-300.15
-284.06
-256.14
-216.42
-167.23
-113.06
-60.60
-16.84
12.33
24.84
23.47
15.93
11.93
19.87
43.61
81.09
125.22
166.50
197.21
213.46
215.56
205.92
186.80
159.14
121.62
77.10
28.54
-17.80
-54.33
-75.00
-77.98
-66.53
-47.07
-26.16
-7.49
8.00
21.02
30.94
33.84
23.86
-3.27
-46.33
-96.92
-141.66
-167.97
-168.60
-144.19
-101.63
-49.61
3.91
52.48
89.95
109.74
106.52
80.02
38.08
-4.16
-29.19
-25.30
7.67
58.38
109.91
148.06
167.89
174.66
176.77
182.79
196.15
214.23
230.85
240.42
240.77
233.48
221.57
206.97
189.71
168.13
140.86
108.37
73.43
40.43
13.40
-5.59
-17.10
-23.69
-28.81
-35.24
-44.01
-54.17
-63.53
-69.89
-72.18
-70.88
-67.57
-64.27
-62.49
-62.67
-64.16
-65.60
-65.72
-63.95
-60.55
-56.37
-52.42
-49.40
-47.41
-46.03
-44.55
-42.41
-39.45
-35.99
-32.59
-29.77
-27.75
-26.28
-24.84
-22.82
-19.88
-16.19
-12.33
-9.07
-7.04
-6.30
-6.32
-6.10
-4.70
-1.59
2.87
7.64
11.53
13.41
13.10
11.47
10.16
10.56
13.49
18.42
23.76
27.48
27.72
23.11
12.95
-2.23
-20.75
-39.17
-53.07
-58.58
-54.27
-42.31
-27.71
-16.82
-13.87
-19.32
-30.09
-41.80
-51.27
-58.06
-63.69
-70.02
-77.49
-84.44
-88.28
-86.78
-79.01
-65.27
-47.00
-26.43
-6.58
8.89
16.69
15.31
6.23
-6.36
-16.53
-19.78
-14.96
-4.37
7.94
18.56
26.29
31.89
36.66
41.15
44.54
45.39
42.90
37.63
31.43
26.41
24.17
24.87
27.36
29.85
30.76
29.42
26.30
22.66
19.94
19.08
20.13
22.39
24.76
26.30
26.61
25.98
25.16
24.94
25.74
27.52
29.82
32.08
33.79
34.91
35.77
36.91
38.75
41.32
44.22
46.79
48.28
48.17
46.42
43.33
39.32
34.53
28.42
20.07
8.44
-7.04
-26.11
-47.35
-68.57
-87.39
-101.65
-111.26
-117.31
-122.17
-126.81
-131.44
-135.03
-135.78
-132.19
-124.20
-113.54
-103.18
-95.92
-93.20
-94.38
-97.23
-99.25
-98.22
-92.30
-79.33
-56.82
-22.76
20.22
65.43
103.46
125.74
128.54
114.81
92.63
70.91
55.11
45.54
38.72
30.75
20.67
11.67
9.34
17.91
37.08
60.98
80.25
86.46
76.31
53.21
25.87
3.81
-7.75
-9.33
-6.11
-4.31
-7.40
-14.78
-23.09
-28.91
-30.69
-28.93
-24.92
-19.37
-12.45
-3.89
6.26
16.96
26.71
34.21
38.79
40.54
40.02
37.87
34.80
31.59
29.01
27.74
27.92
29.10
30.42
31.16
31.08
30.52
30.13
30.50
31.78
33.75
35.97
38.07
39.85
41.23
42.05
42.08
41.08
38.91
35.54
31.27
25.87
19.23
11.13
1.40
-9.83
-21.99
-34.43
-46.62
-58.31
-69.35
-79.19
-86.51
-89.42
-85.94
-74.96
-56.94
-34.08
-9.67
12.97
31.38
44.63
53.32
58.07
59.46
57.76
52.99
45.19
34.78
22.48
8.96
-5.65
-21.20
-37.49
-53.10
-65.42
-71.34
-68.82
-58.16
-42.26
-25.62
-12.42
-4.80
-2.27
-2.70
-3.75
-4.17
-4.02
-3.99
-4.48
-5.26
-5.68
-5.05
-3.34
-1.13
0.77
1.54
1.10
-0.15
-1.52
-2.29
-2.07
-0.97
0.50
1.71
2.14
1.72
0.71
-0.39
-1.12
-1.22
-0.75
-0.02
0.61
0.81
0.54
-0.05
-0.73
-1.24
-1.48
-1.46
-1.34
-1.27
-1.41
-1.76
-2.27
-2.85
-3.41
-3.91
-4.36
-4.82
-5.32
-5.90
-6.57
-7.34
-8.20
-9.14
-10.18
-11.30
-12.53
-13.85
-15.27
-16.80
-18.45
-20.24
-22.17
-24.26
-26.50
-28.92
-31.46
-34.11
-36.90
-39.84
-42.93
-46.19
-49.65
-53.26
-57.06
-60.93
-64.81
-68.58
-72.07
-74.98
-76.98
-77.64
-76.50
-73.16
-67.20
-58.28
-46.37
-31.68
-14.70
3.83
23.07
42.08
59.32
74.23
86.35
95.38
101.28
104.26
104.65
102.99
100.27
96.63
92.54
88.32
84.18
80.24
76.56
73.10
69.91
66.92
63.99
61.13
58.16
54.90
51.07
46.78
41.39
34.62
26.31
16.51
5.51
-6.15
-17.79
-28.62
-37.83
-44.77
-48.88
-49.93
-47.95
-43.25
-36.45
-28.44
-20.26
-13.04
-7.86
-5.28
-5.50
-8.25
-12.78
-18.07
-23.05
-26.83
-28.98
-29.47
-28.48
-26.51
-24.08
-21.62
-19.39
-17.56
-16.40
-16.30
-17.80
-21.01
-25.82
-31.54
-36.98
-40.66
-41.20
-37.98
-31.44
-22.97
-13.92
-5.48
1.89
8.78
16.35
25.65
36.90
49.02
60.00
68.34
73.02
74.39
74.18
75.09
80.14
92.38
114.84
144.96
181.10
219.40
253.12
273.79
274.16
252.13
213.08
168.86
133.04
115.58
117.47
130.89
143.55
144.87
130.47
103.01
69.45
37.04
11.08
-6.43
-15.78
-18.34
-16.52
-14.42
-18.06
-34.11
-66.98
-115.31
-171.18
-221.54
-252.59
-255.66
-231.34
-190.03
-148.01
-120.62
-115.44
-129.45
-150.69
-164.10
-158.22
-129.47
-82.75
-28.66
20.89
56.72
74.46
74.81
62.33
43.17
23.42
7.76
-1.35
-3.61
-0.35
5.94
12.20
15.16
11.43
-0.69
-20.18
-43.31
-65.01
-80.72
-88.26
-88.58
-85.11
-83.10
-86.17
-95.30
-109.01
-124.76
-139.90
-152.24
-160.46
-164.02
-164.77
-164.52
-164.57
-165.52
-167.23
-168.50
-167.45
-162.30
-152.16
-139.45
-126.28
-113.09
-98.55
-80.13
-55.43
-23.70
13.45
65.69
133.05
208.74
284.34
354.85
418.26
472.13
514.14
541.98
554.09
549.67
531.92
506.51
477.79
446.40
413.42
379.73
345.95
313.15
281.30
251.02
222.95
194.81
164.24
130.83
96.28
63.19
33.53
6.89
-18.16
-43.42
-74.81
-115.70
-164.07
-213.73
-258.34
-294.45
-322.89
-346.70
-369.71
-401.88
-448.51
-507.01
-569.00
-626.51
-675.81
-716.97
-750.90
-778.24
-808.57
-849.07
-900.03
-955.04
-1005.35
-1042.85
-1060.88
-1054.78
-965.08
-772.43
-507.23
-231.76
2.35
176.43
296.77
377.55
430.97
462.18
468.73
450.38
415.26
378.42
353.64
347.80
360.50
387.30
418.64
436.41
425.42
380.78
310.15
229.39
155.99
103.14
78.70
81.50
98.89
116.66
126.87
130.37
132.87
139.42
150.34
166.09
185.23
203.85
218.85
230.07
240.31
252.99
270.01
289.73
314.51
346.38
385.50
430.50
479.88
533.32
591.38
654.32
696.89
702.25
666.85
603.80
532.96
468.16
411.94
358.69
311.40
260.91
208.48
160.80
124.59
101.77
88.46
77.15
60.39
34.17
-3.84
-48.18
-92.30
-132.23
-168.17
-203.25
-240.70
-281.56
-324.30
-367.09
-404.63
-432.89
-450.49
-458.38
-458.29
-451.35
-438.21
-419.83
-399.05
-377.07
-353.69
-326.84
-293.25
-250.43
-198.76
-142.40
-88.21
-43.43
-11.95
6.37
14.06
13.86
7.04
-6.79
-28.51
-58.32
-94.66
-133.85
-170.42
-198.08
-211.27
-207.27
-188.11
-161.06
-136.50
-123.49
-125.46
-137.95
-150.64
-152.12
-135.71
-102.63
-61.04
-21.71
7.29
23.78
31.13
35.09
40.28
48.46
58.39
68.04
76.29
83.67
91.69
101.69
114.29
129.25
145.99
163.44
179.67
191.43
194.53
185.06
161.34
125.18
81.46
36.31
-5.14
-40.12
-68.15
-89.70
-105.11
-114.15
-116.75
-114.16
-109.52
-107.31
-111.85
-125.89
-149.55
-179.69
-210.41
-234.55
-245.86
-241.39
-222.78
-196.02
-168.95
-147.78
-134.19
-125.02
-114.53
-97.96
-74.04
-45.27
-16.18
9.00
28.08
40.83
48.06
50.70
50.19
49.03
50.72
58.53
74.27
97.32
125.12
154.85
184.63
213.46
239.90
260.75
271.19
266.85
246.97
216.20
183.52
158.32
145.60
143.49
144.91
142.32
132.10
115.82
97.71
80.77
64.57
46.09
23.67
-0.17
-19.15
-27.40
-24.06
-15.56
-13.07
-26.99
-61.39
-112.57
-171.73
-229.41
-279.06
-317.91
-346.13
-365.29
-377.41
-384.73
-388.81
-389.55
-384.33
-368.96
-340.44
-299.83
-253.29
-209.61
-176.00
-154.61
-142.96
-137.21
-136.19
-142.51
-159.36
-185.95
-215.16
-235.98
-239.12
-222.23
-191.00
-155.98
-127.05
-109.42
-102.86
-103.58
-106.56
-106.32
-96.98
-72.53
-28.73
34.05
109.68
187.73
257.78
314.17
358.40
397.48
439.38
488.32
542.30
594.66
637.50
665.25
676.19
671.46
652.91
621.59
578.22
524.55
464.77
404.77
349.70
301.76
259.85
220.76
182.07
144.21
109.67
81.95
62.73
50.31
40.61
29.41
14.54
-2.62
-17.74
-27.04
-27.95
-21.24
-11.29
-3.61
-2.08
-7.90
-19.63
-35.08
-54.99
-80.48
-112.19
-148.52
-183.61
-208.68
-216.26
-203.47
-173.50
-136.17
-98.76
-62.75
-23.25
20.03
64.70
102.53
121.78
127.57
117.68
94.33
65.03
31.65
-0.36
-27.82
-50.82
-70.11
-84.71
-93.78
-94.65
-86.34
-72.02
-57.28
-48.62
-49.99
-60.62
-75.45
-89.42
-97.14
-95.64
-85.33
-68.35
-49.35
-32.53
-20.15
-11.85
-6.45
-1.37
5.85
16.42
31.02
47.27
62.19
73.56
80.32
81.59
77.04
65.60
45.82
18.24
-16.77
-55.76
-92.51
-120.31
-135.55
-139.32
-137.83
-139.32
-139.54
-137.04
-132.66
-128.94
-126.73
-123.20
-112.82
-91.82
-66.22
-35.94
-4.92
21.21
37.23
39.80
27.51
0.19
-40.04
-89.66
-141.73
-190.75
-232.05
-263.17
-283.86
-295.49
-288.14
-257.74
-207.78
-147.58
-89.80
-43.05
-8.66
18.30
45.13
76.77
110.91
140.68
159.96
165.97
161.54
152.94
145.80
141.38
136.48
124.87
102.62
71.46
37.39
8.49
-8.57
-10.62
1.67
24.76
52.65
78.95
98.87
109.72
110.97
103.89
90.91
75.56
62.51
56.15
59.45
72.07
89.24
102.97
105.33
92.54
66.91
35.57
6.25
-16.34
-32.03
-44.15
-56.08
-67.73
-74.46
-69.12
-46.25
-5.87
44.99
94.06
128.10
138.32
122.18
84.87
37.37
-7.51
-39.14
-51.96
-46.15
-26.58
-1.34
20.87
33.01
31.01
14.61
-12.39
-43.04
-69.31
-84.91
-87.47
-79.02
-64.30
-48.02
-32.65
-19.12
-8.52
-3.58
-8.10
-24.28
-49.74
-76.49
-93.98
-94.48
-77.63
-50.48
-24.31
-8.52
-6.23
-13.94
-24.82
-32.89
-35.83
-33.91
-27.79
-16.76
0.52
23.59
48.57
68.62
76.96
70.61
52.69
31.57
16.49
13.02
20.60
32.90
41.08
38.18
22.94
-0.08
-23.39
-40.57
-48.95
-49.58
-45.03
-36.68
-23.63
-4.50
19.96
45.66
66.15
76.36
75.39
66.64
55.15
44.16
33.65
21.23
5.00
-14.40
-33.15
-46.39
-50.75
-45.64
-33.00
-15.41
4.12
22.28
34.83
37.27
25.91
-0.58
-39.78
-85.93
-130.98
-168.84
-193.39
-202.65
-198.24
-183.91
-164.07
-141.35
-115.90
-84.85
-46.22
-1.36
44.19
83.35
110.67
125.29
132.37
134.88
140.96
158.65
188.38
220.00
239.34
237.60
215.74
183.14
152.88
136.71
138.98
156.27
179.96
200.25
212.96
213.26
198.52
169.57
130.49
85.52
38.75
-6.31
-46.73
-80.48
-102.73
-114.18
-118.17
-117.87
-117.21
-118.47
-121.75
-125.01
-129.13
-129.54
-125.10
-117.13
-108.50
-104.21
-107.85
-120.35
-138.88
-157.42
-168.69
-168.98
-159.85
-140.23
-119.17
-108.39
-116.48
-144.11
-183.15
-219.81
-241.74
-241.53
-218.92
-180.73
-136.00
-93.30
-59.04
-36.94
-27.44
-28.34
-34.60
-40.14
-40.94
-35.44
-25.06
-12.94
-2.10
6.22
12.56
18.09
23.73
29.38
35.82
45.23
60.44
82.70
110.13
137.35
157.45
165.27
159.84
145.39
129.32
119.00
118.07
125.37
136.00
144.38
147.92
148.55
151.87
164.37
189.49
224.49
260.62
285.96
289.92
267.50
220.85
157.43
87.42
21.16
-32.52
-66.50
-76.14
-60.77
-25.75
17.64
54.87
73.86
69.94
47.09
15.37
-15.09
-38.11
-53.92
-64.27
-71.83
-76.60
-75.14
-64.07
-43.78
-20.46
-0.99
10.27
14.13
14.56
16.28
22.18
31.50
40.82
43.77
36.18
17.44
-8.92
-37.85
-64.79
-87.43
-106.48
-125.54
-153.27
-189.96
-233.90
-279.65
-320.60
-351.32
-368.79
-373.08
-348.23
-292.07
-216.44
-140.86
-79.66
-37.13
-9.93
9.14
28.27
54.57
89.36
130.95
174.42
212.75
238.19
244.41
229.50
197.38
156.39
113.96
76.46
47.61
28.28
17.67
13.35
12.37
12.33
11.15
5.34
-7.88
-29.01
-56.18
-84.66
-110.64
-132.61
-150.76
-166.42
-181.96
-199.35
-219.34
-241.99
-264.01
-281.35
-289.93
-286.30
-269.15
-242.17
-213.23
-188.61
-177.50
-178.26
-180.24
-173.39
-152.87
-118.44
-75.83
-32.35
9.41
41.46
64.84
83.00
98.90
114.16
133.51
158.33
186.41
214.64
240.79
265.08
287.13
306.47
323.16
345.05
376.04
414.87
459.20
508.14
561.19
615.03
663.69
699.52
724.65
737.78
733.86
709.24
664.78
602.78
525.12
434.41
283.31
81.17
-119.82
-273.05
-367.58
-416.53
-440.20
-461.58
-488.08
-518.95
-540.85
-545.99
-535.61
-515.57
-477.29
-419.48
-346.89
-269.38
-200.76
-146.45
-109.74
-90.61
-83.01
-76.73
-66.01
-51.16
-36.26
-25.53
-13.96
6.57
43.11
98.69
170.07
244.69
306.04
340.56
342.58
318.25
279.43
237.20
197.95
162.14
124.79
80.20
25.78
-36.77
-101.43
-160.84
-208.43
-238.85
-248.40
-236.81
-207.85
-169.34
-131.05
-101.42
-84.17
-77.22
-74.62
-70.20
-61.05
-48.29
-35.59
-26.54
-22.84
-24.23
-29.95
-40.18
-56.49
-81.03
-115.11
-158.29
-208.54
-263.14
-319.34
-374.72
-426.89
-473.06
-510.01
-534.41
-543.48
-535.81
-511.62
-472.89
-423.20
-367.17
-309.81
-255.46
-206.92
-164.67
-126.95
-90.67
-52.77
-11.53
32.90
78.96
124.68
168.75
211.08
252.74
295.48
341.15
391.26
446.23
504.54
561.99
611.66
645.39
656.11
640.38
599.78
540.13
468.93
392.31
313.26
232.17
149.22
66.87
-9.19
-71.61
-114.48
-136.24
-140.65
-135.30
-128.41
-125.82
-129.40
-137.55
-147.22
-155.88
-162.51
-167.21
-170.13
-170.47
-166.61
-157.00
-141.28
-120.95
-99.05
-79.11
-63.82
-54.38
-50.39
-50.52
-53.23
-57.35
-62.13
-67.04
-71.37
-74.05
-73.75
-69.34
-60.10
-46.08
-28.10
-7.66
13.38
33.01
49.58
62.06
70.23
74.67
76.53
77.05
77.12
76.88
75.70
72.40
65.78
55.08
40.45
23.02
4.71
-12.31
-26.21
-36.10
-42.19
-45.44
-47.01
-47.81
-48.55
-49.96
-53.14
-59.32
-69.16
-81.94
-95.22
-105.54
-109.75
-106.40
-96.24
-81.56
-64.94
-48.10
-31.57
-15.41
-0.03
13.34
23.02
27.80
27.68
23.93
18.34
12.35
6.50
0.63
-5.40
-11.10
-15.23
-16.50
-14.29
-9.22
-3.01
2.31
5.17
4.91
1.58
-4.44
-12.82
-23.10
-34.27
-44.48
-51.30
-52.49
-46.99
-35.49
-20.23
-4.06
10.53
22.10
30.30
35.32
37.38
36.47
32.57
26.02
17.82
9.48
2.57
-1.87
-3.62
-3.24
-1.69
0.20
1.96
3.61
5.38
7.41
9.51
11.11
11.35
9.37
4.65
-2.72
-11.84
-21.00
-28.04
-30.89
-28.09
-19.26
-5.13
12.65
32.03
50.91
67.47
80.24
88.18
90.85
88.44
81.93
72.87
63.06
54.08
46.83
41.52
37.73
34.78
32.03
29.16
26.15
23.23
20.69
18.72
17.29
16.09
14.46
11.57
6.61
-0.81
-10.24
-20.25
-28.66
-33.15
-32.09
-25.01
-12.82
2.64
19.26
35.20
49.12
60.13
67.51
70.65
69.28
63.77
55.33
45.87
37.38
31.34
28.25
27.65
28.48
29.72
30.75
31.54
32.45
33.82
35.70
37.65
38.90
38.60
36.11
31.18
24.00
15.25
5.99
-2.41
-8.53
-11.23
-10.10
-5.64
0.85
7.75
13.84
18.88
23.80
30.31
40.03
53.58
70.02
87.03
101.62
111.14
114.03
110.15
100.39
86.07
68.38
48.21
26.55
4.85
-14.74
-29.80
-38.34
-39.58
-34.26
-24.39
-12.67
-1.74
6.17
9.53
7.54
0.31
-10.98
-24.05
-35.85
-43.33
-44.26
-37.92
-25.21
-8.20
10.54
28.63
44.27
56.33
64.19
67.59
66.57
61.57
53.43
43.43
33.07
23.77
16.50
11.62
8.85
7.50
6.83
6.26
5.61
4.91
4.35
4.03
3.87
3.64
2.99
1.50
-1.20
-5.30
-10.69
-16.78
-22.48
-26.35
-26.98
-23.40
-15.42
-3.76
10.15
24.55
37.80
48.66
56.40
60.73
61.64
59.34
54.22
46.93
38.43
29.86
22.35
16.76
13.45
12.22
12.39
13.07
13.45
13.00
11.64
9.55
7.08
4.57
2.19
-0.06
-2.40
-5.17
-8.70
-13.24
-18.66
-24.36
-29.23
-31.84
-30.81
-25.33
-15.45
-2.19
12.75
27.42
40.11
49.68
55.59
57.80
56.58
52.38
45.87
37.97
29.83
22.68
17.59
15.12
15.18
17.01
19.43
21.11
20.93
18.27
13.14
6.31
-0.98
-7.19
-10.96
-11.58
-9.24
-5.00
-0.39
3.01
4.14
2.58
-1.35
-6.74
-12.30
-16.46
-17.71
-14.93
-7.83
2.82
15.23
27.08
36.12
40.83
40.72
36.62
29.95
22.11
14.19
6.98
1.14
-2.86
-4.91
-5.41
-4.81
-3.82
-3.12
-3.07
-3.49
-3.80
-3.54
-2.83
-2.36
-2.22
-2.28
-2.25
-1.80
-0.58
1.55
4.14
6.07
6.08
5.60
6.81
11.47
20.21
32.93
49.00
67.07
84.85
99.66
113.96
130.77
151.55
175.48
201.11
227.35
252.74
274.37
287.93
296.32
301.73
302.57
293.37
269.20
229.74
179.95
128.17
83.75
64.23
81.25
134.90
214.46
306.55
402.35
498.59
593.92
630.31
569.26
412.10
202.52
-7.47
-184.05
-313.35
-394.96
-435.29
-453.20
-453.77
-439.48
-415.22
-389.60
-370.55
-361.84
-360.04
-360.03
-357.15
-341.09
-307.21
-259.82
-210.98
-173.60
-155.38
-157.47
-177.18
-210.71
-249.83
-288.40
-323.39
-353.98
-378.72
-394.37
-397.69
-387.78
-366.35
-333.83
-290.62
-237.39
-176.07
-110.06
-44.09
16.57
66.99
104.12
128.25
141.95
147.92
147.23
139.21
122.63
97.49
65.74
31.33
-1.49
-28.39
-47.26
-59.62
-69.96
-83.22
-100.83
-119.46
-132.42
-134.41
-123.15
-102.90
-84.12
-78.78
-93.96
-126.96
-167.06
-201.30
-221.70
-224.68
-211.13
-183.96
-145.25
-95.40
-33.35
39.53
124.21
206.12
268.13
303.35
318.06
328.04
340.91
359.14
382.68
410.66
434.97
452.04
460.47
459.69
449.16
429.43
403.87
376.53
349.71
322.31
293.99
264.73
234.73
202.71
168.26
133.10
99.54
68.47
38.51
8.81
-21.36
-52.81
-89.49
-133.14
-181.43
-230.08
-276.25
-319.74
-361.42
-402.69
-444.92
-494.75
-555.66
-625.95
-700.18
-772.33
-835.95
-883.28
-906.32
-899.18
-867.36
-817.47
-753.68
-677.77
-592.19
-499.79
-403.11
-303.78
-162.96
21.04
215.73
379.96
493.90
559.79
592.81
606.82
608.23
600.00
577.97
543.01
498.04
451.27
408.03
369.19
332.51
295.49
257.03
212.83
163.81
116.99
81.53
62.49
58.77
63.92
68.70
63.60
38.43
-9.90
-75.02
-144.49
-205.07
-245.97
-260.51
-246.53
-207.01
-150.08
-84.19
-15.16
51.77
111.46
158.89
190.30
203.76
198.44
176.22
143.70
112.88
93.67
91.46
104.84
127.43
150.23
163.23
160.62
143.19
119.03
94.19
71.51
49.46
25.22
9.19
10.70
31.04
49.42
63.69
72.93
80.09
81.40
72.98
52.86
19.69
-25.76
-79.63
-132.80
-176.69
-202.01
-201.06
-169.44
-109.74
-34.18
39.88
96.29
127.67
133.11
118.12
90.51
57.58
23.66
-10.90
-47.27
-85.83
-124.55
-163.06
-203.04
-248.44
-303.01
-367.53
-438.32
-506.99
-562.92
-596.32
-603.50
-587.70
-557.45
-522.18
-487.82
-455.48
-422.67
-386.91
-346.19
-300.56
-251.03
-198.52
-142.75
-81.19
-10.85
69.72
157.38
247.69
334.73
412.11
472.54
509.63
521.65
511.90
487.08
451.73
411.26
369.02
326.24
280.87
230.53
177.27
127.55
89.56
66.31
61.05
75.10
108.64
158.49
207.25
235.59
234.00
229.92
232.39
242.77
247.46
240.79
221.15
191.15
158.28
130.82
113.18
100.19
85.93
66.06
41.09
13.79
-11.99
-31.92
-43.59
-47.75
-50.10
-53.49
-57.70
-59.56
-57.17
-51.15
-43.49
-36.59
-31.99
-31.09
-31.72
-30.29
-23.73
-12.48
0.13
10.71
17.79
22.56
27.18
34.60
46.35
61.96
78.93
94.42
106.90
116.59
124.69
131.86
137.85
141.27
140.03
132.10
116.84
95.89
72.91
52.29
37.20
28.00
22.00
14.65
1.52
-20.11
-50.82
-89.83
-135.90
-187.59
-242.75
-297.74
-347.48
-386.77
-412.31
-424.25
-426.19
-423.36
-420.10
-418.13
-416.00
-410.21
-397.01
-373.90
-340.46
-297.97
-248.68
-195.01
-139.08
-82.42
-25.88
30.49
87.46
146.65
209.69
277.26
347.79
416.95
478.10
524.04
549.09
550.93
531.16
494.36
446.15
391.35
333.14
273.25
213.00
153.92
97.74
45.25
-4.55
-54.21
-106.49
-162.51
-220.41
-275.37
-321.13
-351.87
-363.87
-356.22
-330.70
-291.30
-243.87
-195.68
-154.54
-127.32
-117.96
-125.96
-146.33
-171.12
-192.27
-204.37
-205.97
-199.08
-187.15
-172.63
-155.19
-131.94
-99.69
-58.02
-11.23
32.14
62.37
72.81
63.22
40.23
14.78
-2.21
-4.07
9.61
33.90
61.51
86.22
105.00
117.84
126.08
130.29
129.38
121.45
105.83
84.71
63.38
48.32
44.10
50.99
64.60
77.93
84.60
81.55
69.81
53.31
36.63
22.97
13.22
6.37
0.64
-5.37
-12.14
-19.48
-27.04
-34.79
-43.13
-52.71
-63.94
-76.77
-90.60
-104.54
-117.47
-128.13
-135.11
-136.87
-132.29
-121.14
-104.40
-83.91
-61.74
-39.64
-18.85
-0.34
14.91
26.15
33.28
37.40
40.60
45.06
51.88
60.46
69.00
75.88
81.15
86.96
96.78
113.49
137.65
166.64
195.12
216.53
225.18
218.22
196.65
165.20
130.84
100.51
78.62
65.07
55.15
41.41
17.08
-20.70
-69.08
-120.45
-165.50
-197.00
-212.63
-215.21
-210.73
-205.36
-202.94
-204.04
-206.70
-208.02
-205.47
-197.55
-183.76
-164.57
-141.58
-117.65
-96.60
-82.14
-76.60
-79.76
-88.67
-98.31
-102.91
-97.14
-77.30
-42.30
5.57
60.70
115.59
162.80
197.44
218.73
230.07
237.46
246.95
262.50
284.77
311.59
339.17
363.46
381.16
390.19
389.44
378.42
357.16
326.10
286.27
239.27
186.79
129.72
67.43
-1.89
-79.41
-163.05
-246.23
-318.74
-370.29
-394.85
-393.83
-375.78
-352.62
-334.44
-325.25
-322.04
-317.09
-302.22
-272.54
-228.05
-172.82
-112.49
-51.88
6.21
60.79
111.62
158.44
200.48
237.01
267.84
293.41
314.14
329.50
337.68
336.20
323.00
298.03
263.99
225.88
189.52
159.54
137.72
122.58
110.48
97.54
81.63
63.41
45.77
32.00
23.73
20.03
18.13
15.22
10.38
5.23
2.84
5.77
14.51
27.53
42.72
59.25
78.08
101.14
129.20
160.29
189.98
213.33
227.58
233.58
235.08
236.15
238.33
239.63
235.43
221.26
195.38
159.37
116.69
70.29
21.23
-30.64
-84.61
-137.36
-182.56
-212.60
-221.44
-207.02
-172.35
-124.79
-74.24
-30.56
-1.64
8.13
-1.78
-28.90
-69.49
-120.33
-179.66
-246.55
-319.04
-392.83
-461.23
-517.01
-555.24
-574.67
-577.62
-567.99
-548.96
-521.71
-485.64
-439.71
-383.54
-317.88
-244.40
-165.52
-84.78
-7.12
61.35
114.91
150.23
168.12
173.32
172.76
172.77
176.63
183.97
191.71
196.33
195.61
189.02
177.24
161.44
143.40
126.14
114.24
112.69
124.40
147.87
176.54
200.85
212.21
206.53
184.97
151.62
109.88
60.18
0.90
-68.16
-142.35
-211.58
-263.38
-287.97
-281.95
-248.88
-197.13
-136.40
-75.22
-20.20
23.75
53.43
67.58
67.18
54.93
33.89
6.48
-25.51
-59.72
-91.95
-116.07
-125.70
-116.87
-90.11
-50.83
-7.33
32.20
62.26
81.26
91.16
95.79
99.14
103.89
110.57
117.61
121.87
119.75
108.57
87.41
57.20
20.58
-18.80
-56.52
-87.59
-106.87
-110.27
-96.33
-67.33
-29.13
10.95
46.64
74.47
94.00
106.40
112.59
112.09
103.33
84.70
55.55
16.48
-30.96
-84.52
-141.19
-197.09
-247.73
-289.03
-318.46
-335.41
-340.89
-336.37
-322.97
-301.34
-272.13
-236.51
-195.88
-151.52
-103.98
-53.08
1.47
59.02
117.42
173.35
223.57
266.18
301.10
329.83
354.22
375.30
392.84
405.68
412.60
413.11
407.71
397.49
383.56
366.34
345.28
319.04
286.02
245.43
198.25
147.47
97.35
51.93
13.42
-18.68
-46.80
-73.94
-101.94
-130.64
-158.23
-182.36
-201.37
-214.82
-223.33
-227.91
-229.30
-227.74
-223.01
-214.61
-202.02
-184.91
-163.14
-136.55
-104.61
-66.37
-20.91
31.82
90.35
151.57
211.45
265.89
311.45
345.52
365.91
370.72
358.69
330.20
288.52
239.78
191.34
148.85
113.58
81.52
45.04
-3.41
-67.42
-144.25
-225.06
-297.71
-351.01
-378.49
-380.35
-362.89
-335.68
-308.07
-286.16
-271.48
-261.69
-252.73
-241.58
-228.20
-215.74
-208.89
-211.22
-222.56
-238.35
-251.13
-253.73
-242.75
-220.09
-191.84
-165.04
-143.76
-126.83
-108.42
-81.20
-40.28
14.08
76.27
137.83
190.77
230.22
255.39
268.26
271.30
265.47
249.48
220.97
178.70
124.34
62.62
-0.40
-59.66
-112.73
-159.52
-200.65
-235.50
-261.35
-274.33
-271.47
-252.73
-221.63
-184.20
-146.89
-114.54
-89.49
-71.79
-60.19
-52.86
-47.96
-43.63
-37.85
-28.67
-14.90
3.13
23.04
40.62
51.19
51.39
40.70
21.98
0.63
-17.19
-26.37
-24.30
-11.47
9.11
32.88
55.00
71.66
81.00
83.43
81.59
79.38
80.68
87.96
101.32
118.59
136.25
150.90
160.60
165.16
165.64
163.31
158.58
150.96
139.78
125.36
109.65
95.85
87.15
85.36
90.24
99.92
112.01
124.25
134.75
141.43
141.82
133.62
115.59
88.74
57.08
27.20
6.45
0.16
9.10
28.54
49.70
63.29
63.48
50.42
29.83
9.98
-2.19
-3.59
5.01
21.08
42.46
67.85
95.37
120.79
137.37
138.39
120.73
87.05
44.89
2.99
-32.92
-62.68
-91.02
-123.99
-165.01
-212.41
-259.64
-297.69
-318.42
-317.02
-293.09
-249.95
-193.05
-128.19
-60.10
7.90
73.20
132.57
181.23
212.93
221.51
203.53
160.63
100.50
35.30
-22.11
-62.63
-83.97
-90.28
-88.47
-83.25
-74.10
-56.07
-24.22
21.09
71.91
115.14
138.49
136.45
112.89
78.81
46.95
26.40
19.93
24.43
33.31
39.35
36.86
23.12
-0.67
-29.51
-56.11
-73.71
-79.17
-74.27
-64.23
-54.68
-48.79
-46.49
-45.88
-45.47
-45.47
-47.20
-51.40
-56.79
-60.28
-58.63
-50.47
-37.18
-22.03
-8.43
1.72
8.47
13.32
17.94
23.36
29.53
35.51
39.94
41.78
40.82
37.96
34.97
33.67
35.06
38.69
42.58
44.12
41.17
33.15
21.26
8.17
-2.73
-8.16
-5.57
6.17
26.25
51.78
78.27
100.95
116.34
123.47
123.82
120.11
114.44
107.12
96.88
82.19
62.98
41.49
21.64
7.31
0.56
0.82
5.49
11.30
15.62
17.21
16.47
15.32
17.01
25.42
43.81
73.19
111.07
151.60
187.52
213.10
226.56
230.47
229.80
228.75
228.26
225.54
215.90
195.43
162.84
119.54
68.38
12.33
-46.20
-104.95
-161.17
-211.40
-252.37
-282.06
-300.64
-310.21
-313.36
-311.54
-304.20
-289.34
-264.89
-230.56
-188.80
-144.22
-102.11
-66.74
-40.45
-23.94
-17.08
-19.45
-30.00
-46.37
-64.47
-79.65
-88.47
-90.39
-87.92
-84.96
-84.19
-85.24
-84.60
-77.51
-60.61
-33.82
-0.46
34.22
64.97
88.00
101.64
106.43
104.59
99.33
93.92
90.60
89.83
90.33
90.15
87.86
83.55
78.89
76.28
77.67
83.61
92.69
101.69
106.09
100.86
81.94
47.77
0.77
-52.42
-102.49
-140.36
-160.53
-163.03
-153.29
-139.25
-127.72
-121.57
-119.40
-117.40
-112.31
-103.62
-93.68
-86.01
-82.83
-83.68
-85.89
-86.62
-85.09
-83.28
-84.46
-90.63
-100.75
-110.91
-116.27
-113.50
-101.93
-82.60
-56.23
-22.17
20.74
71.68
125.96
175.45
211.55
228.86
227.53
212.69
191.70
170.91
153.81
141.21
132.64
127.61
126.11
128.31
134.09
142.52
151.81
159.29
161.61
155.32
137.93
109.15
71.40
29.19
-12.62
-50.41
-82.75
-110.09
-133.77
-154.57
-171.95
-184.14
-188.99
-185.03
-172.21
-152.24
-128.17
-103.42
-80.62
-60.91
-44.07
-29.23
-15.96
-4.61
3.75
8.21
8.77
6.46
2.67
-1.90
-7.90
-17.20
-31.78
-52.30
-77.09
-102.09
-122.12
-132.56
-131.09
-118.31
-97.63
-73.98
-52.16
-35.39
-24.56
-18.50
-15.17
-13.29
-13.65
-19.40
-34.58
-61.68
-99.08
-140.26
-175.12
-193.12
-186.83
-154.21
-98.86
-28.48
47.28
118.83
177.98
218.85
238.48
237.17
218.28
187.42
151.03
114.84
82.98
57.85
40.49
30.88
27.96
29.51
32.25
32.70
28.38
18.65
4.85
-10.38
-24.23
-34.90
-42.20
-47.64
-53.55
-62.22
-75.25
-93.31
-116.01
-141.66
-167.11
-187.88
-199.40
-198.02
-182.35
-154.14
-118.08
-80.19
-45.62
-16.89
6.62
26.97
47.20
70.37
98.61
132.28
170.22
210.57
251.58
292.11
329.98
363.62
392.59
416.71
434.45
442.95
439.04
420.64
387.41
338.06
273.26
196.89
115.26
34.79
-39.21
-103.09
-154.78
-194.23
-226.92
-259.05
-293.88
-330.91
-367.51
-399.60
-422.57
-431.65
-402.98
-328.34
-224.66
-124.09
-51.04
-12.18
-0.80
-6.35
-20.21
-38.02
-62.03
-93.59
-127.96
-154.98
-168.14
-161.43
-135.77
-97.96
-57.62
-26.10
-10.53
-10.89
-21.49
-34.83
-44.33
-46.67
-41.04
-28.41
-11.44
6.58
24.15
41.95
62.12
86.59
115.07
145.09
173.02
194.78
207.79
211.83
207.70
196.44
177.80
150.46
114.10
71.79
30.07
-2.97
-20.97
-22.27
-9.40
11.67
34.44
54.04
69.09
81.30
92.86
104.30
105.39
87.84
50.53
1.79
-47.28
-88.93
-120.62
-143.35
-158.65
-166.17
-162.77
-143.53
-105.10
-50.50
11.29
68.37
110.09
130.49
129.71
114.33
86.36
52.27
17.57
-13.67
-38.26
-53.59
-58.29
-52.99
-40.34
-25.17
-11.71
-3.08
0.38
0.90
1.34
2.66
2.98
-1.54
-14.86
-37.61
-67.31
-99.01
-127.05
-147.14
-157.59
-158.86
-152.93
-143.02
-131.36
-119.62
-109.31
-101.79
-98.14
-99.03
-103.46
-110.07
-118.98
-128.77
-136.50
-139.33
-134.97
-121.94
-99.68
-66.17
-20.61
32.23
87.77
142.49
191.70
230.67
255.93
266.12
265.43
258.36
242.48
217.74
188.61
160.08
137.43
125.02
124.93
140.68
171.97
207.73
240.58
270.22
297.67
324.16
349.83
344.80
291.72
234.77
192.40
156.16
126.07
101.87
81.54
61.37
37.40
11.87
-11.47
-36.34
-63.16
-88.29
-110.19
-128.48
-142.65
-151.28
-149.26
-133.79
-112.17
-91.93
-77.29
-71.05
-73.06
-80.39
-89.03
-93.58
-91.31
-86.12
-81.52
-78.50
-77.76
-79.62
-84.23
-91.58
-100.43
-109.67
-120.29
-132.56
-145.24
-156.74
-164.93
-167.54
-162.85
-149.92
-129.23
-102.85
-72.53
-38.81
-1.66
38.77
81.34
123.43
161.52
192.25
213.39
224.26
225.29
217.30
200.79
176.12
144.18
107.48
70.55
39.22
18.93
12.82
20.47
38.08
60.06
81.13
97.88
109.00
114.30
113.37
104.97
87.39
59.67
22.55
-21.55
-69.60
-119.41
-170.27
-222.17
-274.07
-322.39
-360.90
-382.50
-382.03
-358.75
-316.98
-264.70
-210.84
-162.72
-124.71
-98.33
-83.32
-78.68
-83.11
-94.83
-111.45
-130.02
-147.80
-163.00
-175.19
-185.26
-194.60
-204.09
-213.37
-220.70
-223.66
-220.31
-210.18
-194.53
-175.75
-156.17
-136.99
-117.74
-96.44
-70.42
-37.21
4.73
55.42
113.08
174.11
233.70
286.83
329.64
360.33
379.16
387.54
386.75
377.30
359.23
333.13
301.21
267.56
237.10
213.75
198.91
191.04
186.74
182.52
176.43
168.57
160.63
154.91
153.40
157.26
166.66
180.61
196.91
212.40
223.69
228.17
224.98
215.43
202.24
188.10
174.21
159.70
142.46
120.61
93.94
64.23
34.63
7.98
-14.89
-35.81
-58.45
-86.16
-120.00
-157.72
-194.78
-225.59
-245.52
-252.27
-246.54
-231.42
-211.35
-190.93
-174.19
-164.94
-164.93
-173.16
-186.14
-199.19
-207.57
-207.61
-197.37
-177.00
-150.43
-121.95
-94.35
-68.61
-45.17
-24.53
-7.58
4.76
11.77
9.86
-2.89
-25.32
-53.80
-84.86
-116.08
-146.34
-175.27
-203.00
-233.77
-269.26
-306.18
-337.00
-354.54
-354.25
-335.34
-299.50
-225.91
-112.27
22.37
149.01
247.72
311.63
345.95
358.22
354.28
340.63
320.57
298.48
276.64
259.02
246.01
234.81
221.66
205.03
186.66
166.86
147.44
131.80
124.02
125.70
135.92
151.58
169.35
186.22
197.31
199.25
191.78
177.91
161.64
146.94
136.25
130.32
128.15
125.93
120.62
112.02
103.03
97.07
96.34
100.01
104.93
106.91
99.97
80.52
49.18
10.03
-32.30
-73.91
-113.21
-148.89
-179.15
-205.76
-229.90
-250.77
-266.64
-278.02
-287.06
-298.56
-314.71
-333.74
-357.01
-383.77
-408.89
-424.27
-423.09
-399.95
-356.15
-295.67
-225.83
-165.51
-133.40
-138.24
-175.97
-234.68
-297.99
-356.03
-402.46
-385.92
-281.73
-109.91
79.47
246.12
360.03
439.83
497.90
539.34
565.40
572.44
556.78
522.89
481.75
443.55
415.80
396.73
383.15
372.63
358.00
334.47
303.88
273.02
247.95
232.73
224.42
219.30
214.53
204.77
186.53
160.99
132.84
106.58
85.63
69.01
55.07
42.50
28.58
11.47
-8.31
-28.35
-46.23
-60.09
-70.47
-78.66
-86.17
-95.09
-107.03
-122.18
-139.39
-157.07
-173.77
-189.33
-204.51
-220.76
-239.73
-262.63
-289.60
-319.63
-351.07
-382.21
-412.10
-440.79
-469.30
-499.20
-532.39
-570.78
-615.70
-666.84
-721.14
-772.40
-812.35
-833.05
-829.87
-803.38
-759.25
-705.88
-651.33
-600.74
-555.76
-515.62
-479.12
-445.99
-416.91
-392.41
-371.70
-352.41
-331.30
-305.72
-274.62
-238.84
-200.48
-161.54
-122.93
-84.16
-43.90
-0.98
44.69
91.96
138.82
183.45
224.98
263.90
301.75
340.47
381.81
426.88
476.07
528.94
584.03
638.45
687.83
726.88
750.75
756.50
744.04
716.04
676.72
630.33
580.09
528.18
476.39
426.84
381.99
344.00
313.82
290.59
272.07
255.56
238.95
221.38
203.15
185.19
168.34
152.97
138.87
125.56
112.63
99.95
87.66
75.95
64.81
53.97
43.02
31.68
20.07
8.65
-1.90
-11.00
-18.39
-24.19
-28.74
-32.53
-36.05
-39.71
-43.70
-47.94
-51.92
-54.90
-56.14
-55.31
-52.65
-48.98
-45.36
-42.68
-41.45
-41.71
-43.30
-46.12
-50.18
-55.61
-62.43
-70.43
-79.16
-88.02
-96.57
-104.54
-112.05
-119.50
-127.37
-136.04
-145.54
-155.51
-165.40
-174.69
-182.92
-189.54
-193.33
-191.82
-181.42
-158.13
-118.96
-63.26
6.78
87.00
172.84
260.83
348.78
434.51
514.12
581.20
627.72
646.59
634.49
593.14
528.47
448.01
358.22
263.48
167.16
73.90
-9.05
-72.99
-111.26
-123.07
-115.18
-99.64
-88.50
-88.30
-97.45
-108.09
-111.71
-104.83
-91.35
-79.89
-77.99
-86.81
-100.01
-107.58
-101.82
-82.03
-54.71
-29.44
-13.40
-7.88
-8.58
-9.24
-5.70
2.01
10.69
16.57
17.73
14.75
9.60
3.75
-2.95
-12.22
-26.34
-46.64
-72.52
-101.29
-128.85
-150.94
-164.40
-167.95
-162.20
-149.24
-131.91
-113.15
-95.80
-82.29
-74.37
-72.63
-76.38
-83.97
-93.88
-105.74
-120.48
-139.49
-163.02
-189.13
-213.83
-232.42
-241.09
-237.93
-222.66
-195.81
-158.06
-110.50
-55.16
4.42
63.46
116.78
159.66
188.07
198.37
187.36
153.38
98.28
29.05
-42.47
-102.21
-137.98
-143.23
-118.91
-72.79
-16.81
36.42
76.75
98.73
102.26
91.89
74.84
58.48
47.83
44.51
47.11
52.66
58.49
63.21
66.41
67.87
66.96
62.84
55.19
44.89
34.00
25.05
19.93
19.04
21.17
24.12
25.66
24.51
20.63
15.10
9.40
4.70
1.42
-0.70
-2.24
-3.58
-4.53
-4.44
-2.51
1.74
8.19
16.00
23.85
30.37
34.53
35.85
34.51
31.24
27.04
22.90
19.54
17.25
15.85
14.85
13.69
11.99
9.71
7.12
4.72
2.85
1.58
0.60
-0.74
-3.14
-7.18
-13.07
-20.48
-28.55
-36.01
-41.37
-43.47
-41.82
-36.79
-29.59
-21.86
-15.16
-10.55
-8.43
-8.53
-10.24
-12.78
-15.43
-17.58
-18.86
-19.16
-18.71
-18.09
-18.01
-19.10
-21.67
-25.39
-29.46
-32.70
-34.09
-33.08
-29.96
-25.76
-21.93
-19.85
-20.30
-23.22
-27.65
-32.07
-34.79
-34.44
-30.25
-22.22
-11.08
1.92
15.29
27.56
37.61
44.75
48.77
49.87
48.57
45.58
41.69
37.57
33.78
30.56
27.90
25.62
23.49
21.40
19.37
17.58
16.16
15.13
14.23
12.97
10.78
7.13
1.83
-4.93
-12.40
-19.43
-24.66
-26.82
-25.11
-19.47
-10.62
0.07
10.97
20.65
28.11
32.98
35.33
35.46
33.70
30.32
25.63
20.06
14.22
8.80
4.43
1.30
-0.80
-2.39
-4.03
-5.91
-7.83
-9.28
-9.82
-9.45
-8.71
-8.55
-9.95
-13.49
-19.10
-25.94
-32.65
-37.61
-39.34
-36.90
-30.12
-19.72
-7.14
5.84
17.55
26.90
33.63
38.40
42.49
47.43
54.47
64.16
76.09
88.90
100.70
109.56
114.16
114.04
109.49
101.34
90.51
77.89
64.32
50.69
37.87
26.50
16.76
8.23
0.15
-8.08
-16.31
-23.49
-27.85
-27.70
-22.34
-12.51
-0.31
11.53
20.50
25.12
25.07
20.95
13.80
4.66
-5.43
-15.37
-23.84
-29.52
-31.53
-29.90
-25.72
-20.76
-16.77
-14.70
-14.47
-15.08
-15.34
-14.50
-12.64
-10.59
-9.54
-10.44
-13.67
-18.81
-24.74
-29.93
-32.80
-32.27
-28.08
-20.85
-11.99
-3.22
3.91
8.52
10.48
10.38
9.16
7.68
6.45
5.43
4.13
1.89
-1.86
-7.30
-14.09
-21.51
-28.65
-34.69
-39.05
-41.57
-42.50
-42.42
-42.19
-42.68
-44.65
-48.35
-53.53
-59.37
-64.70
-68.22
-68.83
-65.82
-59.06
-49.05
-36.79
-23.59
-10.70
0.88
10.60
18.38
24.37
28.79
31.79
33.45
33.85
33.17
31.74
29.84
27.75
25.55
23.26
20.82
18.19
15.40
12.41
9.19
5.55
1.28
-3.79
-9.59
-15.76
-21.59
-26.19
-28.73
-28.66
-25.91
-20.94
-14.63
-8.01
-2.05
2.50
5.21
5.86
4.49
1.32
-3.18
-8.33
-13.35
-17.51
-20.47
-22.31
-23.56
-24.83
-26.57
-28.84
-31.29
-33.36
-34.50
-34.39
-33.02
-30.73
-28.12
-25.90
-24.66
-24.60
-25.34
-25.87
-24.80
-20.80
-13.17
-2.06
11.41
25.55
38.55
48.98
56.01
59.48
59.75
57.46
53.28
47.80
41.43
34.53
27.51
20.93
15.41
11.41
8.95
7.50
6.04
3.50
-0.84
-6.99
-14.36
-22.07
-29.44
-36.23
-42.67
-49.11
-55.63
-61.82
-66.82
-69.57
-69.20
-65.33
-58.22
-48.73
-38.08
-27.60
-18.40
-11.17
-6.18
-3.32
-2.32
-2.87
-4.64
-7.29
-10.27
-12.94
-14.67
-15.13
-14.57
-13.78
-13.80
-15.52
-19.26
-24.53
-30.27
-35.23
-38.38
-39.14
-37.37
-33.14
-26.59
-17.95
-7.64
3.66
15.11
26.01
36.04
45.31
54.17
62.77
70.65
76.82
79.99
79.17
74.15
65.57
54.69
42.95
31.50
21.01
11.70
3.66
-2.99
-7.97
-11.04
-12.16
-11.73
-10.43
-9.15
-8.51
-8.80
-9.91
-11.61
-13.82
-16.74
-20.67
-25.57
-30.72
-34.58
-35.23
-31.11
-21.75
-8.22
7.24
21.87
33.37
40.50
43.26
42.45
39.13
34.18
28.12
21.30
14.14
7.24
1.31
-3.11
-5.81
-7.09
-7.50
-7.65
-7.87
-8.06
-7.85
-6.81
-4.89
-2.56
-0.86
-1.03
-4.10
-10.35
-19.18
-29.05
-37.91
-43.69
-44.89
-41.02
-32.70
-21.49
-9.35
1.80
10.54
16.12
18.39
17.60
14.20
8.81
2.10
-5.18
-12.35
-19.01
-25.06
-30.66
-35.93
-40.81
-44.90
-47.69
-48.82
-48.30
-46.60
-44.49
-42.80
-42.17
-42.94
-45.08
-48.26
-51.71
-54.11
-53.45
-47.33
-33.24
-9.34
24.63
66.81
113.19
158.57
197.99
227.65
245.47
251.02
245.17
229.60
206.72
179.42
151.07
125.04
103.92
88.68
78.84
73.21
70.68
70.85
73.66
79.32
87.85
98.70
110.02
119.87
127.32
132.47
136.23
138.61
139.47
138.60
135.77
129.78
120.29
109.11
99.50
95.13
96.62
102.97
112.29
121.82
126.71
123.18
110.97
92.80
73.11
52.77
31.32
7.76
-19.75
-55.53
-102.22
-157.82
-216.35
-269.65
-314.24
-348.56
-372.25
-367.29
-323.93
-251.93
-173.88
-117.39
-78.35
-50.98
-32.08
-17.27
-7.26
-6.60
-18.31
-40.60
-67.75
-92.91
-115.02
-135.06
-153.13
-167.25
-174.66
-171.63
-155.64
-128.50
-96.38
-69.75
-54.75
-49.18
-44.70
-33.50
-12.97
12.89
35.92
49.04
48.36
36.40
19.70
3.86
-10.00
-24.39
-41.87
-61.84
-79.62
-89.53
-87.33
-72.66
-49.87
-26.32
-9.11
-2.04
-4.38
-11.65
-18.07
-18.72
-11.23
3.68
23.05
43.17
61.01
74.87
84.07
88.35
87.28
80.35
67.61
50.20
30.38
10.89
-5.92
-18.76
-27.48
-32.59
-34.78
-34.71
-33.22
-31.53
-31.12
-33.26
-38.44
-46.04
-54.65
-62.68
-69.19
-74.12
-78.13
-81.95
-85.84
-89.27
-91.06
-89.82
-84.56
-75.03
-61.89
-46.46
-30.31
-14.82
-0.91
11.01
20.85
28.52
33.86
36.70
37.08
35.56
33.10
30.93
29.99
30.66
32.62
34.99
36.76
37.17
35.97
33.45
30.19
26.78
23.54
20.40
16.91
12.53
6.76
-0.60
-9.42
-19.24
-29.31
-38.75
-46.47
-51.35
-52.34
-48.76
-40.48
-28.18
-13.20
2.74
17.97
31.24
41.98
50.23
56.43
61.19
65.07
68.41
71.33
73.65
74.72
73.41
68.46
59.12
46.06
31.87
20.76
17.08
23.30
38.46
58.06
75.65
85.45
84.60
73.78
56.15
35.45
14.39
-5.83
-24.92
-42.72
-58.97
-73.74
-88.06
-103.74
-122.25
-143.25
-163.72
-178.45
-181.87
-170.06
-141.96
-99.50
-47.01
9.48
62.79
105.35
130.67
135.36
120.74
92.91
60.89
33.28
15.17
6.91
5.29
6.05
6.27
5.14
3.24
1.01
-2.10
-7.34
-15.65
-26.65
-38.57
-48.81
-54.95
-55.42
-49.73
-38.29
-22.03
-2.27
19.38
40.90
60.04
74.69
83.48
86.16
83.61
77.33
68.49
57.29
43.07
25.34
4.93
-15.31
-31.08
-38.45
-35.69
-24.32
-8.37
7.60
20.61
30.43
38.97
48.49
59.79
71.56
80.93
85.12
82.96
75.49
65.30
55.16
46.78
40.14
34.05
27.13
18.90
10.09
2.20
-3.47
-6.66
-8.23
-9.76
-12.60
-17.32
-23.41
-29.68
-34.70
-37.34
-37.06
-33.97
-28.92
-23.16
-18.14
-15.06
-14.58
-16.71
-20.84
-26.08
-31.40
-35.88
-38.73
-39.41
-37.68
-33.75
-28.22
-21.99
-15.90
-10.38
-5.34
-0.26
5.42
12.03
19.37
26.82
33.53
38.73
41.86
42.61
40.89
36.78
30.54
22.76
14.31
6.29
-0.23
-4.49
-6.28
-5.98
-4.37
-2.53
-1.43
-1.83
-3.94
-7.29
-10.66
-12.22
-9.95
-2.26
11.39
30.17
51.93
73.85
93.21
108.13
117.82
122.38
122.29
117.88
109.26
96.56
80.32
61.63
41.91
22.47
4.07
-13.17
-29.40
-44.65
-58.56
-70.37
-79.35
-85.14
-87.90
-88.26
-87.13
-85.42
-83.98
-83.34
-83.56
-84.03
-83.53
-80.55
-74.00
-63.78
-50.87
-36.99
-23.80
-12.26
-2.46
5.98
13.35
19.42
23.57
25.29
24.64
22.35
19.49
16.90
14.85
13.07
11.08
8.70
6.15
3.92
2.40
1.67
1.45
1.26
0.61
-0.88
-3.43
-6.99
-11.11
-14.89
-17.09
-16.51
-12.50
-5.29
4.00
13.80
22.66
29.68
34.65
37.88
39.78
40.71
40.74
39.81
37.74
34.37
29.67
23.80
17.16
10.39
4.15
-1.00
-4.84
-7.40
-8.97
-9.96
-10.83
-12.15
-14.58
-18.71
-24.81
-32.49
-40.46
-46.79
-49.38
-46.72
-38.50
-25.84
-10.90
3.85
16.34
25.49
31.14
33.76
33.96
32.23
28.99
24.70
19.98
15.50
11.76
8.87
6.45
3.96
0.97
-2.52
-6.04
-8.91
-10.55
-10.83
-10.20
-9.52
-9.80
-11.87
-16.06
-22.10
-29.10
-35.76
-40.60
-42.31
-40.02
-33.59
-23.71
-11.78
0.48
11.54
20.46
27.03
31.61
34.61
36.26
36.53
35.28
32.61
29.01
25.25
22.07
19.90
18.69
18.04
17.39
16.26
14.38
11.70
8.38
4.68
0.97
-2.46
-5.45
-8.09
-10.71
-13.80
-17.84
-23.11
-29.51
-36.42
-42.76
-47.27
-48.81
-46.75
-41.17
-32.80
-22.83
-12.53
-2.93
5.36
12.12
17.41
21.39
24.17
25.68
25.71
23.95
20.19
14.53
7.53
0.16
-6.33
-10.79
-12.48
-11.30
-7.81
-3.06
1.74
5.58
7.91
8.72
8.44
7.55
6.28
4.43
1.42
-3.30
-9.94
-18.06
-26.63
-34.27
-39.59
-41.55
-39.58
-33.69
-24.48
-13.08
-0.88
10.69
20.61
28.44
34.35
38.78
42.16
44.62
45.99
46.06
44.72
42.20
38.92
35.43
32.19
29.51
27.59
26.47
26.03
25.81
25.02
22.57
17.40
8.87
-2.89
-16.87
-31.45
-44.86
-55.80
-63.81
-69.20
-72.55
-74.11
-73.43
-69.59
-61.70
-49.55
-34.07
-17.14
-1.08
12.05
20.92
25.03
24.56
20.28
13.39
5.33
-2.48
-9.09
-14.27
-18.37
-21.87
-24.66
-25.93
-24.48
-19.75
-12.46
-4.65
1.23
3.73
3.27
2.21
3.58
9.47
19.73
31.91
42.17
46.89
44.01
33.48
16.96
-3.00
-23.60
-42.22
-56.53
-64.54
-64.95
-57.57
-43.58
-25.36
-5.93
11.98
26.61
37.39
44.65
49.07
51.29
51.68
50.66
48.83
47.07
46.20
46.46
47.19
46.80
43.43
35.77
23.81
8.91
-6.60
-20.34
-30.65
-36.91
-39.31
-38.34
-34.42
-27.89
-19.37
-10.09
-1.94
2.92
2.83
-2.58
-12.04
-22.83
-31.70
-36.01
-34.61
-28.14
-18.63
-8.53
0.23
6.78
11.16
13.89
15.43
15.83
15.05
13.21
10.87
8.89
7.98
8.27
9.33
10.42
10.96
10.81
10.13
9.06
7.35
4.43
-0.30
-6.93
-14.83
-22.82
-29.72
-34.77
-37.91
-39.75
-41.13
-42.76
-45.02
-47.84
-50.67
-52.48
-51.89
-47.47
-38.18
-23.84
-5.33
15.49
36.28
54.80
69.46
79.58
85.32
87.36
86.57
83.64
79.07
73.13
66.03
58.07
49.61
41.10
32.82
24.93
17.39
10.11
3.06
-3.75
-10.25
-16.38
-22.11
-27.43
-32.19
-36.20
-39.26
-41.33
-42.63
-43.64
-44.98
-47.12
-50.29
-54.44
-59.40
-64.91
-70.70
-76.48
-81.94
-86.77
-90.78
-94.00
-96.76
-99.77
-103.90
-109.97
-118.45
-129.27
-141.90
-155.55
-169.60
-184.05
-199.75
-218.06
-240.11
-265.98
-294.38
-322.88
-348.62
-368.93
-381.62
-384.97
-377.62
-358.57
-327.56
-285.27
-233.48
-174.73
-111.64
-46.50
18.91
83.23
145.34
204.53
260.81
315.16
369.52
426.57
489.14
559.22
636.55
717.41
794.35
857.61
897.81
909.22
891.76
850.80
794.69
731.49
666.42
601.33
536.04
470.31
405.11
342.43
284.10
230.57
180.65
132.18
83.19
32.76
-18.80
-70.21
-119.95
-166.60
-209.05
-246.34
-277.75
-302.83
-321.59
-334.44
-342.04
-344.96
-343.48
-337.50
-326.94
-312.07
-293.78
-273.46
-252.71
-232.91
-214.95
-199.17
-185.56
-173.93
-163.96
-155.28
-147.37
-139.72
-131.95
-124.08
-116.61
-110.43
-106.46
-105.31
-106.87
-110.24
-113.88
-116.08
-115.46
-111.37
-104.04
-94.47
-84.04
-74.18
-65.98
-60.14
-56.86
-55.97
-57.06
-59.41
-62.14
-64.16
-64.37
-61.82
-56.03
-47.16
-36.15
-24.45
-13.64
-5.00
0.88
4.05
4.99
4.30
2.42
-0.35
-3.69
-7.20
-10.35
-12.69
-13.97
-14.30
-13.92
-13.05
-11.73
-9.91
-7.73
-5.69
-4.68
-5.73
-9.62
-16.63
-26.47
-38.57
-52.24
-66.79
-81.41
-95.00
-106.27
-114.01
-117.70
-117.73
-115.34
-111.87
-107.84
-102.43
-93.76
-80.04
-60.76
-37.51
-13.28
8.72
26.59
40.35
51.72
63.24
77.29
95.53
118.45
145.14
172.99
197.93
215.28
221.32
214.94
198.13
175.24
150.74
127.37
105.16
82.25
56.65
27.88
-2.32
-30.54
-52.89
-66.34
-69.34
-61.83
-44.73
-19.36
12.78
50.18
91.45
135.48
181.41
228.35
274.59
317.07
351.22
371.68
373.87
355.49
317.51
263.65
199.15
129.03
56.71
-16.04
-88.95
-162.81
-239.24
-320.04
-405.82
-494.04
-577.69
-645.89
-686.77
-691.82
-659.40
-595.69
-512.19
-421.37
-332.42
-249.43
-172.43
-99.82
-30.48
35.62
97.81
154.94
204.93
244.22
268.34
274.08
262.35
239.40
215.50
200.87
201.05
214.27
232.50
245.57
245.86
231.42
205.74
175.27
146.07
121.87
103.76
91.24
83.51
79.88
79.79
81.77
83.02
79.59
67.42
43.63
7.80
-37.51
-87.32
-135.43
-176.09
-205.44
-222.22
-227.61
-224.27
-214.89
-201.06
-182.72
-158.47
-126.48
-85.34
-34.63
24.85
90.98
160.00
226.46
283.48
324.14
343.08
338.17
311.04
266.51
211.21
152.09
95.28
45.39
5.19
-24.57
-45.00
-58.41
-67.29
-73.33
-77.02
-77.99
-75.67
-69.98
-61.31
-50.15
-36.90
-21.85
-5.64
10.43
24.69
35.75
43.16
47.58
50.40
52.89
55.72
58.76
61.36
62.80
62.56
60.44
56.68
51.78
46.52
41.66
37.74
34.78
32.29
29.49
25.65
20.36
13.49
4.96
-5.49
-18.26
-33.72
-51.70
-71.33
-90.99
-108.72
-122.65
-131.44
-134.43
-131.72
-124.07
-112.71
-99.23
-85.36
-72.69
-62.40
-55.14
-50.94
-49.50
-50.33
-52.95
-56.93
-61.80
-66.94
-71.61
-75.07
-76.79
-76.56
-74.65
-71.53
-67.74
-63.69
-59.62
-55.67
-52.09
-49.28
-47.70
-47.75
-49.50
-52.60
-56.27
-59.37
-60.63
-58.92
-53.44
-44.04
-31.25
-16.24
-0.56
14.17
26.64
36.05
42.09
44.81
44.43
41.20
35.50
27.88
19.15
10.38
2.70
-2.93
-5.94
-6.31
-4.52
-1.37
2.23
5.58
8.24
10.12
11.23
11.58
11.09
9.56
6.83
2.79
-2.47
-8.70
-15.41
-21.86
-26.97
-29.45
-28.16
-22.49
-12.69
0.05
13.94
27.08
37.93
45.51
49.43
49.69
46.55
40.54
32.52
23.61
15.12
8.26
3.86
2.21
2.95
5.22
7.94
10.21
11.64
12.52
13.61
15.72
19.16
23.37
27.09
28.82
27.44
22.70
15.33
6.80
-1.07
-6.52
-8.12
-5.00
3.08
15.56
31.08
47.72
63.31
75.99
84.42
87.84
85.97
78.78
66.56
50.12
30.93
11.13
-7.01
-21.69
-32.19
-39.03
-43.49
-46.90
-50.00
-52.70
-54.48
-55.02
-54.62
-54.29
-55.27
-58.47
-64.03
-71.31
-79.18
-86.38
-91.70
-94.04
-92.38
-85.80
-73.89
-57.01
-36.53
-14.61
6.32
24.26
38.15
47.90
54.08
57.38
58.13
56.40
52.18
45.92
38.70
32.06
27.43
25.63
26.46
28.88
31.56
33.45
34.27
34.47
34.92
36.31
38.77
41.58
43.36
42.43
37.40
27.73
14.11
-1.49
-16.21
-27.00
-31.43
-28.29
-17.73
-1.09
19.64
42.31
64.99
86.12
104.45
119.08
129.46
135.51
137.68
136.94
134.62
132.24
131.21
132.53
136.51
142.67
149.84
156.48
161.20
163.09
161.86
157.62
150.52
140.52
127.40
111.04
91.61
69.61
45.59
19.93
-7.06
-34.72
-61.49
-84.75
-101.35
-108.68
-105.80
-94.00
-76.44
-57.12
-39.59
-26.20
-17.97
-15.01
-17.18
-24.27
-35.99
-51.65
-69.86
-88.48
-105.00
-116.97
-122.59
-121.23
-113.49
-101.04
-86.11
-70.89
-56.99
-45.32
-36.11
-29.25
-24.66
-22.35
-22.43
-24.94
-29.62
-35.84
-42.52
-48.19
-51.17
-49.91
-43.30
-31.07
-13.86
6.92
29.36
51.47
71.41
87.66
99.01
104.68
104.54
99.17
89.94
78.74
67.61
58.28
51.79
48.50
48.08
49.81
52.69
55.65
57.68
57.87
55.50
50.00
41.12
28.91
13.99
-2.55
-19.14
-34.09
-45.83
-53.12
-55.22
-51.80
-43.03
-29.46
-12.06
7.98
29.32
50.56
70.16
86.26
96.51
98.27
89.14
67.76
34.53
-8.16
-56.28
-105.01
-149.70
-186.68
-213.77
-230.39
-237.43
-236.88
-231.31
-223.35
-215.17
-208.27
-203.45
-200.97
-200.84
-202.90
-206.62
-210.85
-213.59
-212.24
-204.24
-187.98
-163.51
-132.63
-98.45
-64.38
-33.25
-6.74
14.59
30.91
42.67
50.33
54.39
55.52
54.72
53.20
52.10
52.21
53.77
56.49
59.78
63.04
66.00
68.74
71.65
75.07
78.97
82.75
85.14
84.54
79.44
69.01
53.63
35.03
16.06
0.06
-10.06
-12.62
-7.50
3.99
19.64
37.09
54.26
69.56
81.76
89.89
93.22
91.49
85.19
75.58
64.45
53.62
44.42
37.42
32.34
28.45
24.84
20.86
16.19
10.90
5.32
-0.18
-5.32
-10.10
-14.88
-20.36
-27.45
-36.84
-48.63
-61.84
-74.46
-83.72
-87.03
-82.82
-71.21
-54.01
-34.13
-14.72
1.74
13.82
21.19
24.26
23.86
20.93
16.44
11.45
7.07
4.43
4.48
7.82
14.39
23.46
33.71
43.65
52.13
58.70
63.68
67.81
71.72
75.46
78.41
79.45
77.51
71.96
62.88
51.10
38.07
25.68
16.04
11.13
12.38
20.14
33.58
50.76
69.18
86.42
100.66
110.82
116.45
117.38
113.53
105.02
92.32
76.48
59.02
41.76
26.17
13.08
2.37
-6.80
-15.56
-24.68
-34.17
-43.13
-50.05
-53.52
-53.01
-49.44
-45.22
-43.64
-47.88
-59.73
-78.89
-102.78
-127.11
-146.95
-157.98
-157.50
-144.88
-121.52
-90.14
-54.05
-16.47
19.81
52.36
78.95
97.41
105.79
102.75
88.20
63.82
33.29
2.12
-22.84
-34.62
-27.53
1.23
50.41
114.70
185.85
254.57
312.71
354.52
377.10
380.07
364.81
333.88
290.59
238.58
181.31
121.83
63.05
8.29
-38.51
-73.51
-94.50
-102.65
-102.99
-103.34
-111.84
-134.49
-173.68
-227.94
-292.58
-360.75
-424.39
-475.58
-508.09
-519.01
-509.59
-484.70
-450.64
-412.61
-373.04
-331.53
-286.65
-237.83
-186.61
-136.31
-90.47
-51.30
-18.86
8.44
32.71
55.43
76.79
96.11
112.77
126.83
138.89
149.43
157.86
162.36
160.50
150.63
133.05
110.37
86.97
67.65
56.29
55.04
64.09
81.89
105.60
131.53
155.23
172.17
178.61
172.70
155.45
130.77
104.71
83.59
72.03
71.51
80.38
95.14
112.34
130.15
148.63
168.64
190.06
210.55
225.77
230.96
223.14
202.55
172.52
137.86
102.77
69.33
37.43
5.89
-26.14
-58.50
-90.18
-120.07
-147.40
-171.84
-193.15
-210.88
-224.51
-233.67
-238.36
-238.75
-234.96
-226.99
-215.14
-200.64
-185.87
-173.89
-167.19
-166.40
-169.81
-174.11
-175.75
-172.49
-164.01
-151.51
-136.90
-122.04
-108.49
-97.69
-91.12
-90.13
-95.32
-105.81
-119.00
-130.90
-137.15
-134.30
-120.91
-97.97
-68.51
-36.62
-6.16
20.05
40.63
55.29
64.30
68.17
67.51
63.24
56.66
49.33
42.63
37.30
33.39
30.52
28.31
26.80
26.42
27.59
30.22
33.42
35.60
34.99
30.23
20.87
7.37
-8.91
-26.02
-41.67
-53.39
-58.97
-56.82
-46.52
-28.98
-6.40
18.31
42.19
62.87
78.93
89.73
95.23
95.64
91.33
82.93
71.40
58.10
44.57
32.19
21.79
13.58
7.18
2.02
-2.28
-5.75
-8.23
-9.70
-10.70
-12.23
-15.43
-21.05
-29.00
-38.20
-46.79
-52.53
-53.32
-47.62
-34.87
-15.66
8.25
34.18
59.06
80.16
95.62
104.74
107.82
105.74
99.59
90.43
79.29
67.36
55.88
46.07
38.72
34.03
31.64
30.82
30.96
31.69
32.87
34.20
35.06
34.40
31.09
24.25
13.67
-0.03
-15.41
-30.46
-42.88
-50.46
-51.57
-45.50
-32.72
-14.90
5.61
26.27
44.95
60.25
71.43
78.26
80.69
78.84
73.03
63.94
52.59
40.25
28.25
17.74
9.64
4.56
2.73
3.96
7.62
12.66
17.81
21.83
23.72
22.75
18.47
10.71
-0.15
-12.67
-24.15
-30.75
-28.46
-14.25
12.77
50.99
96.66
144.93
191.09
231.52
264.10
287.88
302.39
306.86
300.09
280.91
249.21
206.80
157.56
106.47
58.06
15.11
-21.60
-52.35
-77.40
-96.43
-109.18
-116.72
-122.09
-129.72
-143.32
-163.83
-188.21
-210.49
-224.29
-225.64
-214.58
-194.63
-170.73
-146.80
-124.38
-102.92
-81.30
-59.35
-38.46
-21.03
-9.19
-3.82
-4.52
-10.24
-19.97
-32.81
-47.27
-60.73
-69.68
-71.07
-64.03
-50.99
-37.22
-28.99
-31.13
-45.40
-70.15
-101.28
-133.81
-163.30
-186.59
-201.83
-208.12
-205.01
-192.18
-169.49
-137.31
-97.17
-52.00
-5.88
37.00
73.40
101.76
122.18
135.65
143.20
145.05
140.71
129.63
112.25
90.50
67.52
46.75
30.85
21.05
16.46
14.56
12.39
8.02
1.35
-5.99
-11.66
-13.96
-12.02
-7.09
-1.96
0.65
-0.48
-4.43
-8.70
-10.20
-6.36
5.57
25.97
52.58
81.68
109.81
134.92
156.48
175.41
193.41
214.24
239.16
265.45
287.59
299.75
298.28
282.78
256.30
224.19
194.97
173.64
159.70
149.04
137.10
121.25
100.84
76.70
31.94
-35.85
-113.80
-183.02
-231.41
-257.44
-265.32
-261.61
-251.34
-237.06
-216.75
-189.17
-155.01
-114.75
-70.26
-23.35
23.10
65.81
101.52
130.52
153.25
169.85
181.62
189.56
194.15
194.45
189.49
178.45
162.79
143.33
113.02
72.43
28.67
-9.40
-37.34
-54.71
-66.45
-74.74
-80.83
-86.37
-92.43
-101.36
-111.09
-120.99
-129.44
-134.84
-136.25
-135.33
-135.47
-138.74
-145.51
-153.78
-160.76
-163.45
-160.75
-153.96
-146.90
-144.11
-148.38
-160.58
-179.32
-201.70
-223.18
-238.87
-244.63
-238.42
-220.58
-192.95
-158.51
-120.64
-82.98
-48.65
-20.18
0.97
14.73
22.74
28.07
33.95
42.46
53.56
65.32
74.97
80.28
80.71
77.83
74.70
74.48
78.94
87.58
97.78
105.98
109.09
105.70
96.46
83.71
70.56
59.92
53.68
52.40
55.36
61.10
67.90
74.32
79.45
82.69
83.26
79.68
69.54
49.86
18.28
-25.63
-79.30
-137.26
-192.51
-238.49
-270.92
-288.34
-291.62
-282.40
-261.99
-231.08
-190.37
-141.54
-87.43
-31.06
25.88
83.73
143.84
206.20
267.14
319.19
353.34
363.20
348.12
313.86
270.18
226.90
190.49
162.90
142.66
127.09
114.04
102.32
91.17
79.70
67.00
52.56
36.82
21.02
6.43
-6.17
-16.94
-26.68
-36.24
-45.88
-55.01
-62.15
-65.37
-62.92
-53.88
-38.77
-19.52
1.06
20.23
36.16
48.09
56.03
59.90
59.13
52.87
40.83
24.10
5.29
-12.30
-25.96
-34.57
-38.88
-40.65
-41.72
-43.14
-45.19
-47.75
-50.85
-54.75
-59.85
-66.28
-73.81
-82.00
-90.41
-98.54
-105.63
-110.34
-110.80
-105.22
-92.69
-73.83
-50.89
-27.20
-6.22
9.41
18.41
20.85
17.84
11.01
2.00
-7.81
-17.59
-27.03
-36.10
-44.83
-52.96
-59.89
-64.89
-67.39
-67.28
-65.02
-61.33
-56.85
-51.97
-46.74
-41.07
-35.04
-29.15
-24.20
-21.00
-19.68
-19.30
-17.89
-13.19
-3.70
10.41
27.41
45.02
61.81
77.99
94.66
112.17
128.38
138.54
137.01
120.31
89.31
49.53
8.99
-24.69
-46.51
-54.43
-48.54
-30.13
-1.76
31.90
63.59
84.84
88.86
73.67
43.40
6.79
-26.38
-49.03
-58.55
-56.12
-44.44
-25.84
-1.91
25.29
51.96
72.63
82.04
77.73
61.85
40.49
21.09
9.07
5.57
7.47
9.36
6.61
-2.41
-15.67
-28.71
-36.90
-37.63
-31.43
-21.68
-13.27
-10.58
-15.76
-27.86
-43.10
-56.27
-62.49
-58.74
-44.76
-22.97
2.35
26.19
44.14
53.39
53.28
45.17
31.83
16.70
3.27
-5.37
-6.75
0.59
16.67
39.71
66.16
91.38
110.79
121.06
120.97
111.34
94.37
72.81
49.26
25.89
4.41
-13.90
-28.33
-38.94
-46.64
-52.98
-59.70
-68.29
-79.66
-94.06
-111.10
-129.71
-148.04
-163.55
-173.32
-174.81
-166.72
-149.55
-125.60
-98.17
-70.64
-45.56
-24.39
-7.72
4.29
11.61
14.44
13.40
9.69
5.00
1.09
-0.53
0.98
5.63
12.53
20.14
26.70
30.73
31.54
29.38
25.19
19.96
14.20
7.67
-0.25
-9.99
-21.14
-32.25
-40.96
-44.61
-41.11
-29.67
-11.29
11.35
34.64
55.12
70.61
80.70
86.49
89.54
90.95
90.82
88.55
83.62
76.21
67.32
58.17
49.53
41.39
33.24
24.66
15.83
7.42
0.09
-6.20
-12.34
-19.82
-29.99
-43.39
-59.48
-76.87
-93.72
-108.20
-118.80
-124.35
-124.13
-117.93
-106.15
-89.83
-70.61
-50.45
-31.41
-15.38
-3.80
2.60
4.00
1.63
-2.38
-5.46
-5.32
-0.77
7.72
17.85
26.14
28.99
24.03
11.13
-7.31
-27.06
-43.31
-52.05
-50.76
-38.72
-16.64
13.54
48.62
84.20
114.99
135.88
143.31
136.35
116.96
89.21
57.84
27.09
0.14
-20.59
-33.00
-35.33
-26.87
-8.86
14.89
38.69
56.45
63.82
59.48
45.26
24.96
2.49
-19.27
-38.81
-55.23
-67.66
-74.87
-75.98
-71.10
-61.61
-49.69
-37.42
-26.12
-16.23
-7.94
-1.73
1.23
-0.50
-7.90
-20.82
-37.67
-55.68
-71.58
-82.44
-86.43
-83.22
-73.98
-60.94
-46.63
-33.07
-21.38
-11.90
-4.52
0.96
4.88
7.94
11.74
18.76
31.94
53.56
84.11
121.56
161.64
198.95
228.51
247.00
253.19
247.42
230.90
205.19
172.35
135.37
98.34
65.80
41.36
26.17
18.21
12.66
3.67
-13.45
-40.51
-75.67
-114.02
-149.03
-174.55
-186.48
-183.75
-168.45
-145.06
-119.13
-95.66
-77.86
-66.55
-60.57
-57.74
-56.21
-55.20
-55.04
-56.55
-60.18
-65.57
-71.75
-77.60
-82.45
-86.06
-88.38
-89.19
-88.02
-84.58
-79.50
-74.61
-72.72
-76.54
-87.46
-104.77
-125.75
-146.58
-163.52
-174.05
-177.19
-173.40
-163.87
-149.88
-132.29
-111.43
-87.27
-59.70
-28.99
4.00
37.51
68.95
95.28
113.71
122.67
122.39
115.10
104.30
93.68
85.82
81.52
79.94
79.38
78.49
76.88
75.24
74.74
76.29
80.09
85.53
91.42
96.22
98.16
95.52
87.15
73.16
55.27
36.53
20.13
7.84
-1.02
-9.27
-20.39
-36.15
-55.19
-73.01
-83.83
-83.21
-70.11
-47.32
-20.05
6.30
28.26
44.89
57.22
66.78
74.36
79.59
81.57
79.82
74.95
68.55
62.54
58.27
56.06
55.25
54.81
53.88
52.18
49.88
47.35
44.76
42.08
39.21
36.24
33.52
31.51
30.53
30.50
30.90
30.96
30.05
28.00
25.19
22.42
20.72
20.97
23.75
29.19
36.92
46.15
55.82
64.77
72.02
76.94
79.28
79.06
76.48
71.81
65.43
57.95
50.20
43.19
37.77
34.41
32.94
32.67
32.62
31.87
29.86
26.46
21.92
16.61
10.85
4.80
-1.60
-8.50
-16.04
-24.33
-33.29
-42.71
-52.17
-60.93
-67.94
-71.86
-71.39
-65.63
-54.48
-38.84
-20.49
-1.70
15.21
28.36
36.55
39.38
37.01
30.03
19.27
5.77
-9.18
-24.00
-37.08
-47.02
-53.04
-55.13
-54.02
-50.81
-46.54
-42.04
-37.78
-34.11
-31.43
-30.22
-30.87
-33.37
-37.15
-41.24
-44.64
-46.81
-47.90
-48.49
-49.06
-49.45
-48.73
-45.50
-38.50
-27.02
-10.97
9.41
33.75
61.56
92.05
124.04
156.22
187.64
217.88
246.77
273.53
296.13
311.33
315.97
308.64
290.89
267.00
242.28
220.93
204.42
191.62
179.99
167.29
152.57
135.94
117.91
98.72
78.34
57.08
36.06
17.11
1.97
-8.72
-15.81
-21.16
-26.48
-32.42
-38.41
-43.50
-47.66
-52.65
-61.76
-78.40
-104.22
-137.94
-175.57
-211.97
-242.92
-266.60
-283.51
-295.17
-302.49
-304.98
-301.30
-290.88
-275.26
-258.19
-244.30
-237.00
-236.76
-240.86
-244.57
-243.15
-233.69
-215.86
-191.65
-164.21
-136.65
-111.16
-88.80
-69.68
-53.30
-38.93
-25.66
-12.42
1.95
18.58
38.16
60.35
83.60
105.10
121.52
130.01
129.20
119.86
104.83
88.20
73.87
64.40
60.29
60.15
61.58
62.17
60.16
54.63
45.21
31.85
14.79
-5.24
-26.78
-47.73
-65.86
-79.60
-88.52
-93.55
-96.40
-98.71
-101.12
-102.88
-101.88
-95.54
-81.86
-60.40
-32.68
-1.81
28.37
54.41
73.99
86.35
92.05
92.71
90.64
88.53
89.06
94.43
105.71
122.29
141.89
161.10
176.32
184.71
184.86
176.94
162.45
143.75
123.55
104.33
87.71
74.06
62.46
51.05
37.90
21.99
3.85
-14.41
-29.71
-38.87
-39.56
-30.85
-13.49
10.13
36.34
60.75
79.10
88.27
86.99
76.13
58.27
36.69
14.35
-6.82
-25.90
-42.70
-57.06
-68.50
-76.23
-79.48
-77.98
-72.33
-63.95
-54.55
-45.55
-37.56
-30.12
-21.81
-10.59
5.42
27.35
54.97
86.47
118.65
147.63
169.92
183.50
188.57
187.37
183.16
178.63
174.45
168.64
157.16
135.51
100.92
53.90
-1.46
-58.69
-111.18
-154.12
-185.33
-204.88
-214.05
-214.62
-208.76
-199.16
-189.04
-181.38
-177.76
-177.62
-178.45
-177.06
-171.18
-160.45
-146.35
-131.31
-117.71
-107.20
-100.41
-96.79
-94.58
-90.77
-81.80
-64.83
-39.17
-7.17
26.30
55.43
75.56
84.71
83.88
76.18
65.40
54.71
46.12
40.57
38.39
39.56
43.76
50.10
57.18
63.25
66.52
65.58
59.50
47.75
30.16
6.80
-22.04
-55.59
-92.42
-130.19
-165.51
-194.12
-211.52
-214.02
-199.95
-170.53
-130.06
-85.13
-43.04
-10.00
10.29
17.20
12.74
0.54
-15.42
-31.75
-46.22
-58.02
-67.58
-76.44
-86.52
-99.33
-114.91
-131.20
-144.12
-148.69
-140.78
-118.88
-85.06
-44.56
-4.24
29.49
52.39
63.25
63.68
57.36
48.75
42.05
40.37
45.18
56.28
72.06
90.03
107.48
122.19
132.73
138.67
140.31
138.40
133.71
126.71
117.40
105.41
90.37
72.17
51.40
29.35
7.81
-11.31
-26.39
-36.41
-41.03
-40.50
-35.60
-27.50
-17.73
-8.01
-0.06
4.74
5.74
3.16
-1.95
-8.10
-13.81
-18.00
-20.15
-20.24
-18.48
-15.13
-10.41
-4.61
1.76
7.86
12.55
14.59
12.97
7.19
-2.41
-14.70
-28.08
-40.93
-52.06
-60.80
-66.95
-70.40
-71.02
-68.61
-63.25
-55.54
-46.59
-37.77
-30.25
-24.71
-21.37
-20.26
-21.48
-25.22
-31.37
-39.16
-46.91
-52.29
-52.99
-47.49
-35.64
-18.74
0.91
20.78
38.68
53.20
63.71
70.17
72.94
72.56
69.73
65.23
59.85
54.31
49.05
44.18
39.41
34.28
28.40
21.82
15.08
9.14
4.94
2.98
2.91
3.43
2.66
-1.36
-9.93
-23.26
-40.16
-58.23
-74.32
-85.29
-88.87
-84.25
-72.29
-55.24
-35.98
-17.16
-0.52
13.32
24.60
33.88
41.56
47.69
52.13
54.89
56.32
57.15
58.10
59.49
61.00
61.80
60.98
58.14
53.66
48.61
44.26
41.39
39.86
38.71
36.55
32.22
25.30
16.12
5.64
-4.95
-14.47
-21.73
-25.69
-25.46
-20.66
-11.63
0.49
14.04
27.28
38.88
48.19
55.12
59.89
62.67
63.44
62.02
58.39
52.86
46.17
39.33
33.42
29.17
26.82
26.15
26.53
27.20
27.43
26.64
24.49
20.89
15.95
9.96
3.26
-3.94
-11.58
-19.73
-28.51
-37.86
-47.55
-57.00
-65.30
-71.25
-73.64
-71.54
-64.69
-53.67
-39.77
-24.63
-9.75
3.88
15.83
26.02
34.50
41.16
45.79
48.17
48.26
46.44
43.49
40.52
38.70
38.95
41.64
46.61
53.27
60.89
68.88
76.69
83.74
89.30
92.52
92.77
89.98
84.77
78.27
71.61
65.45
59.74
53.85
46.90
38.23
27.79
16.21
4.80
-4.80
-11.16
-13.48
-11.97
-7.76
-2.46
2.35
5.59
6.80
6.02
3.46
-0.62
-5.90
-11.99
-18.30
-24.22
-29.32
-33.33
-36.22
-38.00
-38.62
-37.99
-36.12
-33.17
-29.51
-25.61
-21.90
-18.87
-16.99
-16.68
-18.15
-21.22
-25.20
-29.08
-31.91
-33.18
-33.16
-32.85
-33.57
-36.49
-42.02
-49.56
-57.43
-63.34
-64.89
-60.34
-49.14
-32.22
-11.68
9.84
29.90
46.89
60.17
69.86
76.36
80.04
81.16
79.99
77.04
73.14
69.26
66.21
64.33
63.37
62.72
61.77
60.23
58.31
56.48
55.11
54.17
53.08
50.97
47.06
41.01
32.93
23.26
12.36
0.41
-12.50
-26.19
-40.16
-53.52
-65.19
-74.22
-79.85
-81.51
-78.76
-71.24
-58.87
-42.29
-23.09
-3.71
13.14
25.43
32.39
34.70
33.96
31.77
28.99
25.35
19.70
10.73
-2.30
-18.93
-37.45
-55.23
-69.53
-78.28
-80.74
-77.70
-71.29
-64.31
-59.43
-58.54
-62.35
-70.37
-81.10
-92.42
-102.08
-108.18
-109.78
-107.23
-102.06
-96.60
-92.98
-92.25
-93.91
-96.03
-95.95
-91.23
-80.43
-63.43
-41.39
-16.42
8.98
32.35
51.77
66.23
75.64
80.75
82.82
83.06
82.38
81.08
79.00
75.78
71.16
65.06
57.58
48.84
38.81
27.54
15.33
2.97
-8.42
-17.79
-24.91
-30.58
-36.32
-43.54
-52.47
-61.78
-69.10
-72.33
-70.78
-65.60
-59.02
-53.03
-48.21
-43.51
-36.96
-26.91
-12.85
4.40
23.28
42.19
59.99
75.86
88.94
98.03
101.80
99.47
91.52
79.90
67.56
57.36
50.99
48.63
49.26
51.57
54.78
58.62
62.93
66.96
69.31
68.38
63.37
54.80
44.39
34.19
25.56
18.63
12.60
6.48
-0.19
-7.12
-13.49
-18.36
-20.98
-20.78
-17.23
-9.90
1.35
16.07
33.10
50.72
67.03
80.37
89.59
94.16
94.01
89.50
81.41
70.82
58.95
46.80
34.79
22.77
10.23
-3.30
-17.85
-33.10
-48.69
-64.50
-80.78
-97.77
-115.24
-132.27
-147.51
-159.82
-168.97
-175.78
-181.63
-187.73
-194.47
-201.29
-206.95
-209.98
-208.97
-202.79
-190.57
-172.11
-148.12
-120.45
-91.91
-65.55
-43.80
-27.78
-17.13
-10.41
-5.96
-2.64
-0.10
1.42
1.56
0.40
-1.44
-3.08
-3.95
-4.17
-4.43
-5.58
-7.94
-11.09
-14.11
-16.12
-17.00
-17.43
-18.52
-21.11
-25.28
-30.33
-35.19
-39.05
-41.72
-43.50
-44.83
-45.78
-45.80
-43.86
-38.96
-30.56
-18.87
-4.96
9.68
23.54
35.59
45.38
53.00
58.69
62.60
64.53
64.10
61.10
55.87
49.51
43.52
39.20
36.93
36.10
35.42
33.45
29.40
23.53
17.07
11.62
8.42
7.94
10.01
13.80
17.90
20.52
19.98
15.26
6.39
-5.33
-17.54
-26.71
-29.55
-24.71
-13.61
-0.03
11.17
15.68
11.29
-1.51
-18.79
-35.41
-47.62
-54.31
-56.39
-55.48
-52.86
-49.15
-44.68
-38.29
-28.33
-13.59
6.77
33.78
68.67
111.92
162.35
209.85
241.96
252.46
243.71
222.41
195.71
169.69
148.51
135.41
127.85
123.64
120.99
118.27
114.32
108.97
102.76
96.08
88.01
77.60
65.38
52.74
40.73
29.16
16.52
0.64
-20.28
-46.46
-75.97
-104.29
-126.58
-139.99
-144.84
-143.95
-140.89
-138.22
-136.50
-134.77
-131.32
-125.44
-118.19
-111.88
-108.56
-108.70
-110.90
-112.64
-111.69
-106.96
-98.92
-89.23
-79.60
-70.93
-63.03
-54.98
-45.82
-35.15
-23.31
-11.10
0.64
11.51
21.59
31.29
40.85
50.06
58.18
64.20
67.41
67.71
65.76
62.69
59.71
57.67
56.89
57.19
58.04
58.86
59.07
58.25
56.06
52.33
46.92
39.85
31.26
21.39
10.53
-0.97
-12.57
-23.44
-32.28
-37.50
-37.65
-32.12
-21.53
-7.62
7.45
21.98
35.38
48.12
61.01
74.39
87.61
99.34
108.19
113.42
115.29
114.81
113.30
112.05
112.03
113.82
117.40
122.10
126.48
128.68
126.96
120.18
108.04
90.77
68.89
42.89
13.43
-18.33
-50.55
-80.91
-107.21
-127.99
-142.75
-151.74
-155.35
-153.85
-147.40
-136.48
-122.15
-106.09
-90.05
-75.43
-62.86
-52.32
-43.50
-36.19
-30.47
-26.58
-24.69
-24.58
-25.67
-27.14
-28.27
-28.62
-28.26
-27.66
-27.55
-28.60
-31.10
-34.78
-38.78
-41.88
-42.81
-40.64
-35.09
-26.68
-16.69
-7.03
0.04
2.33
-1.81
-12.99
-30.34
-51.51
-72.90
-90.30
-99.84
-98.86
-86.60
-64.53
-36.08
-5.94
21.06
41.01
51.69
52.96
46.41
34.86
21.61
9.89
2.44
1.16
6.81
18.76
34.95
52.29
67.46
77.89
82.47
81.71
77.27
71.20
65.18
60.18
56.51
54.06
52.49
51.25
49.53
46.13
39.86
29.93
16.55
1.11
-14.03
-26.31
-33.85
-36.02
-33.62
-28.34
-22.01
-15.91
-10.48
-5.61
-1.11
2.79
5.31
5.49
2.73
-2.76
-9.89
-16.95
-22.26
-24.71
-24.10
-21.05
-16.65
-12.06
-8.06
-4.94
-2.57
-0.73
0.60
1.05
-0.01
-3.16
-8.51
-15.57
-23.33
-30.63
-36.47
-40.23
-41.41
-39.51
-33.99
-24.62
-12.02
2.12
15.30
25.06
29.99
30.35
27.76
24.47
22.21
21.60
22.02
22.30
21.44
19.12
15.78
12.33
9.66
8.32
8.38
9.53
11.40
13.68
16.25
18.95
21.41
22.79
21.97
17.93
10.33
-0.12
-11.87
-23.10
-32.49
-39.78
-45.61
-50.84
-55.70
-59.33
-60.03
-56.06
-46.65
-32.55
-15.78
1.10
15.97
27.79
36.60
43.07
47.84
51.18
52.95
52.98
51.43
48.89
46.08
43.58
41.47
39.45
37.13
34.37
31.47
28.95
27.21
26.29
25.74
24.86
23.05
19.95
15.58
10.13
3.87
-2.97
-10.13
-17.34
-24.29
-30.69
-36.45
-41.64
-46.46
-51.05
-55.30
-58.66
-60.24
-58.92
-53.83
-44.56
-31.41
-15.31
2.39
20.31
37.29
52.47
65.32
75.47
82.60
86.43
86.84
84.04
78.69
71.82
64.72
58.50
53.83
50.70
48.46
46.12
42.75
37.84
31.44
24.13
16.66
9.74
3.81
-0.89
-4.21
-6.10
-6.72
-6.63
-6.92
-9.01
-14.28
-23.50
-36.36
-51.41
-66.30
-78.43
-85.53
-86.15
-79.86
-67.27
-49.76
-29.24
-7.69
13.06
31.56
46.63
57.29
62.74
62.47
56.65
46.36
33.66
21.08
11.00
4.88
2.93
4.21
7.20
10.38
12.58
13.11
11.56
7.77
1.87
-5.36
-12.38
-17.00
-17.04
-11.22
0.21
15.33
31.24
45.05
54.99
60.84
63.79
65.69
68.13
71.96
77.13
82.95
88.46
92.66
94.71
93.90
89.73
81.91
70.40
55.33
36.89
15.31
-9.03
-35.25
-61.86
-86.79
-107.91
-123.83
-134.55
-141.60
-147.43
-154.33
-163.38
-174.01
-184.32
-192.05
-195.33
-193.15
-185.07
-170.80
-150.18
-123.54
-92.45
-59.98
-30.32
-7.63
5.39
8.37
3.29
-6.39
-16.99
-25.53
-30.18
-30.17
-25.53
-16.89
-5.39
7.44
19.87
30.36
37.89
42.14
43.30
41.85
38.39
33.60
28.47
24.21
22.17
23.27
27.49
33.61
39.51
42.95
42.38
37.60
29.76
20.83
12.87
7.31
4.63
4.38
5.52
6.79
7.13
6.01
3.59
0.61
-1.80
-2.49
-0.63
4.13
11.49
20.68
30.58
39.95
47.67
52.85
55.03
54.14
50.50
44.74
37.68
30.23
23.27
17.51
13.37
10.87
9.62
8.99
8.32
7.25
5.72
3.92
2.08
0.22
-1.91
-4.72
-8.56
-13.59
-19.65
-26.37
-33.20
-39.45
-44.34
-46.98
-46.61
-42.74
-35.39
-25.14
-13.01
-0.21
12.15
23.23
32.51
39.82
45.16
48.65
50.42
50.60
49.33
46.78
43.26
39.19
35.09
31.45
28.60
26.56
25.16
23.99
22.64
20.81
18.43
15.69
12.89
10.28
7.83
5.17
1.62
-3.54
-10.86
-20.50
-32.20
-45.26
-58.61
-70.83
-80.19
-84.84
-83.19
-74.37
-58.70
-37.77
-14.26
8.63
27.86
41.03
46.75
44.73
35.79
21.97
6.35
-7.33
-15.44
-15.56
-7.29
7.56
25.52
42.71
56.00
63.92
66.63
65.33
61.42
55.95
49.54
42.68
36.05
30.58
27.02
25.43
24.80
23.26
18.74
9.94
-3.03
-18.60
-34.37
-47.95
-57.61
-62.43
-62.16
-56.97
-47.56
-35.37
-22.70
-12.50
-7.58
-9.65
-18.55
-32.19
-47.15
-59.78
-67.18
-67.64
-60.63
-46.37
-25.56
0.66
30.33
60.42
86.97
105.81
113.80
109.92
95.67
74.53
50.75
28.08
9.14
-4.66
-12.56
-14.16
-9.32
1.49
16.81
34.19
50.53
62.76
68.45
66.29
56.34
40.08
20.34
0.74
-15.02
-24.29
-26.24
-22.14
-14.82
-7.68
-3.51
-3.86
-8.93
-17.95
-29.71
-42.78
-55.72
-67.04
-75.46
-80.19
-81.23
-79.51
-76.64
-74.50
-74.69
-78.11
-84.76
-93.76
-103.50
-111.93
-117.02
-117.28
-112.16
-102.22
-88.94
-74.24
-59.85
-46.89
-35.82
-26.63
-19.25
-13.70
-10.08
-8.34
-8.03
-8.32
-8.24
-6.96
-4.11
0.18
5.34
10.67
15.53
19.55
22.64
24.89
26.36
26.93
26.28
24.00
19.76
13.59
5.88
-2.63
-11.07
-18.54
-24.20
-27.27
-27.11
-23.36
-16.18
-6.34
4.81
15.72
25.01
31.77
35.67
36.84
35.61
32.41
27.64
21.79
15.43
9.24
3.83
-0.36
-3.30
-5.33
-7.00
-8.81
-10.97
-13.30
-15.31
-16.60
-17.09
-17.31
-18.12
-20.42
-24.68
-30.71
-37.62
-44.06
-48.54
-49.84
-47.25
-40.73
-30.92
-19.01
-6.49
5.20
14.98
22.26
26.98
29.35
29.69
28.35
25.66
22.03
17.96
13.96
10.52
8.03
6.72
6.64
7.71
9.70
12.29
15.09
17.77
20.03
21.67
22.47
22.22
20.70
17.74
13.31
7.63
1.25
-4.95
-9.76
-11.98
-10.69
-5.73
2.05
10.94
18.90
24.23
26.17
25.08
22.23
19.18
17.31
17.39
19.56
23.39
28.11
32.84
36.74
39.19
39.84
38.62
35.65
31.21
25.74
19.86
14.50
10.66
9.19
10.41
13.92
18.63
23.03
25.60
25.20
21.31
14.17
4.80
-5.15
-13.65
-18.78
-19.20
-14.58
-5.58
6.26
19.07
31.05
40.75
47.18
49.77
48.40
43.36
35.44
25.82
15.91
7.01
0.13
-4.33
-6.48
-6.88
-6.36
-5.68
-5.37
-5.64
-6.42
-7.48
-8.68
-10.03
-11.81
-14.41
-18.14
-23.07
-28.85
-34.70
-39.50
-42.01
-41.19
-36.58
-28.55
-18.28
-7.44
2.29
9.76
14.61
17.23
18.55
19.66
21.48
24.66
29.37
35.30
41.70
47.60
52.16
54.97
56.23
56.60
56.84
57.36
58.09
58.62
58.50
57.52
55.75
53.38
50.39
46.41
40.86
33.20
23.30
11.52
-1.23
-13.82
-25.07
-34.04
-40.15
-43.26
-43.63
-41.84
-38.69
-34.90
-31.03
-27.33
-23.79
-20.27
-16.71
-13.18
-9.95
-7.34
-5.50
-4.39
-3.67
-2.91
-1.73
-0.05
1.72
2.88
2.65
0.51
-3.57
-9.11
-15.35
-21.58
-27.38
-32.65
-37.58
-42.45
-47.57
-53.15
-59.28
-65.74
-71.92
-76.73
-78.81
-76.96
-70.54
-59.81
-45.98
-30.84
-16.36
-4.20
4.65
9.90
11.94
11.40
8.97
5.17
0.44
-4.73
-9.65
-13.42
-15.21
-14.63
-11.99
-8.30
-4.85
-2.67
-2.12
-2.79
-3.79
-4.31
-3.95
-2.85
-1.51
-0.50
-0.27
-1.07
-3.07
-6.22
-10.15
-13.88
-15.74
-13.65
-5.77
8.73
29.14
53.31
78.29
101.26
120.28
134.55
144.01
148.74
148.48
142.67
130.94
113.87
93.22
71.78
52.45
37.32
26.94
20.37
15.76
11.28
5.94
-0.27
-6.63
-12.39
-17.34
-21.99
-27.29
-34.03
-42.47
-52.12
-62.02
-71.01
-78.11
-82.58
-83.79
-81.35
-75.10
-65.40
-53.26
-40.14
-27.59
-16.84
-8.46
-2.42
1.51
3.58
3.86
2.44
-0.41
-3.99
-7.37
-9.65
-10.28
-9.34
-7.44
-5.48
-4.20
-4.00
-4.85
-6.43
-8.41
-10.62
-13.10
-16.04
-19.63
-23.91
-28.73
-33.76
-38.45
-42.09
-43.83
-42.93
-38.92
-31.81
-22.11
-10.76
1.17
12.68
22.99
31.52
37.81
41.49
42.29
40.22
35.67
29.47
22.82
16.93
12.68
10.39
9.76
10.07
10.52
10.55
10.00
8.97
7.66
6.18
4.46
2.29
-0.58
-4.42
-9.48
-15.91
-23.60
-31.99
-39.98
-46.09
-48.85
-47.26
-41.15
-31.23
-18.88
-5.77
6.52
16.77
24.19
28.44
29.57
27.95
24.11
18.75
12.56
6.22
0.31
-4.70
-8.54
-11.17
-12.75
-13.54
-13.75
-13.34
-12.14
-9.94
-6.82
-3.28
-0.20
1.51
1.28
-1.02
-5.10
-10.54
-17.00
-24.16
-31.49
-38.05
-42.53
-43.63
-40.59
-33.50
-23.34
-11.54
0.48
11.72
21.59
29.82
36.21
40.57
42.86
43.22
42.09
40.11
37.92
36.09
35.01
34.93
35.87
37.67
39.93
42.12
43.81
44.96
45.93
47.36
49.78
53.24
57.28
60.94
63.16
63.04
60.00
53.91
45.21
35.04
25.39
18.88
18.03
24.33
37.51
55.32
74.29
90.83
102.42
108.23
109.03
106.41
101.98
96.59
90.15
82.04
71.85
59.96
47.87
37.76
31.60
30.17
32.47
36.02
37.65
34.45
24.40
6.55
-18.97
-50.92
-86.66
-122.45
-154.23
-178.96
-195.80
-206.20
-212.79
-217.59
-220.52
-219.18
-210.06
-190.44
-159.92
-120.98
-78.15
-36.28
1.27
33.77
63.08
92.34
124.10
158.52
192.62
221.09
238.10
239.68
225.14
197.02
159.83
118.16
75.41
33.54
-6.11
-41.92
-71.40
-91.78
-101.04
-99.23
-88.95
-74.87
-62.22
-55.05
-55.11
-61.63
-72.10
-83.45
-93.06
-99.36
-101.78
-100.36
-95.26
-86.53
-74.14
-58.32
-39.92
-20.55
-2.45
12.10
21.50
25.30
24.29
20.00
14.06
7.64
1.18
-5.42
-12.58
-20.72
-30.00
-40.32
-51.21
-61.90
-71.42
-78.92
-83.94
-86.69
-88.00
-89.10
-91.29
-95.36
-101.47
-109.13
-117.29
-124.60
-129.43
-129.91
-124.06
-110.14
-87.23
-55.89
-18.32
22.07
61.65
97.64
128.70
154.82
176.51
194.00
206.86
214.22
215.42
210.68
201.28
189.24
176.74
165.25
155.03
145.08
133.54
118.42
98.52
74.02
46.62
19.10
-5.64
-25.47
-39.75
-49.38
-56.36
-63.17
-72.10
-84.79
-101.95
-123.34
-147.71
-173.07
-196.99
-216.97
-230.84
-237.13
-235.29
-225.64
-209.34
-188.01
-163.55
-138.01
-113.34
-91.36
-73.50
-60.59
-52.55
-48.40
-46.33
-44.26
-40.51
-34.27
-25.92
-16.66
-8.03
-1.18
3.36
5.70
6.08
4.45
0.36
-6.94
-17.91
-32.37
-49.29
-66.89
-82.95
-95.20
-101.74
-101.44
-94.25
-81.27
-64.47
-46.01
-27.54
-9.61
8.23
26.80
46.44
66.46
85.13
100.28
110.22
114.38
113.43
109.00
102.92
96.83
91.75
88.15
86.04
85.08
84.74
84.26
82.82
79.71
74.62
67.62
59.21
50.06
40.70
31.37
22.02
12.54
3.04
-5.90
-13.18
-17.51
-17.72
-13.38
-4.95
6.20
18.19
29.07
37.39
42.30
43.57
41.36
36.04
28.10
18.28
7.55
-2.84
-11.51
-17.17
-18.89
-16.32
-9.76
-0.14
11.15
22.61
32.87
41.03
46.70
49.84
50.64
49.31
46.00
40.96
34.57
27.25
19.28
10.67
1.37
-8.31
-17.30
-23.70
-25.38
-20.84
-9.99
5.69
23.71
41.59
57.66
71.39
83.03
92.98
101.30
107.52
110.89
110.72
106.71
99.03
88.32
75.62
62.24
49.56
38.65
30.05
23.62
18.66
14.23
9.53
4.11
-2.06
-8.78
-15.79
-22.89
-29.94
-36.75
-43.04
-48.54
-53.22
-57.30
-61.15
-64.85
-67.80
-68.66
-65.69
-57.56
-44.07
-26.50
-7.35
10.47
24.64
33.95
38.38
38.56
35.21
28.64
18.78
5.58
-10.62
-28.79
-47.19
-63.68
-76.18
-83.14
-83.84
-78.48
-68.12
-54.33
-39.04
-24.21
-11.70
-3.06
0.79
-0.11
-4.54
-10.32
-14.85
-16.03
-13.12
-7.07
-0.23
4.61
5.42
1.85
-4.50
-10.63
-13.31
-10.28
-1.14
12.54
28.01
42.35
53.62
61.14
65.31
66.78
65.80
62.05
54.96
44.45
31.33
17.38
4.76
-4.62
-9.86
-11.19
-9.77
-7.17
-4.81
-3.55
-3.54
-4.47
-5.81
-7.26
-8.83
-10.81
-13.54
-17.11
-21.31
-25.65
-29.68
-33.01
-35.31
-36.11
-34.69
-30.19
-22.07
-10.55
3.28
17.79
31.46
43.52
54.12
63.84
72.96
80.83
85.95
86.57
81.63
71.49
57.86
43.25
30.07
19.92
13.33
10.05
9.46
10.86
13.58
16.82
19.52
20.38
18.08
11.67
1.02
-13.05
-28.88
-44.49
-58.23
-69.27
-77.82
-84.65
-90.42
-94.98
-97.15
-95.27
-87.97
-75.10
-57.98
-39.08
-21.08
-6.07
4.96
12.05
15.83
17.06
16.36
14.23
11.22
7.98
5.30
3.91
4.23
6.29
9.65
13.51
16.91
18.97
19.15
17.46
14.46
11.01
8.00
5.92
4.74
3.92
2.74
0.50
-3.25
-8.66
-15.50
-23.20
-30.73
-36.62
-39.23
-37.11
-29.58
-16.96
-0.69
17.14
34.38
49.22
60.54
67.69
70.26
68.01
60.93
49.57
35.24
19.94
5.97
-4.77
-11.37
-14.07
-14.03
-12.71
-11.18
-9.86
-8.47
-6.53
-3.74
-0.33
2.92
4.98
4.90
2.09
-3.60
-11.99
-22.65
-34.90
-47.55
-58.77
-66.28
-67.98
-62.75
-51.11
-35.27
-18.40
-3.41
7.97
15.69
20.86
24.79
28.16
30.61
31.11
28.82
23.77
17.03
10.39
5.49
3.17
3.14
4.32
5.43
5.74
5.26
4.64
4.60
5.45
6.85
7.97
7.93
6.16
2.58
-2.51
-8.61
-15.25
-21.90
-27.83
-31.96
-33.02
-29.89
-22.09
-10.16
4.40
19.55
33.32
44.33
51.96
56.19
57.20
55.19
50.31
42.85
33.43
23.09
13.03
4.33
-2.34
-6.77
-9.11
-9.70
-8.87
-6.94
-4.24
-1.16
1.84
4.27
5.63
5.56
3.86
0.45
-4.54
-10.82
-17.85
-24.84
-30.77
-34.54
-35.14
-31.97
-25.09
-15.24
-3.69
8.11
18.91
27.85
34.41
38.21
38.90
36.18
30.08
21.19
10.75
0.46
-8.00
-13.43
-15.48
-14.73
-12.41
-9.86
-8.06
-7.39
-7.56
-7.96
-8.07
-7.81
-7.59
-8.22
-10.57
-15.29
-22.51
-31.65
-41.37
-49.68
-54.37
-53.65
-46.76
-34.45
-18.73
-2.35
12.12
23.06
30.04
33.63
34.80
34.34
32.64
29.69
25.38
19.93
13.91
8.24
3.79
1.15
0.31
0.80
1.90
2.89
3.26
2.75
1.30
-1.02
-4.05
-7.52
-11.04
-14.05
-15.81
-15.42
-11.98
-4.77
6.45
21.41
39.24
58.71
78.47
97.31
114.25
128.55
139.68
147.31
151.36
151.87
148.89
142.24
131.63
116.93
98.55
77.67
55.98
35.09
15.84
-2.08
-19.79
-38.60
-59.16
-81.17
-103.38
-124.13
-141.96
-155.98
-165.95
-171.96
-174.20
-172.64
-166.94
-156.65
-141.60
-122.22
-99.81
-76.35
-54.05
-34.77
-19.53
-8.47
-1.14
2.98
4.17
2.42
-2.15
-8.91
-16.48
-22.98
-26.69
-26.74
-23.49
-18.41
-13.29
-9.44
-7.13
-5.64
-3.92
-1.36
1.64
3.84
3.57
-0.49
-8.81
-20.78
-34.74
-48.30
-58.68
-63.32
-60.44
-49.54
-31.67
-9.23
14.71
37.13
55.76
69.23
77.02
79.12
75.85
67.88
56.41
43.16
30.12
19.11
11.24
6.62
4.37
3.07
1.33
-1.73
-6.23
-11.63
-17.15
-22.13
-26.29
-29.81
-33.15
-36.83
-41.22
-46.40
-52.22
-58.27
-63.87
-67.94
-69.15
-66.13
-57.97
-44.69
-27.43
-8.17
10.83
27.73
41.49
51.86
59.01
63.14
64.27
62.38
57.61
50.58
42.37
34.22
27.19
21.86
18.22
15.83
14.16
12.80
11.66
10.89
10.65
10.97
11.62
12.16
12.06
10.88
8.20
3.78
-2.57
-10.70
-20.02
-29.29
-36.79
-40.63
-39.44
-32.80
-21.54
-7.53
6.92
19.72
29.54
35.93
39.05
39.20
36.54
31.03
22.71
12.10
0.38
-10.71
-19.23
-23.75
-23.64
-19.29
-11.81
-2.63
6.88
15.61
22.72
27.56
29.61
28.72
25.07
19.39
12.64
5.80
-0.50
-6.16
-11.53
-17.09
-22.95
-28.59
-32.85
-34.42
-32.26
-26.18
-16.93
-5.94
5.19
15.18
23.26
29.13
32.67
33.74
32.25
28.37
22.84
16.92
12.09
9.37
8.96
10.03
11.24
11.33
9.77
6.96
3.91
1.72
0.94
1.36
2.20
2.50
1.65
-0.43
-3.23
-6.09
-8.51
-10.47
-12.54
-15.55
-20.27
-27.03
-35.53
-44.73
-53.10
-58.78
-59.90
-54.99
-43.28
-25.08
-1.81
24.11
49.72
72.07
88.88
98.83
101.70
98.22
89.70
77.85
64.46
51.34
39.98
31.42
26.09
23.63
23.13
23.37
23.26
22.10
19.75
16.46
12.68
8.83
5.09
1.42
-2.44
-6.79
-11.98
-18.16
-25.31
-33.21
-41.47
-49.69
-57.40
-64.08
-68.89
-70.76
-68.47
-61.13
-48.56
-31.60
-12.06
7.74
25.53
39.68
49.51
55.20
57.48
57.24
55.18
51.67
46.76
40.35
32.47
23.47
14.10
5.40
-1.69
-6.60
-9.49
-11.15
-12.66
-14.97
-18.45
-22.86
-27.56
-32.01
-36.01
-39.92
-44.29
-49.63
-56.04
-63.16
-70.31
-76.64
-81.20
-83.05
-81.22
-74.92
-63.79
-48.18
-29.35
-9.31
9.64
25.38
36.49
42.40
43.38
40.28
34.51
27.99
22.94
21.58
25.47
34.82
48.27
63.16
76.43
85.62
89.48
88.05
82.15
72.88
61.22
48.05
34.29
20.93
8.83
-1.48
-9.91
-16.73
-22.37
-27.27
-31.86
-36.48
-41.13
-45.24
-47.52
-46.31
-40.32
-29.45
-15.18
-0.12
12.96
22.23
27.38
29.24
29.00
27.43
24.51
19.81
13.04
4.55
-4.72
-13.58
-21.11
-26.93
-31.13
-33.94
-35.48
-35.59
-34.02
-30.73
-26.19
-21.44
-17.79
-16.34
-17.50
-20.75
-24.85
-28.35
-30.21
-30.23
-29.14
-28.24
-28.76
-31.23
-35.04
-38.56
-39.66
-36.47
-28.26
-15.73
-0.80
14.11
26.94
36.55
42.75
45.83
46.18
43.94
39.14
32.02
23.27
13.98
5.40
-1.43
-5.92
-8.06
-8.17
-6.84
-4.63
-1.98
0.89
3.85
6.79
9.36
11.00
11.08
9.20
5.61
1.11
-3.12
-6.09
-7.41
-7.40
-6.75
-5.93
-4.72
-2.28
2.58
10.98
23.76
41.53
64.80
93.79
128.26
167.13
208.32
249.09
286.58
318.46
343.15
359.82
367.99
367.35
357.95
340.66
317.65
292.31
268.48
249.07
234.92
224.07
212.22
194.05
164.92
122.60
68.18
5.96
-57.81
-116.85
-166.82
-206.49
-237.67
-263.93
-288.89
-314.65
-341.33
-367.55
-391.39
-411.27
-426.09
-435.01
-437.22
-432.09
-419.68
-401.23
-379.04
-355.83
-333.87
-314.40
-297.61
-283.08
-270.32
-259.11
-249.48
-241.47
-235.05
-230.08
-226.44
-224.03
-222.61
-221.70
-220.61
-218.68
-215.60
-211.48
-206.50
-200.32
-191.55
-177.67
-155.58
-122.74
-78.31
-23.91
36.39
96.79
151.17
194.58
224.47
241.25
247.84
248.62
247.84
248.35
250.96
254.66
257.47
257.38
253.08
244.18
231.13
214.97
197.27
179.89
164.72
153.29
146.18
142.68
140.79
137.79
130.99
118.64
100.40
77.40
51.70
25.50
0.47
-22.70
-44.18
-64.51
-84.10
-102.79
-119.91
-134.73
-146.78
-156.05
-162.66
-166.43
-166.68
-162.42
-153.15
-139.38
-122.68
-104.32
-83.77
-58.31
-24.28
20.65
75.40
135.22
193.50
244.37
285.14
316.33
339.82
356.24
364.24
361.58
347.38
323.64
293.88
261.43
227.48
190.52
147.41
96.90
42.16
-9.12
-47.11
-65.58
-63.59
-45.23
-18.01
9.08
29.43
40.87
45.78
50.19
57.45
69.21
86.26
108.08
131.48
152.80
169.18
180.30
189.46
195.75
196.77
190.22
173.18
141.06
90.74
21.70
-61.15
-146.91
-230.18
-308.84
-382.55
-431.80
-439.32
-404.98
-350.08
-318.37
-310.51
-319.56
-340.58
-358.56
-367.45
-367.14
-360.25
-352.48
-346.01
-337.22
-325.95
-311.86
-292.21
-263.63
-223.59
-155.32
-58.36
52.68
158.90
245.12
307.53
350.00
376.55
388.58
392.39
383.83
363.33
338.21
315.69
300.87
295.51
297.45
302.61
300.55
283.18
248.58
200.77
145.70
89.12
35.31
-13.82
-57.87
-97.21
-133.25
-165.33
-190.84
-207.13
-212.58
-207.22
-192.62
-171.24
-146.03
-120.31
-96.35
-75.30
-57.78
-44.59
-37.03
-36.49
-43.66
-57.69
-76.08
-94.90
-110.16
-119.07
-120.98
-117.11
-109.66
-100.73
-91.72
-83.16
-75.26
-68.34
-63.08
-60.29
-60.64
-64.32
-70.94
-79.44
-88.12
-94.88
-97.48
-93.94
-83.01
-64.48
-39.47
-10.14
20.67
50.06
75.53
95.23
107.98
113.00
109.79
98.11
78.25
51.41
19.86
-13.16
-43.96
-69.20
-86.63
-95.46
-96.33
-90.75
-80.48
-67.11
-51.80
-35.36
-18.43
-1.52
14.83
29.94
42.88
52.46
57.46
57.15
51.76
42.77
32.71
24.43
20.20
21.10
26.81
35.97
46.80
57.49
66.48
72.36
73.89
70.06
60.47
45.72
27.53
8.45
-8.84
-22.34
-31.22
-35.87
-37.54
-37.65
-37.23
-36.44
-34.69
-30.84
-23.66
-12.19
3.96
24.48
48.13
72.93
96.50
116.75
132.67
144.67
154.53
164.49
176.32
190.33
205.26
218.62
227.75
230.68
226.60
215.78
199.15
177.96
153.55
127.18
99.97
72.77
46.19
20.78
-2.86
-23.99
-41.91
-56.23
-67.16
-75.52
-82.41
-88.78
-95.03
-101.18
-107.12
-113.00
-119.28
-126.37
-134.00
-140.81
-144.62
-143.08
-134.76
-119.72
-99.63
-77.16
-55.10
-35.64
-20.09
-8.99
-2.45
-0.33
-2.20
-7.20
-13.98
-20.89
-26.38
-29.39
-29.68
-27.74
-24.57
-21.24
-18.55
-16.87
-16.18
-16.28
-17.06
-18.68
-21.50
-25.97
-32.27
-39.99
-47.95
-54.34
-57.16
-54.87
-46.93
-34.03
-17.87
-0.63
15.67
29.56
40.22
47.29
50.61
50.10
45.95
38.79
29.77
20.44
12.31
6.41
3.07
1.92
2.16
3.06
4.31
6.18
9.26
14.00
20.20
26.75
31.93
33.88
31.37
24.31
13.86
2.21
-8.01
-14.28
-14.77
-8.74
3.25
19.38
37.11
53.74
67.21
76.48
81.58
83.14
81.84
78.09
72.09
64.13
54.86
45.30
36.56
29.45
24.22
20.54
17.79
15.29
12.57
9.33
5.48
1.05
-3.81
-8.94
-14.21
-19.72
-25.87
-33.24
-42.24
-52.63
-63.17
-71.60
-75.29
-72.03
-61.00
-43.10
-20.65
3.28
25.87
45.15
60.10
70.42
76.08
77.18
73.93
66.90
57.15
46.03
34.99
25.16
17.28
11.59
8.08
6.48
6.40
7.26
8.29
8.71
7.85
5.34
1.19
-4.26
-10.53
-17.21
-24.01
-30.90
-38.01
-45.65
-54.14
-63.63
-73.73
-83.24
-90.18
-92.14
-87.16
-74.50
-55.14
-31.58
-7.10
15.34
33.86
47.80
57.39
63.14
65.39
64.28
60.03
53.33
45.45
38.01
32.46
29.63
29.47
31.10
33.29
34.87
35.19
34.18
32.16
29.52
26.41
22.67
18.01
12.28
5.63
-1.49
-8.48
-14.87
-20.37
-24.82
-28.17
-30.51
-32.18
-33.93
-36.84
-41.94
-49.61
-59.10
-68.37
-74.51
-74.69
-67.04
-51.33
-28.97
-2.49
25.24
51.67
75.00
94.04
108.13
116.85
120.13
118.36
112.54
104.25
95.30
87.27
81.17
77.34
75.54
75.23
75.81
76.69
77.28
77.03
75.46
72.41
68.17
63.37
58.70
54.55
50.88
47.34
43.62
39.72
36.01
32.92
30.65
28.92
27.15
24.76
21.43
17.13
11.87
5.43
-2.68
-13.00
-25.61
-39.75
-53.65
-64.88
-70.85
-69.70
-61.11
-46.68
-29.93
-15.47
-7.60
-9.03
-20.05
-38.54
-60.99
-83.74
-103.90
-119.73
-130.38
-135.65
-135.86
-132.17
-126.63
-121.92
-120.52
-123.76
-131.19
-140.73
-149.29
-153.79
-151.87
-142.09
-123.90
-97.60
-64.48
-26.95
11.42
46.41
74.15
92.08
99.86
99.30
93.80
87.23
82.70
81.83
84.41
88.81
92.54
93.10
88.60
78.25
62.68
43.81
24.47
7.71
-3.96
-9.26
-8.37
-2.76
5.36
13.77
20.68
25.00
26.38
24.96
21.19
15.64
8.95
1.74
-5.23
-11.05
-14.71
-15.28
-12.27
-5.93
2.83
12.69
22.37
31.09
38.50
44.59
49.18
51.80
51.65
47.93
40.18
28.48
13.41
-4.14
-23.22
-42.97
-62.61
-81.35
-98.40
-113.03
-124.69
-133.16
-138.46
-140.68
-139.75
-135.37
-127.16
-115.07
-99.74
-82.63
-65.74
-51.11
-40.07
-33.01
-29.46
-28.55
-29.43
-31.51
-34.44
-37.82
-41.08
-43.37
-43.82
-41.57
-35.95
-26.50
-13.16
3.63
22.73
42.34
60.24
74.30
83.00
85.69
82.57
74.41
62.33
47.67
31.93
16.76
3.65
-6.48
-13.74
-19.41
-25.64
-34.50
-47.03
-62.32
-77.54
-88.65
-91.89
-85.23
-69.11
-46.27
-20.70
3.69
23.95
38.57
47.28
50.65
49.82
46.15
41.03
35.56
30.44
25.96
22.38
20.43
21.48
27.30
39.22
57.13
78.80
100.24
116.71
124.33
121.38
108.75
89.35
66.84
44.30
23.49
4.96
-11.47
-25.96
-38.54
-49.26
-58.51
-66.94
-74.95
-82.16
-87.14
-87.88
-82.64
-70.83
-53.44
-32.78
-11.69
7.30
22.46
32.92
38.38
38.85
34.63
26.44
15.57
3.96
-6.28
-13.30
-16.03
-14.54
-9.90
-3.79
2.06
6.57
9.50
11.49
13.72
17.38
23.19
31.09
40.28
49.42
57.00
61.53
61.75
56.79
46.61
32.29
16.25
1.76
-8.04
-11.27
-8.10
-0.49
8.63
16.70
22.33
25.41
26.46
25.93
23.74
19.48
12.89
4.31
-5.25
-14.53
-22.55
-28.94
-33.92
-38.11
-42.00
-45.77
-49.25
-52.10
-54.07
-55.12
-55.58
-55.98
-56.97
-59.12
-62.92
-68.58
-75.91
-84.06
-91.44
-95.95
-95.52
-88.85
-75.95
-58.15
-37.74
-17.10
1.99
18.70
32.90
44.66
53.75
59.60
61.59
59.60
54.35
47.21
39.79
33.31
28.25
24.39
21.08
17.75
14.26
10.89
8.14
6.37
5.51
5.00
3.93
1.38
-3.31
-10.41
-19.73
-30.66
-42.09
-52.51
-60.06
-62.88
-59.55
-49.74
-34.32
-15.27
4.88
23.84
39.83
51.88
59.54
62.71
61.46
56.18
47.70
37.46
27.25
18.88
13.51
11.24
11.00
10.92
9.22
4.97
-1.42
-8.35
-13.87
-16.54
-16.16
-13.80
-11.28
-10.40
-12.37
-17.54
-25.36
-34.59
-43.40
-49.58
-50.96
-45.94
-34.07
-16.31
5.09
27.25
47.34
63.37
74.32
80.06
81.02
77.90
71.46
62.65
52.54
42.30
33.12
25.90
21.07
18.54
17.75
17.93
18.45
18.95
19.45
20.15
21.21
22.38
23.04
22.28
19.23
13.30
4.30
-7.48
-21.39
-36.24
-50.34
-61.55
-67.60
-66.64
-57.84
-41.72
-20.08
4.45
29.05
51.25
69.14
81.31
86.80
85.20
76.75
62.62
44.92
26.47
10.26
-1.26
-6.73
-6.25
-1.22
6.16
13.51
18.88
21.13
19.88
15.40
8.25
-0.85
-11.08
-21.54
-31.25
-39.29
-45.11
-48.66
-50.22
-50.16
-48.47
-44.56
-37.48
-26.52
-11.75
5.78
24.34
42.20
58.16
71.76
82.83
91.07
95.77
96.07
91.59
82.89
71.60
59.77
49.22
40.85
34.64
30.08
26.75
24.69
24.26
25.71
28.73
32.36
35.25
36.19
34.57
30.41
24.27
16.79
8.58
0.19
-7.65
-14.13
-18.54
-20.70
-21.19
-20.99
-21.07
-21.73
-22.62
-23.11
-23.08
-23.42
-25.86
-32.07
-42.35
-54.79
-65.41
-69.58
-63.91
-47.91
-24.47
1.01
22.52
35.56
38.47
32.69
21.81
9.97
0.36
-5.75
-9.13
-12.09
-17.34
-26.79
-40.60
-57.09
-73.42
-86.78
-95.59
-99.95
-101.24
-101.03
-100.25
-98.80
-95.97
-91.06
-83.99
-75.31
-65.83
-56.20
-46.61
-37.03
-27.52
-18.52
-10.87
-5.52
-3.16
-3.87
-7.10
-11.87
-17.11
-22.11
-26.57
-30.59
-34.36
-37.98
-41.38
-44.48
-47.34
-50.31
-53.91
-58.62
-64.66
-71.65
-78.58
-83.87
-85.75
-82.80
-74.42
-61.12
-44.33
-26.06
-8.29
7.43
20.08
29.02
33.86
34.39
30.65
23.22
13.27
2.51
-7.12
-13.84
-16.41
-14.39
-8.13
1.21
11.93
22.15
30.21
34.99
36.20
34.24
29.98
24.30
17.80
10.64
2.67
-6.23
-15.92
-25.70
-34.31
-40.23
-42.09
-39.12
-31.44
-20.16
-7.01
6.05
17.35
25.88
31.27
33.67
33.50
31.29
27.62
23.14
18.49
14.25
10.71
7.81
5.16
2.29
-1.19
-5.30
-9.66
-13.56
-16.20
-16.98
-15.73
-12.84
-9.27
-6.41
-5.80
-8.62
-15.32
-25.17
-36.36
-46.32
-52.40
-52.56
-45.90
-32.72
-14.29
7.53
30.72
53.23
73.11
88.53
97.96
100.48
96.21
86.53
73.85
61.24
51.48
46.37
46.33
50.45
56.96
63.94
69.78
73.39
74.18
71.86
66.42
58.08
47.41
35.23
22.42
9.72
-2.34
-13.15
-21.92
-27.46
-28.55
-24.45
-15.36
-2.64
11.60
25.20
36.61
45.12
50.65
53.30
52.96
49.39
42.54
32.99
22.04
11.53
3.19
-1.86
-3.51
-2.58
-0.42
1.59
2.55
2.22
0.90
-0.86
-2.59
-4.12
-5.65
-7.62
-10.57
-14.86
-20.52
-27.11
-33.68
-38.94
-41.49
-40.25
-34.76
-25.32
-12.87
1.27
15.77
29.51
41.63
51.42
58.22
61.48
60.73
55.89
47.31
35.87
22.87
9.87
-1.67
-10.69
-16.67
-19.60
-19.90
-18.15
-14.98
-11.14
-7.56
-5.45
-6.23
-11.17
-20.99
-35.34
-52.52
-69.55
-82.84
-89.04
-86.11
-74.00
-54.71
-31.61
-8.33
12.13
28.10
39.11
45.42
47.46
45.56
40.04
31.54
21.13
10.29
0.39
-7.71
-13.83
-18.43
-22.24
-25.82
-29.29
-32.34
-34.48
-35.27
-34.64
-32.93
-30.93
-29.72
-30.46
-34.13
-41.18
-51.17
-62.54
-72.76
-78.86
-78.19
-69.37
-52.80
-30.69
-6.34
16.86
36.46
51.43
62.02
69.03
73.22
74.89
74.04
70.76
65.61
59.71
54.41
50.81
49.37
49.89
51.89
55.09
59.45
65.13
71.93
78.98
84.81
88.08
88.12
85.40
81.80
80.11
83.20
93.12
110.37
133.53
159.52
184.19
203.33
213.68
213.63
203.56
185.49
162.08
135.78
108.35
80.73
53.18
25.56
-2.29
-29.84
-55.59
-77.55
-93.97
-103.88
-107.49
-106.28
-102.32
-97.65
-92.41
-85.19
-75.17
-63.79
-54.79
-52.64
-60.19
-76.62
-97.93
-117.44
-129.11
-131.19
-127.23
-123.43
-125.17
-134.69
-150.31
-168.73
-185.00
-194.02
-192.14
-177.54
-149.05
-106.15
-50.32
16.07
77.96
115.64
119.78
97.30
63.81
34.15
17.41
11.24
10.43
9.15
5.17
0.27
-2.41
-1.82
1.55
5.54
6.95
3.51
-5.88
-19.18
-32.17
-41.17
-45.21
-45.84
-46.06
-48.82
-55.06
-63.94
-72.14
-75.18
-69.77
-55.41
-34.33
-10.57
11.57
29.20
41.14
48.22
52.41
55.31
57.28
57.69
55.64
50.74
43.79
36.31
30.21
26.94
26.85
29.06
31.91
33.67
33.20
30.28
25.49
19.79
13.99
8.50
3.29
-1.93
-7.43
-13.27
-19.37
-25.69
-32.41
-39.77
-47.82
-55.96
-62.74
-66.10
-64.07
-55.57
-41.04
-22.42
-2.55
15.71
30.36
40.57
46.54
48.98
48.65
46.06
41.59
35.65
28.84
22.01
16.03
11.64
9.10
8.18
8.22
8.36
7.83
6.22
3.49
-0.09
-4.21
-8.67
-13.49
-18.78
-24.64
-31.05
-37.93
-45.25
-53.08
-61.48
-70.23
-78.60
-85.27
-88.54
-86.86
-79.35
-66.28
-49.06
-29.88
-11.25
4.62
16.22
22.85
24.50
21.68
15.17
5.88
-5.12
-16.61
-27.24
-35.61
-40.56
-41.42
-38.28
-32.06
-24.31
-16.74
-10.78
-7.06
-5.32
-4.61
-3.84
-2.19
0.58
4.24
8.62
13.69
19.61
26.40
33.83
41.72
50.56
61.97
78.53
102.74
135.53
175.18
217.33
256.12
286.16
304.17
309.69
304.75
292.64
276.58
258.98
241.18
223.84
207.49
192.95
181.33
173.62
170.12
170.05
171.79
173.48
173.66
171.60
166.89
158.77
145.56
124.94
94.86
54.90
6.93
-45.30
-97.28
-145.25
-186.90
-221.30
-247.99
-266.43
-275.94
-276.35
-268.81
-255.94
-241.20
-227.80
-217.70
-211.35
-208.09
-206.92
-207.25
-208.94
-212.19
-217.15
-223.63
-231.00
-238.18
-243.68
-245.90
-243.51
-235.92
-223.73
-208.82
-193.97
-182.16
-175.76
-175.86
-181.84
-191.35
-200.59
-204.80
-199.03
-179.14
-142.90
-90.74
-26.05
45.56
117.60
184.38
242.16
289.38
326.00
352.33
368.21
372.87
365.49
346.17
316.38
278.90
237.15
194.31
152.92
114.79
81.34
53.66
32.39
17.34
7.16
-0.39
-7.80
-16.85
-28.01
-40.44
-52.56
-62.85
-70.60
-76.13
-80.60
-85.46
-91.77
-99.73
-108.35
-115.41
-117.68
-111.72
-95.09
-67.66
-32.48
4.53
36.04
55.64
59.92
49.44
28.30
2.63
-21.26
-38.29
-45.39
-41.67
-28.20
-7.84
15.32
36.64
52.03
58.98
57.14
48.28
35.43
21.83
9.85
0.38
-7.25
-14.76
-23.92
-35.52
-48.54
-60.17
-66.74
-65.07
-53.81
-33.99
-8.51
18.88
44.81
66.94
84.00
95.32
100.44
99.07
91.46
78.84
63.56
48.63
36.88
29.88
27.48
27.97
29.01
28.77
26.63
22.87
17.71
10.39
-1.03
-18.50
-42.48
-70.92
-99.72
-124.54
-142.83
-154.88
-163.06
-169.87
-175.87
-179.18
-176.43
-164.76
-143.47
-114.52
-81.70
-49.22
-20.64
1.64
16.22
22.57
20.99
12.81
0.43
-13.08
-24.72
-32.32
-35.17
-34.00
-30.59
-27.12
-25.48
-26.88
-31.66
-39.34
-48.81
-58.59
-67.14
-73.19
-75.98
-75.19
-70.61
-61.78
-47.71
-27.14
0.83
35.97
76.56
119.45
160.88
197.39
226.49
247.12
259.51
265.01
265.62
263.52
260.39
256.81
251.88
243.41
228.80
206.19
175.54
138.98
100.30
63.83
33.08
9.73
-6.80
-19.04
-30.77
-45.94
-67.48
-96.31
-130.77
-166.90
-199.50
-223.70
-236.60
-238.00
-230.30
-217.37
-203.10
-190.44
-180.93
-174.83
-171.30
-168.35
-162.83
-150.57
-127.32
-89.92
-37.69
26.96
98.94
171.80
239.29
296.64
341.06
371.31
387.10
388.57
376.15
350.78
313.90
267.21
212.10
149.56
80.79
8.43
-62.46
-124.69
-170.68
-195.34
-198.18
-183.90
-160.51
-136.41
-117.74
-107.01
-103.53
-105.05
-109.45
-115.38
-122.06
-128.56
-133.50
-135.45
-133.31
-126.71
-116.06
-102.59
-87.97
-73.89
-61.73
-52.48
-47.16
-46.46
-50.46
-58.46
-69.22
-80.85
-90.87
-96.29
-94.30
-84.14
-66.23
-41.69
-11.91
21.01
54.16
84.35
108.91
126.00
132.75
128.26
115.22
99.79
88.71
86.83
96.25
116.52
144.84
173.15
193.24
200.50
195.16
179.93
157.68
130.84
101.70
71.19
33.85
-16.36
-81.84
-159.42
-243.28
-327.48
-406.60
-474.57
-496.70
-450.89
-346.05
-218.64
-103.38
-15.85
44.76
86.23
118.13
145.96
165.17
171.35
163.54
146.60
127.47
111.16
98.72
89.99
82.13
68.24
45.21
14.38
-17.88
-44.69
-57.85
-64.66
-67.65
-71.58
-82.36
-102.46
-129.28
-155.49
-172.96
-176.57
-166.20
-143.81
-114.61
-85.19
-60.54
-42.89
-31.36
-23.86
-18.65
-15.55
-13.79
-13.50
-14.91
-17.60
-20.66
-22.82
-23.23
-21.99
-20.42
-19.45
-20.32
-23.68
-29.34
-36.46
-43.88
-50.44
-55.47
-58.93
-60.84
-61.58
-61.46
-60.65
-59.22
-57.20
-54.52
-50.82
-45.28
-36.44
-22.63
-2.57
24.11
56.26
91.44
126.42
158.01
183.83
202.58
213.87
217.89
215.08
206.20
192.59
176.36
160.17
146.45
136.59
130.38
126.14
121.55
114.68
104.90
92.88
80.04
67.67
56.21
45.20
33.70
21.03
7.20
-7.00
-20.40
-32.01
-41.41
-48.96
-55.50
-62.16
-69.89
-79.09
-89.28
-98.78
-104.95
-104.80
-96.04
-78.08
-52.44
-22.26
8.75
37.41
61.87
81.45
96.25
106.48
112.37
114.26
112.83
109.20
104.50
99.54
94.35
88.49
81.36
72.72
62.94
52.92
43.74
36.24
30.75
27.03
24.40
21.99
19.07
15.22
10.47
5.21
0.01
-4.61
-8.41
-11.50
-14.30
-17.47
-21.61
-27.08
-33.58
-40.14
-45.00
-46.12
-41.69
-30.81
-13.86
7.46
30.56
52.58
70.96
83.91
90.51
90.62
84.74
73.88
59.33
42.68
25.69
10.09
-2.60
-11.32
-15.71
-16.15
-13.61
-9.46
-5.10
-1.75
-0.36
-1.48
-5.19
-11.09
-18.35
-25.93
-32.89
-38.70
-43.38
-47.41
-51.54
-56.51
-62.86
-70.74
-79.66
-88.38
-94.90
-96.90
-92.43
-80.69
-62.48
-40.07
-16.44
5.58
24.04
38.05
47.44
52.29
52.65
48.59
40.40
28.89
15.38
1.47
-11.29
-21.71
-29.11
-33.29
-34.44
-33.00
-29.56
-24.80
-19.45
-14.19
-9.58
-5.99
-3.57
-2.31
-2.08
-2.71
-3.96
-5.58
-7.39
-9.50
-12.29
-16.24
-21.57
-27.63
-32.75
-34.57
-30.88
-20.55
-4.25
15.75
36.32
54.60
68.79
78.33
83.54
85.02
83.22
78.44
71.13
62.05
52.44
43.68
36.97
32.98
31.75
32.69
34.82
37.08
38.52
38.55
37.00
34.08
30.25
25.95
21.46
16.66
11.13
4.25
-4.48
-14.91
-26.01
-35.97
-42.78
-45.20
-43.25
-38.25
-32.09
-26.07
-20.23
-13.42
-4.15
8.33
23.35
38.97
52.84
63.08
68.76
69.87
66.84
60.26
50.76
39.24
26.88
15.12
5.34
-1.46
-4.97
-5.61
-4.41
-2.65
-1.52
-1.77
-3.64
-6.89
-11.14
-16.16
-21.91
-28.58
-36.24
-44.75
-53.84
-63.31
-73.32
-84.18
-95.89
-107.52
-116.94
-121.25
-117.78
-105.21
-84.24
-57.52
-28.78
-1.60
21.46
39.22
51.67
59.36
62.98
63.19
60.50
55.45
48.60
40.52
31.77
23.01
14.89
8.06
3.00
-0.17
-1.80
-2.67
-3.85
-6.44
-11.35
-19.07
-29.55
-42.13
-55.63
-68.48
-79.07
-86.18
-89.24
-88.43
-84.36
-77.63
-68.44
-56.53
-41.46
-23.20
-2.56
18.79
38.77
55.52
68.05
76.27
80.71
81.94
80.07
74.78
65.73
53.16
38.25
23.05
10.02
1.40
-1.31
2.39
11.96
26.01
42.34
58.20
70.62
77.05
76.02
67.65
53.74
37.12
20.64
6.22
-5.68
-15.89
-25.85
-36.62
-48.25
-59.47
-68.13
-71.84
-69.00
-59.36
-44.35
-26.82
-10.26
2.17
8.57
8.78
4.29
-2.50
-9.03
-13.46
-14.91
-13.42
-9.60
-4.11
2.57
10.24
18.84
28.21
37.99
47.60
56.33
63.47
68.39
70.54
69.51
64.98
56.93
45.70
32.03
16.92
1.22
-14.51
-30.05
-45.20
-59.25
-70.72
-77.62
-78.11
-71.40
-58.27
-40.97
-22.51
-5.60
8.03
17.81
23.89
26.59
26.10
22.48
16.07
7.78
-0.93
-8.39
-13.21
-14.73
-13.12
-9.16
-3.97
1.33
5.78
8.68
9.61
8.54
5.78
1.91
-2.46
-6.99
-11.80
-17.50
-24.89
-34.65
-46.89
-60.85
-74.92
-86.91
-94.58
-96.20
-91.01
-79.36
-62.47
-42.06
-19.91
2.39
23.47
42.16
57.57
69.19
77.19
82.41
86.11
89.53
93.39
97.74
102.15
106.08
108.99
110.41
109.73
106.07
98.53
86.54
70.12
49.84
26.47
0.56
-27.64
-57.83
-89.08
-119.35
-145.60
-164.39
-172.90
-169.73
-155.37
-132.10
-103.30
-72.70
-43.54
-18.08
2.59
18.29
29.31
36.03
38.63
37.26
32.24
24.38
14.84
5.01
-3.95
-11.35
-17.03
-21.23
-24.25
-26.28
-27.27
-27.05
-25.57
-23.11
-20.38
-18.34
-17.92
-19.72
-23.74
-29.49
-36.21
-42.93
-48.69
-52.40
-52.97
-49.47
-41.42
-29.15
-13.76
3.06
19.56
34.34
46.50
55.51
60.98
62.57
60.06
53.74
44.48
33.81
23.46
14.98
9.22
6.21
5.31
5.42
5.51
4.82
3.11
0.48
-2.71
-6.22
-10.08
-14.63
-20.39
-27.81
-36.98
-47.47
-58.27
-67.90
-74.66
-77.11
-74.41
-66.66
-54.79
-40.30
-24.73
-9.29
5.20
18.23
29.27
37.71
42.89
44.47
42.65
38.22
32.30
25.97
20.09
15.11
11.27
8.70
7.48
7.59
8.73
10.41
12.02
12.90
12.61
10.91
7.71
3.02
-3.11
-10.64
-19.40
-28.91
-38.22
-45.90
-50.21
-49.60
-43.27
-31.49
-15.65
2.23
20.14
36.69
51.19
63.43
73.27
80.27
83.76
83.17
78.49
70.47
60.60
50.73
42.55
37.02
34.17
33.05
32.21
30.21
26.23
20.26
13.05
5.53
-1.69
-8.69
-16.23
-25.35
-36.88
-51.08
-67.47
-84.86
-101.58
-115.70
-125.29
-128.72
-124.93
-113.72
-95.87
-73.03
-47.51
-21.84
1.63
21.17
35.82
45.50
50.76
52.51
51.74
49.19
45.36
40.61
35.40
30.43
26.43
23.92
22.82
22.42
21.64
19.65
16.33
12.44
9.17
7.37
6.85
6.23
3.39
-3.61
-15.54
-31.62
-49.66
-66.79
-80.21
-87.75
-88.04
-80.55
-65.56
-44.16
-18.33
9.29
35.78
58.60
76.18
88.23
95.45
99.15
100.47
100.09
98.11
94.30
88.45
80.72
71.63
62.01
52.74
44.44
37.24
30.67
23.73
15.18
3.98
-10.18
-26.59
-43.55
-58.79
-70.18
-76.40
-77.28
-73.77
-67.43
-59.83
-52.22
-45.39
-39.77
-35.54
-32.59
-30.32
-27.62
-23.12
-15.58
-4.54
9.49
25.12
40.56
54.14
64.65
71.36
73.83
71.81
65.22
54.45
40.50
25.01
10.01
-2.55
-11.34
-15.98
-17.08
-15.97
-14.09
-12.54
-11.67
-11.22
-10.69
-9.75
-8.57
-7.73
-7.94
-9.58
-12.54
-16.29
-20.20
-23.93
-27.57
-31.62
-36.58
-42.51
-48.68
-53.44
-54.66
-50.48
-40.14
-24.44
-5.75
12.67
27.58
36.68
39.17
35.70
28.02
18.30
8.58
0.32
-5.78
-9.72
-11.97
-13.16
-13.80
-14.15
-14.24
-14.00
-13.43
-12.60
-11.65
-10.67
-9.69
-8.72
-7.97
-7.84
-8.93
-11.77
-16.59
-23.07
-30.38
-37.49
-43.45
-47.76
-50.27
-50.97
-49.60
-45.46
-37.64
-25.36
-8.51
12.17
35.14
58.44
80.01
97.92
110.54
116.62
115.46
107.05
92.22
72.50
50.02
27.22
6.66
-9.33
-18.91
-21.22
-16.68
-7.04
4.85
15.74
22.72
23.96
19.07
9.06
-4.06
-17.93
-30.33
-39.59
-44.75
-45.48
-42.03
-35.04
-25.49
-14.52
-3.22
7.65
17.88
27.78
38.02
49.07
60.88
72.62
82.89
90.12
93.17
91.74
86.48
78.84
70.40
62.29
54.75
47.20
38.76
28.91
18.10
7.70
-0.61
-5.71
-7.70
-8.03
-8.79
-11.74
-17.47
-25.13
-32.92
-39.02
-42.48
-43.61
-43.71
-44.35
-46.73
-51.23
-57.47
-64.61
-71.61
-77.43
-80.98
-81.21
-77.38
-69.33
-57.79
-44.24
-30.53
-18.29
-8.57
-1.84
1.83
2.44
0.07
-4.89
-11.41
-17.82
-22.21
-23.20
-20.47
-14.93
-8.25
-2.14
2.25
4.57
5.13
4.47
3.12
1.45
-0.22
-1.68
-2.84
-3.87
-5.12
-6.98
-9.49
-12.15
-13.94
-13.66
-10.40
-3.85
5.54
16.82
28.78
40.26
50.32
58.25
63.56
65.92
65.19
61.43
55.02
46.60
37.11
27.61
19.11
12.29
7.44
4.38
2.58
1.22
-0.60
-3.61
-8.20
-14.24
-21.00
-27.39
-32.32
-35.15
-35.96
-35.56
-35.11
-35.68
-37.76
-41.02
-44.42
-46.48
-45.77
-41.41
-33.31
-22.29
-9.75
2.75
13.89
22.78
28.91
31.82
31.04
26.16
17.17
4.77
-9.50
-23.67
-35.91
-45.12
-51.19
-54.82
-56.94
-58.32
-59.30
-59.87
-59.93
-59.62
-59.29
-59.39
-60.21
-61.55
-62.75
-62.83
-60.82
-56.17
-48.85
-39.33
-28.36
-16.61
-4.51
7.86
20.65
34.02
47.82
61.52
74.05
84.06
90.23
91.60
87.93
79.87
68.74
56.22
43.90
32.96
24.10
17.58
13.54
12.12
13.57
18.02
25.28
34.58
44.46
53.00
58.24
58.64
53.42
42.73
27.46
9.07
-10.69
-29.86
-46.38
-58.33
-64.19
-63.36
-56.24
-44.27
-29.42
-13.71
1.28
14.59
25.73
34.43
40.58
44.17
45.43
44.89
43.26
41.17
38.88
36.25
32.84
28.22
22.27
15.27
7.86
0.83
-5.11
-9.55
-12.42
-14.11
-15.33
-17.09
-20.38
-25.96
-34.06
-44.27
-55.52
-66.25
-74.75
-79.47
-79.34
-73.99
-63.81
-49.85
-33.63
-16.77
-0.83
13.00
23.96
31.70
36.28
38.04
37.48
35.21
31.76
27.60
23.00
18.19
13.38
8.86
4.99
2.08
0.25
-0.67
-1.10
-1.59
-2.58
-4.31
-6.78
-9.84
-13.32
-17.23
-21.70
-26.84
-32.47
-37.90
-41.94
-43.15
-40.37
-33.13
-22.07
-8.62
5.33
18.22
29.22
38.35
46.14
53.12
59.32
64.17
66.72
66.16
62.22
55.53
47.41
39.46
32.96
28.50
25.84
24.16
22.42
19.71
15.33
8.74
-0.47
-12.49
-27.06
-43.14
-59.07
-73.02
-83.64
-90.44
-93.83
-94.67
-93.58
-90.64
-85.43
-77.48
-66.74
-53.83
-39.80
-25.67
-12.04
0.95
13.45
25.36
36.11
44.63
49.68
50.37
46.73
39.76
31.27
23.24
17.20
13.76
12.57
12.76
13.40
13.98
14.58
15.54
17.13
19.14
20.87
21.35
19.76
15.86
10.19
3.94
-1.35
-4.33
-4.27
-1.25
3.93
10.08
16.23
21.96
27.56
33.72
40.99
49.28
57.75
64.94
69.24
69.38
64.81
55.92
43.89
30.50
17.69
6.99
-0.94
-6.48
-10.88
-15.73
-22.20
-30.57
-40.23
-50.02
-58.87
-66.33
-72.52
-77.96
-83.02
-87.63
-91.13
-92.57
-91.10
-86.26
-78.29
-68.03
-56.72
-45.74
-36.17
-28.55
-22.72
-17.92
-13.13
-7.48
-0.68
6.89
14.26
20.29
24.07
25.28
24.24
21.77
18.84
16.35
14.88
14.67
15.69
17.64
20.17
22.92
25.57
27.78
29.18
29.28
27.48
23.28
16.52
7.53
-2.81
-13.32
-22.81
-30.30
-35.12
-36.78
-34.92
-29.45
-20.81
-10.09
1.05
10.94
18.46
23.45
26.62
29.06
31.56
34.30
36.87
38.65
39.24
38.59
36.89
34.27
30.75
26.15
20.40
13.64
6.21
-1.30
-8.26
-14.09
-18.46
-21.28
-22.75
-23.27
-23.19
-22.60
-21.11
-17.97
-12.42
-4.07
6.70
18.72
30.35
39.99
46.47
49.21
48.13
43.47
35.61
25.15
12.88
-0.16
-12.94
-24.70
-35.07
-44.09
-51.86
-58.46
-63.83
-67.94
-70.93
-73.08
-74.61
-75.35
-74.63
-71.51
-65.31
-56.14
-45.02
-33.50
-22.94
-13.94
-6.04
1.85
10.98
22.10
35.27
49.84
64.73
78.66
90.44
99.20
104.50
106.48
105.65
102.69
98.14
92.20
84.83
75.91
65.41
53.49
40.47
26.88
13.54
1.77
-6.85
-10.81
-9.46
-3.44
5.29
14.12
20.65
23.43
22.20
17.41
9.84
0.24
-10.55
-21.31
-30.27
-35.53
-35.76
-30.77
-21.82
-11.07
-0.76
7.58
13.35
16.68
17.75
16.36
11.93
3.93
-7.48
-21.11
-34.85
-46.33
-53.69
-56.18
-54.26
-49.32
-43.03
-36.87
-31.80
-28.18
-25.90
-24.49
-23.30
-21.58
-18.76
-14.70
-9.89
-5.42
-2.61
-2.46
-5.03
-9.33
-13.45
-15.27
-13.14
-6.48
4.09
17.00
30.19
41.75
50.35
55.45
57.29
56.72
54.84
52.63
50.68
49.08
47.49
45.47
42.77
39.57
36.41
33.87
32.29
31.49
30.85
29.54
26.84
22.39
16.31
9.04
1.16
-6.89
-14.93
-23.09
-31.61
-40.58
-49.69
-58.19
-65.16
-69.88
-72.20
-72.54
-71.52
-69.48
-66.17
-60.91
-53.06
-42.65
-30.57
-18.27
-7.30
1.23
6.77
9.23
8.64
5.20
-0.65
-8.05
-15.82
-22.69
-27.84
-31.14
-33.08
-34.42
-35.68
-36.86
-37.48
-37.01
-35.30
-32.83
-30.67
-29.95
-31.33
-34.55
-38.39
-41.18
-41.49
-38.76
-33.37
-26.33
-18.53
-10.27
-1.15
9.50
22.00
35.93
50.00
62.50
71.70
76.36
75.95
70.71
61.48
49.57
36.49
23.80
12.88
4.78
0.08
-1.19
0.41
3.84
7.85
11.32
13.53
14.35
14.17
13.63
13.33
13.55
14.18
14.77
14.64
13.08
9.65
4.52
-1.24
-5.69
-6.52
-1.82
9.07
25.21
44.14
62.66
77.66
86.93
89.58
85.98
77.54
66.22
54.15
43.22
34.72
29.06
25.91
24.41
23.62
22.88
21.83
20.32
18.14
14.90
10.05
3.16
-5.91
-16.88
-29.18
-42.17
-55.32
-68.20
-80.32
-90.93
-99.07
-103.79
-104.56
-101.56
-95.59
-87.62
-78.30
-67.60
-55.05
-40.30
-23.74
-6.81
8.39
19.88
26.64
29.02
28.55
27.24
26.81
28.14
31.18
35.12
38.94
41.64
42.59
41.60
38.86
34.86
30.32
25.94
22.23
19.39
17.17
14.92
11.86
7.31
1.10
-6.24
-13.50
-19.14
-21.83
-20.94
-16.76
-10.36
-3.14
3.54
8.59
11.19
10.66
6.58
-1.03
-11.46
-23.17
-34.19
-42.68
-47.46
-48.37
-46.08
-41.76
-36.58
-31.51
-27.20
-24.02
-22.06
-21.10
-20.71
-20.46
-20.19
-20.22
-21.21
-23.79
-27.91
-32.56
-35.80
-35.43
-29.81
-18.68
-3.25
14.07
30.54
43.82
52.50
56.09
54.76
49.10
40.02
28.76
16.96
6.50
-1.00
-4.70
-4.96
-3.18
-1.25
-0.66
-1.83
-3.98
-5.52
-4.89
-1.26
5.00
12.41
18.86
22.20
20.92
14.57
3.98
-8.80
-20.88
-29.36
-32.13
-28.65
-20.08
-8.89
2.03
10.27
14.52
14.75
11.85
7.21
2.25
-1.89
-4.53
-5.48
-5.00
-3.72
-2.46
-1.93
-2.54
-4.25
-6.63
-9.10
-11.07
-12.23
-12.58
-12.38
-12.00
-11.85
-12.29
-13.69
-16.35
-20.40
-25.55
-30.92
-35.25
-37.17
-35.75
-30.85
-23.14
-13.73
-3.78
5.95
15.09
23.41
30.58
35.95
38.83
38.81
36.04
31.31
25.76
20.47
16.09
12.81
10.42
8.70
7.50
6.86
6.82
7.23
7.72
7.82
7.20
5.85
4.02
2.02
-0.10
-2.58
-5.79
-9.81
-14.17
-17.79
-19.42
-18.06
-13.39
-5.85
3.74
14.36
25.13
35.13
43.23
48.08
48.36
43.42
33.78
21.36
8.93
-0.69
-5.68
-5.70
-1.92
3.73
9.23
13.15
14.88
14.43
12.18
8.60
4.21
-0.46
-4.95
-8.97
-12.46
-15.59
-18.59
-21.44
-23.79
-24.96
-24.17
-20.92
-15.14
-7.28
1.88
11.41
20.32
27.62
32.31
33.57
31.00
24.95
16.63
7.90
0.60
-4.02
-5.73
-5.31
-4.11
-3.55
-4.57
-7.53
-12.17
-17.81
-23.46
-28.20
-31.39
-32.99
-33.66
-34.48
-36.59
-40.60
-46.30
-52.60
-57.93
-60.66
-59.51
-54.08
-44.80
-32.98
-20.24
-7.96
3.34
14.13
25.54
38.50
52.90
67.24
79.01
85.69
85.83
79.65
68.90
56.19
44.03
34.23
27.61
24.12
22.96
22.85
22.31
19.92
14.68
6.38
-4.31
-15.99
-27.03
-36.18
-43.01
-47.98
-52.06
-56.10
-60.17
-63.41
-64.34
-61.58
-54.53
-43.69
-30.38
-16.19
-2.39
10.23
21.21
30.09
36.29
39.36
39.48
37.76
36.01
36.14
39.27
45.20
52.38
58.54
61.61
60.39
54.94
46.33
36.16
25.91
16.55
8.37
1.17
-5.52
-12.05
-18.55
-24.90
-30.91
-36.36
-41.12
-44.93
-47.27
-47.46
-44.83
-39.22
-31.17
-21.86
-12.65
-4.55
2.15
7.80
12.94
17.82
22.21
25.45
26.85
26.13
23.47
19.55
15.24
11.32
8.36
6.59
5.97
6.21
6.86
7.36
7.18
5.90
3.38
-0.19
-4.31
-8.36
-11.82
-14.52
-16.76
-19.10
-22.13
-26.13
-30.83
-35.46
-38.88
-39.91
-37.61
-31.59
-22.11
-10.11
3.03
15.90
27.42
37.15
45.19
51.93
57.54
61.81
64.13
63.84
60.67
54.97
47.70
40.04
33.09
27.49
23.42
20.69
18.83
17.22
15.11
11.67
6.19
-1.69
-11.73
-22.98
-34.01
-43.37
-50.12
-54.15
-56.20
-57.51
-59.24
-61.95
-65.40
-68.61
-70.28
-69.20
-64.62
-56.48
-45.33
-32.18
-18.23
-4.52
8.23
19.72
29.89
38.74
46.10
51.72
55.34
56.93
56.81
55.51
53.54
51.19
48.39
44.87
40.47
35.32
30.00
25.34
22.12
20.77
21.17
22.68
24.29
24.96
23.88
20.58
15.07
7.65
-1.02
-10.12
-18.67
-25.63
-30.03
-31.23
-29.14
-24.37
-18.18
-12.14
-7.69
-5.76
-6.48
-9.29
-13.28
-17.61
-21.79
-25.77
-29.69
-33.66
-37.45
-40.48
-42.00
-41.44
-38.75
-34.36
-29.25
-24.43
-20.61
-18.01
-16.32
-15.04
-13.84
-12.69
-11.85
-11.56
-11.81
-12.21
-12.17
-11.28
-9.52
-7.31
-5.14
-3.31
-1.54
0.83
4.65
10.46
18.23
27.43
37.17
46.51
54.72
61.26
65.79
68.05
67.94
65.54
61.29
55.91
50.36
45.50
41.97
39.97
39.26
39.32
39.42
38.89
37.14
33.77
28.64
21.85
13.77
5.03
-3.60
-11.41
-17.96
-23.21
-27.55
-31.58
-35.82
-40.34
-44.67
-47.91
-49.07
-47.60
-43.63
-37.91
-31.50
-25.30
-19.84
-15.22
-11.38
-8.33
-6.35
-5.86
-7.17
-10.22
-14.45
-18.93
-22.67
-24.87
-25.17
-23.72
-21.03
-17.81
-14.71
-12.17
-10.35
-9.21
-8.59
-8.35
-8.36
-8.54
-8.80
-9.09
-9.43
-9.87
-10.48
-11.27
-12.07
-12.53
-12.09
-10.18
-6.41
-0.60
7.11
16.29
26.31
36.36
45.60
53.15
58.27
60.43
59.44
55.49
49.12
41.12
32.45
24.05
16.75
11.15
7.57
6.03
6.29
7.86
10.20
12.76
15.09
16.93
18.12
18.52
17.93
15.97
12.15
6.01
-2.64
-13.49
-25.67
-37.72
-47.90
-54.61
-56.72
-54.00
-47.16
-37.64
-27.19
-17.42
-9.38
-3.49
0.32
2.40
3.14
2.84
1.77
0.12
-1.98
-4.44
-7.26
-10.42
-13.74
-16.90
-19.41
-20.83
-20.90
-19.71
-17.58
-15.04
-12.57
-10.55
-9.21
-8.66
-9.00
-10.42
-13.14
-17.39
-23.11
-29.76
-36.30
-41.33
-43.57
-42.20
-37.22
-29.30
-19.50
-8.93
1.42
10.74
18.24
23.18
25.04
23.75
19.90
14.70
9.66
6.13
4.97
6.30
9.70
14.49
20.03
25.93
31.92
37.67
42.53
45.48
45.41
41.56
33.96
23.47
11.57
-0.08
-10.15
-17.76
-22.49
-24.19
-22.92
-19.03
-13.35
-7.10
-1.70
1.86
3.37
3.54
3.70
5.15
8.60
13.81
19.66
24.55
26.91
25.69
20.62
12.23
1.82
-8.90
-18.08
-24.14
-26.13
-24.03
-18.70
-11.75
-5.08
-0.46
0.93
-1.32
-6.85
-14.70
-23.57
-32.10
-39.06
-43.45
-44.65
-42.50
-37.39
-30.20
-22.13
-14.39
-7.86
-2.88
0.81
3.86
6.92
10.34
13.94
17.07
18.88
18.74
16.45
12.42
7.43
2.42
-1.83
-4.92
-6.86
-7.91
-8.36
-8.48
-8.34
-7.99
-7.51
-7.12
-7.18
-8.07
-10.10
-13.37
-17.69
-22.62
-27.37
-31.01
-32.54
-31.18
-26.63
-19.10
-9.41
1.29
11.77
20.96
28.07
32.62
34.44
33.62
30.50
25.53
19.22
12.08
4.54
-2.91
-9.69
-15.14
-18.60
-19.64
-18.15
-14.39
-8.88
-2.29
4.72
11.47
17.30
21.48
23.32
22.24
17.95
10.63
0.99
-9.81
-20.26
-28.86
-34.39
-36.18
-34.27
-29.31
-22.32
-14.38
-6.30
1.48
8.83
15.72
22.00
27.18
30.56
31.47
29.64
25.45
19.88
14.31
9.96
7.56
7.20
8.39
10.38
12.49
14.26
15.51
16.25
16.50
16.29
15.62
14.42
12.56
9.80
5.81
0.31
-6.76
-15.07
-23.66
-31.10
-35.78
-36.35
-32.22
-23.67
-11.85
1.73
15.61
28.78
40.78
51.42
60.55
67.72
72.22
73.23
70.25
63.30
53.06
40.74
27.75
15.46
4.96
-3.13
-8.55
-11.52
-12.56
-12.50
-12.21
-12.47
-13.75
-16.11
-19.28
-22.81
-26.29
-29.47
-32.37
-35.14
-37.94
-40.73
-43.16
-44.62
-44.34
-41.68
-36.37
-28.66
-19.28
-9.21
0.57
9.34
16.68
22.50
26.81
29.65
31.00
30.87
29.39
26.86
23.74
20.55
17.68
15.30
13.37
11.74
10.36
9.35
8.94
9.22
9.99
10.64
10.37
8.45
4.60
-0.97
-7.62
-14.56
-21.09
-26.67
-30.83
-33.05
-32.84
-29.90
-24.35
-16.79
-8.18
0.50
8.47
15.27
20.65
24.46
26.48
26.58
24.78
21.39
16.92
11.98
7.02
2.25
-2.36
-6.93
-11.46
-15.78
-19.44
-21.97
-22.94
-22.25
-20.21
-17.49
-14.90
-13.09
-12.35
-12.52
-13.18
-13.92
-14.61
-15.36
-16.40
-17.73
-19.02
-19.71
-19.22
-17.27
-13.97
-9.66
-4.66
0.93
7.18
14.09
21.25
27.81
32.64
34.84
34.20
31.39
27.75
24.70
23.15
23.10
23.74
23.89
22.62
19.61
15.17
9.97
4.60
-0.56
-5.37
-9.81
-13.78
-17.30
-20.61
-24.28
-29.04
-35.34
-42.88
-50.47
-56.16
-57.92
-54.41
-45.52
-32.56
-17.89
-4.26
6.00
11.50
12.10
8.68
2.76
-3.98
-10.13
-14.75
-17.45
-18.27
-17.57
-15.83
-13.53
-11.03
-8.62
-6.40
-4.42
-2.58
-0.74
1.28
3.50
5.70
7.37
7.75
6.16
2.30
-3.52
-10.32
-16.77
-21.61
-24.00
-23.75
-21.14
-16.79
-11.30
-5.20
1.06
7.02
12.10
15.66
17.16
16.35
13.46
9.17
4.56
0.80
-1.21
-1.05
1.10
4.59
8.54
12.14
14.86
16.41
16.66
15.47
12.67
8.15
2.08
-5.03
-12.38
-19.15
-24.68
-28.61
-30.81
-31.20
-29.64
-26.02
-20.34
-12.84
-3.95
5.94
16.58
27.88
39.65
51.33
61.96
70.28
75.13
75.83
72.30
65.04
54.98
43.27
31.18
19.91
10.47
3.55
-0.62
-2.25
-1.92
-0.47
1.12
1.82
0.73
-2.65
-8.28
-15.55
-23.42
-30.82
-36.81
-40.82
-42.48
-41.57
-37.95
-31.61
-22.83
-12.32
-1.15
9.44
18.21
24.32
27.28
27.15
24.42
19.95
14.71
9.67
5.49
2.48
0.65
-0.14
0.03
1.20
3.56
7.17
11.77
16.69
20.91
23.30
23.04
19.88
14.18
6.84
-1.10
-8.79
-15.75
-21.95
-27.55
-32.59
-36.83
-39.70
-40.46
-38.49
-33.53
-25.77
-15.91
-4.95
5.92
15.55
23.02
27.70
29.33
28.00
24.12
18.27
11.21
3.76
-3.29
-9.20
-13.52
-16.05
-16.88
-16.25
-14.44
-11.66
-8.13
-4.11
-0.03
3.49
5.81
6.44
5.24
2.45
-1.35
-5.36
-8.75
-10.73
-10.70
-8.31
-3.60
2.99
10.66
18.44
25.42
30.98
34.87
37.16
38.09
37.97
36.95
35.16
32.59
29.24
25.17
20.59
15.84
11.42
7.78
5.22
3.67
2.74
1.83
0.43
-1.70
-4.41
-7.34
-10.08
-12.46
-14.61
-16.88
-19.69
-23.31
-27.64
-32.18
-36.08
-38.34
-38.07
-34.82
-28.65
-20.14
-10.13
0.41
10.57
19.60
26.82
31.71
34.01
33.73
31.27
27.29
22.62
17.98
13.93
10.75
8.41
6.71
5.28
3.74
1.79
-0.68
-3.65
-6.96
-10.50
-14.18
-17.94
-21.66
-25.22
-28.45
-31.23
-33.43
-34.97
-35.64
-35.15
-33.18
-29.58
-24.39
-18.01
-11.02
-4.09
2.14
7.11
10.40
11.75
11.15
8.97
5.94
2.92
0.68
-0.31
-0.04
1.21
3.06
5.18
7.42
9.75
12.11
14.38
16.32
17.62
18.01
17.25
15.14
11.51
6.25
-0.59
-8.62
-17.03
-24.69
-30.29
-32.73
-31.44
-26.53
-18.78
-9.38
0.48
9.73
17.70
23.93
28.15
30.16
29.90
27.50
23.48
18.60
13.77
9.75
6.90
5.18
4.15
3.34
2.36
1.04
-0.61
-2.47
-4.50
-6.77
-9.42
-12.61
-16.44
-20.95
-26.13
-31.89
-37.98
-43.93
-49.00
-52.25
-52.70
-49.64
-42.85
-32.79
-20.49
-7.32
5.39
16.61
25.82
32.89
37.84
40.76
41.75
40.96
38.65
35.16
30.64
25.03
18.11
9.77
0.39
-8.96
-16.75
-21.48
-22.34
-19.61
-14.64
-9.32
-5.43
-4.05
-5.39
-8.92
-13.72
-18.79
-23.20
-26.08
-26.60
-24.06
-18.04
-8.73
3.03
15.76
27.69
37.25
43.42
45.97
45.30
42.16
37.35
31.51
25.16
18.70
12.56
7.18
2.92
-0.04
-1.75
-2.46
-2.53
-2.36
-2.34
-2.76
-3.82
-5.61
-8.09
-11.20
-14.82
-18.84
-23.04
-26.98
-29.99
-31.22
-29.92
-25.65
-18.52
-9.12
1.55
12.34
22.15
30.06
35.43
37.92
37.52
34.51
29.45
23.09
16.25
9.70
4.04
-0.40
-3.58
-5.71
-7.15
-8.24
-9.18
-9.90
-10.17
-9.78
-8.74
-7.46
-6.68
-7.30
-9.98
-14.93
-21.83
-29.77
-37.58
-43.90
-47.56
-47.67
-43.85
-36.24
-25.55
-12.92
0.29
12.67
23.01
30.44
34.47
35.07
32.68
28.20
22.85
17.95
14.60
13.39
14.24
16.48
19.16
21.34
22.50
22.64
22.15
21.46
20.63
19.12
15.87
9.76
0.10
-12.75
-27.37
-41.55
-52.85
-59.34
-60.05
-55.12
-45.51
-32.77
-18.49
-4.17
8.99
20.10
28.64
34.48
37.85
39.27
39.39
38.72
37.50
35.60
32.65
28.19
22.01
14.30
5.66
-3.00
-10.68
-16.54
-20.08
-21.23
-20.30
-17.88
-14.72
-11.62
-9.30
-8.38
-9.27
-12.13
-16.74
-22.62
-29.00
-35.01
-39.84
-42.89
-43.76
-42.30
-38.56
-32.72
-25.19
-16.53
-7.45
1.27
8.94
15.10
19.56
22.37
23.77
24.07
23.74
23.44
23.86
25.61
28.87
33.20
37.64
41.02
42.42
41.59
38.90
35.06
30.66
25.84
20.28
13.56
5.46
-3.78
-13.52
-22.95
-31.29
-37.91
-42.37
-44.28
-43.34
-39.43
-32.69
-23.67
-13.19
-2.30
7.99
16.82
23.69
28.34
30.85
31.45
30.44
28.24
25.25
21.96
18.85
16.34
14.60
13.57
12.93
12.27
11.26
9.73
7.71
5.25
2.40
-0.91
-4.79
-9.27
-14.33
-19.82
-25.49
-31.06
-36.11
-40.06
-42.30
-42.18
-39.27
-33.38
-24.67
-13.62
-0.99
12.25
24.96
35.90
43.88
47.99
47.77
43.37
35.57
25.63
15.02
5.10
-3.10
-9.01
-12.52
-13.87
-13.54
-12.13
-10.32
-8.75
-7.91
-8.10
-9.33
-11.46
-14.26
-17.59
-21.45
-25.86
-30.75
-35.70
-39.96
-42.47
-42.15
-38.17
-30.23
-18.69
-4.54
10.80
25.85
39.34
50.41
58.58
63.67
65.54
64.07
59.25
51.34
41.09
29.70
18.58
8.95
1.45
-3.93
-7.72
-10.60
-12.93
-14.60
-15.15
-14.09
-11.41
-7.79
-4.58
-3.49
-6.09
-13.26
-24.90
-39.80
-55.77
-70.12
-80.24
-84.23
-81.42
-72.40
-58.80
-42.75
-26.25
-10.88
2.36
12.87
20.30
24.46
25.39
23.45
19.33
13.95
8.30
3.20
-0.73
-3.02
-3.36
-1.51
2.63
9.00
17.28
26.96
37.24
47.16
55.58
61.33
63.34
60.83
53.52
41.81
26.73
9.86
-6.88
-21.49
-32.14
-37.47
-36.81
-30.36
-19.13
-4.76
10.90
26.16
39.72
50.70
58.61
63.14
64.21
62.00
57.12
50.59
43.66
37.46
32.71
29.50
27.42
25.75
23.70
20.63
16.15
10.18
2.92
-5.17
-13.60
-21.95
-30.08
-38.12
-46.38
-55.03
-63.85
-72.07
-78.37
-81.22
-79.26
-71.70
-58.63
-41.07
-20.90
-0.46
17.94
32.53
42.38
47.52
48.67
46.85
43.10
38.18
32.62
26.79
21.02
15.63
10.95
7.19
4.45
2.67
1.67
1.27
1.23
1.30
1.13
0.24
-1.89
-5.73
-11.48
-19.03
-27.89
-37.26
-46.07
-53.16
-57.33
-57.58
-53.31
-44.56
-32.09
-17.32
-2.03
12.07
23.69
32.04
36.92
38.45
36.99
33.02
27.20
20.36
13.46
7.44
2.94
0.19
-1.04
-1.32
-1.27
-1.39
-1.90
-2.75
-3.81
-4.99
-6.36
-8.20
-10.95
-15.01
-20.55
-27.32
-34.55
-40.97
-45.09
-45.54
-41.54
-33.10
-21.05
-6.84
7.88
21.57
33.05
41.58
46.80
48.62
47.21
42.97
36.57
28.93
21.10
14.07
8.57
4.94
3.05
2.41
2.38
2.35
1.93
1.07
-0.12
-1.44
-2.78
-4.26
-6.11
-8.64
-12.09
-16.55
-21.93
-27.95
-34.05
-39.35
-42.73
-42.99
-39.23
-31.21
-19.56
-5.65
8.68
21.71
32.23
39.70
44.19
46.03
45.62
43.20
38.97
33.24
26.60
19.89
14.03
9.66
6.85
5.16
3.76
1.86
-0.91
-4.44
-8.29
-12.00
-15.33
-18.27
-20.86
-23.09
-24.86
-26.14
-27.18
-28.35
-29.93
-31.66
-32.63
-31.53
-27.27
-19.57
-9.25
1.96
12.09
19.64
24.05
25.73
25.72
25.07
24.45
23.96
23.36
22.39
21.04
19.55
18.19
16.97
15.55
13.42
10.26
6.27
2.18
-0.98
-2.45
-2.09
-0.41
1.55
2.70
2.24
-0.21
-4.54
-10.34
-17.06
-24.03
-30.52
-35.72
-38.73
-38.68
-34.87
-27.13
-15.93
-2.53
11.34
23.77
33.21
38.81
40.45
38.65
34.25
28.24
21.52
14.97
9.30
4.99
2.28
0.99
0.62
0.46
-0.09
-1.35
-3.22
-5.36
-7.31
-8.83
-10.01
-11.30
-13.36
-16.83
-22.16
-29.45
-38.32
-47.95
-57.07
-64.16
-67.66
-66.40
-59.94
-48.77
-34.19
-18.01
-1.97
12.65
25.21
35.66
44.16
50.74
55.15
56.94
55.80
51.89
45.98
39.33
33.25
28.63
25.60
23.62
21.81
19.40
16.12
12.13
7.83
3.50
-0.87
-5.58
-10.96
-17.14
-24.05
-31.37
-38.63
-45.30
-50.68
-53.87
-53.92
-50.03
-41.95
-30.24
-16.23
-1.68
11.68
22.60
30.54
35.52
37.98
38.51
37.64
35.79
33.28
30.34
27.15
23.88
20.64
17.51
14.57
11.88
9.50
7.54
6.06
5.09
4.47
3.82
2.68
0.50
-3.06
-8.07
-14.34
-21.47
-28.97
-36.23
-42.48
-46.76
-48.10
-45.76
-39.57
-30.10
-18.48
-6.10
5.82
16.41
25.18
31.85
36.15
37.81
36.69
32.93
27.12
20.18
13.18
7.10
2.60
-0.05
-1.08
-0.99
-0.47
-0.12
-0.36
-1.33
-2.93
-4.95
-7.19
-9.57
-12.09
-14.84
-17.90
-21.32
-25.12
-29.20
-33.24
-36.61
-38.47
-37.91
-34.33
-27.65
-18.48
-7.92
2.79
12.59
20.82
27.13
31.39
33.41
32.95
29.93
24.50
17.30
9.33
1.77
-4.31
-8.18
-9.61
-8.79
-6.11
-2.01
3.07
8.70
14.30
19.03
21.92
22.12
19.15
13.10
4.48
-5.95
-17.37
-28.99
-39.94
-48.99
-54.64
-55.44
-50.45
-39.81
-24.87
-7.85
8.80
23.13
34.07
41.44
45.61
47.15
46.54
44.15
40.34
35.62
30.50
25.46
20.73
16.27
11.91
7.51
3.11
-1.07
-4.70
-7.53
-9.48
-10.76
-11.84
-13.33
-15.75
-19.38
-24.16
-29.82
-35.96
-42.20
-48.23
-53.61
-57.73
-59.70
-58.54
-53.50
-44.34
-31.53
-16.21
0.12
15.94
30.07
41.81
50.97
57.63
62.04
64.41
64.90
63.68
60.99
57.23
52.91
48.51
44.36
40.54
36.84
32.85
28.08
22.19
15.17
7.30
-0.93
-9.06
-16.89
-24.53
-32.23
-40.21
-48.37
-56.35
-63.55
-69.32
-73.08
-74.24
-72.24
-66.64
-57.23
-44.35
-28.90
-12.27
4.02
18.63
30.64
39.55
45.21
47.65
47.06
43.87
38.81
32.82
26.95
21.96
18.21
15.57
13.61
11.95
10.45
9.31
8.80
9.03
9.71
10.23
9.90
8.24
5.10
0.69
-4.77
-11.10
-18.23
-25.97
-33.70
-40.32
-44.53
-45.29
-42.23
-35.90
-27.51
-18.54
-10.19
-3.20
2.15
5.83
7.87
8.22
6.86
3.96
-0.03
-4.47
-8.67
-12.17
-14.77
-16.55
-17.66
-18.28
-18.45
-18.16
-17.43
-16.36
-15.22
-14.29
-13.81
-13.86
-14.33
-15.00
-15.65
-16.20
-16.65
-17.00
-17.11
-16.65
-15.13
-12.07
-7.13
-0.33
7.97
17.09
26.23
34.55
41.22
45.58
47.15
45.84
41.96
36.20
29.47
22.63
16.31
10.78
6.06
2.08
-1.11
-3.42
-4.75
-5.20
-5.12
-5.08
-5.63
-7.13
-9.70
-13.20
-17.42
-22.11
-26.93
-31.31
-34.50
-35.65
-34.08
-29.63
-22.70
-14.20
-5.22
3.32
10.81
17.02
21.83
25.15
26.84
26.88
25.34
22.54
18.98
15.10
11.22
7.47
3.87
0.46
-2.63
-5.16
-6.97
-7.97
-8.40
-8.60
-9.00
-9.96
-11.59
-13.78
-16.17
-18.29
-19.66
-19.89
-18.74
-16.15
-12.21
-7.15
-1.32
4.84
10.75
15.77
19.32
21.03
20.85
19.05
16.15
12.73
9.28
6.13
3.39
1.00
-1.28
-3.80
-6.90
-10.76
-15.24
-19.85
-23.89
-26.70
-27.96
-27.81
-26.83
-25.64
-24.73
-24.20
-23.76
-22.85
-20.82
-17.17
-11.63
-4.26
4.63
14.44
24.42
33.73
41.52
47.04
49.69
49.16
45.51
39.16
30.87
21.54
12.13
3.42
-3.99
-9.80
-13.89
-16.37
-17.51
-17.77
-17.72
-17.90
-18.75
-20.41
-22.67
-25.01
-26.63
-26.68
-24.52
-20.06
-13.79
-6.70
0.05
5.62
9.72
12.63
14.86
16.79
18.45
19.61
20.06
20.01
20.20
21.64
25.16
30.96
38.33
45.80
51.59
54.13
52.57
47.00
38.39
28.27
18.23
9.43
2.22
-3.89
-10.00
-17.29
-26.36
-36.78
-46.92
-54.41
-56.96
-53.16
-43.10
-28.36
-11.54
4.63
17.91
27.16
32.30
34.14
33.93
32.94
32.10
31.79
31.74
31.20
29.27
25.18
18.78
10.56
1.56
-6.96
-13.86
-18.38
-20.20
-19.48
-16.71
-12.71
-8.54
-5.38
-4.25
-5.73
-9.68
-15.28
-21.30
-26.57
-30.41
-32.79
-34.24
-35.47
-37.07
-39.30
-42.09
-45.07
-47.67
-49.14
-48.58
-45.15
-38.23
-27.80
-14.46
0.62
16.04
30.47
43.02
53.21
60.96
66.35
69.49
70.44
69.34
66.44
62.20
57.24
52.18
47.61
43.86
41.09
39.15
37.77
36.57
35.16
33.26
30.71
27.52
23.87
20.03
16.25
12.74
9.45
6.14
2.38
-2.26
-8.05
-14.90
-22.34
-29.68
-36.19
-41.38
-45.03
-47.19
-48.07
-48.01
-47.38
-46.64
-46.14
-45.91
-45.50
-43.88
-39.72
-31.85
-19.79
-4.08
13.74
31.39
46.54
57.32
62.80
63.11
59.30
52.97
45.87
39.54
35.03
32.91
33.26
35.77
39.82
44.46
48.54
50.91
50.66
47.50
41.88
34.85
27.64
21.21
15.92
11.54
7.62
3.90
0.54
-1.80
-2.42
-0.92
2.38
6.45
9.68
10.32
6.91
-1.23
-13.81
-29.55
-46.50
-62.53
-75.87
-85.50
-91.15
-93.13
-91.88
-87.84
-81.27
-72.34
-61.33
-48.73
-35.18
-21.46
-8.26
3.82
14.25
22.61
28.49
31.61
31.93
29.77
25.80
21.08
16.72
13.62
12.26
12.58
14.10
16.12
18.02
19.36
20.01
20.01
19.58
18.98
18.38
17.75
16.95
15.72
13.88
11.41
8.53
5.58
2.85
0.45
-1.69
-3.69
-5.69
-7.78
-10.13
-13.00
-16.67
-21.18
-26.09
-30.42
-32.84
-32.20
-28.01
-20.65
-11.30
-1.39
7.77
15.33
20.85
24.14
25.11
23.76
20.36
15.48
9.95
4.63
0.16
-3.27
-5.85
-7.87
-9.50
-10.62
-10.83
-9.63
-6.73
-2.22
3.35
8.96
13.48
15.87
15.62
12.81
8.15
2.71
-2.53
-6.96
-10.54
-13.70
-17.13
-21.35
-26.46
-31.95
-36.86
-40.04
-40.55
-37.95
-32.50
-25.00
-16.49
-7.85
0.35
7.91
14.74
20.67
25.31
28.15
28.87
27.52
24.52
20.58
16.41
12.51
9.11
6.24
3.88
2.02
0.63
-0.38
-1.25
-2.30
-3.81
-5.89
-8.42
-11.08
-13.47
-15.31
-16.53
-17.35
-18.13
-19.33
-21.26
-24.04
-27.45
-31.07
-34.26
-36.30
-36.53
-34.50
-30.13
-23.72
-15.90
-7.53
0.60
7.82
13.70
18.00
20.58
21.42
20.53
18.05
14.30
9.81
5.22
1.19
-1.79
-3.57
-4.31
-4.43
-4.45
-4.78
-5.61
-6.95
-8.66
-10.60
-12.65
-14.73
-16.72
-18.53
-20.09
-21.51
-23.03
-25.05
-27.85
-31.49
-35.63
-39.56
-42.34
-43.09
-41.30
-36.94
-30.49
-22.70
-14.37
-6.08
1.79
8.97
15.20
20.10
23.27
24.37
23.30
20.29
15.89
10.82
5.77
1.27
-2.42
-5.27
-7.39
-8.88
-9.71
-9.66
-8.44
-5.83
-1.81
3.33
8.95
14.14
17.85
19.04
16.91
11.22
2.44
-8.16
-18.78
-27.54
-33.00
-34.56
-32.53
-27.81
-21.31
-13.53
-4.38
6.63
19.88
35.23
51.70
67.60
80.98
90.07
93.76
91.78
84.65
73.43
59.45
44.12
28.83
14.84
3.18
-5.50
-11.07
-13.92
-14.83
-14.62
-13.97
-13.20
-12.38
-11.58
-11.08
-11.50
-13.63
-18.12
-25.13
-34.07
-43.62
-52.07
-57.64
-59.11
-56.09
-49.22
-39.88
-29.87
-20.78
-13.63
-8.67
-5.49
-3.38
-1.67
0.00
1.62
2.86
3.31
2.68
0.85
-2.01
-5.53
-9.19
-12.46
-14.83
-15.92
-15.55
-13.78
-10.96
-7.67
-4.68
-2.74
-2.40
-3.88
-7.07
-11.60
-17.03
-22.96
-28.97
-34.55
-39.03
-41.59
-41.48
-38.22
-31.83
-22.82
-12.09
-0.71
10.34
20.19
28.24
34.07
37.43
38.21
36.51
32.64
27.11
20.70
14.33
8.92
5.19
3.50
3.70
5.20
7.21
8.94
9.91
9.96
9.20
7.80
5.90
3.50
0.55
-3.04
-7.35
-12.39
-18.08
-24.19
-30.16
-35.15
-38.08
-37.93
-34.04
-26.44
-15.81
-3.35
9.53
21.58
31.84
39.65
44.64
46.65
45.73
42.21
36.71
30.13
23.49
17.77
13.64
11.41
10.94
11.79
13.29
14.74
15.58
15.46
14.27
12.12
9.26
5.97
2.50
-1.11
-4.99
-9.49
-14.95
-21.47
-28.65
-35.54
-40.70
-42.61
-40.09
-32.65
-20.74
-5.55
11.27
27.93
42.85
54.86
63.34
68.15
69.55
68.03
64.12
58.42
51.53
44.11
36.89
30.59
25.76
22.61
20.97
20.31
19.89
19.01
17.21
14.38
10.74
6.64
2.42
-1.83
-6.35
-11.60
-18.01
-25.78
-34.68
-44.07
-53.08
-60.66
-65.77
-67.45
-64.94
-57.88
-46.52
-31.76
-15.05
1.83
17.12
29.41
37.75
41.74
41.50
37.62
31.04
22.97
14.64
7.14
1.21
-2.84
-5.07
-5.87
-5.73
-5.17
-4.59
-4.26
-4.29
-4.79
-5.95
-8.11
-11.77
-17.39
-25.14
-34.71
-45.21
-55.46
-64.24
-70.68
-74.36
-75.22
-73.28
-68.42
-60.33
-48.65
-33.37
-15.11
4.65
23.73
39.58
49.93
53.47
50.20
41.56
30.04
18.57
9.74
5.23
5.43
9.53
15.83
22.27
26.94
28.56
26.74
22.15
16.18
10.59
6.95
6.09
7.90
11.32
14.72
16.30
14.69
9.21
0.04
-11.90
-25.12
-37.72
-47.61
-52.79
-51.70
-43.73
-29.54
-11.04
9.03
27.77
42.98
53.56
59.56
61.83
61.45
59.27
55.79
51.22
45.74
39.65
33.52
28.01
23.71
20.97
19.85
20.14
21.47
23.44
25.53
27.12
27.54
26.19
22.73
17.28
10.33
2.56
-5.44
-13.41
-21.45
-29.92
-39.09
-48.79
-58.19
-65.77
-69.66
-68.13
-60.27
-46.38
-28.01
-7.64
12.05
28.81
41.29
49.03
52.23
51.48
47.44
40.98
33.12
25.10
18.13
13.13
10.50
10.09
11.31
13.51
16.06
18.45
20.13
20.48
18.98
15.44
10.26
4.38
-1.07
-5.21
-7.87
-9.66
-11.70
-15.27
-21.19
-29.63
-39.88
-50.53
-59.73
-65.64
-66.90
-62.98
-54.40
-42.51
-29.20
-16.34
-5.52
2.22
6.40
7.00
4.51
-0.22
-6.03
-11.65
-15.97
-18.16
-17.84
-14.98
-9.86
-2.96
4.92
12.77
19.39
23.73
25.17
23.81
20.35
15.80
11.06
6.52
2.06
-2.76
-8.36
-14.92
-22.25
-29.84
-36.91
-42.39
-44.98
-43.37
-36.64
-24.73
-8.75
9.21
26.65
41.33
51.87
57.76
59.13
56.38
49.95
40.40
28.63
16.10
4.61
-4.03
-8.55
-8.61
-4.82
1.53
8.87
15.74
20.97
23.82
24.03
21.86
18.02
13.52
9.34
6.11
3.92
2.44
1.28
0.29
-0.29
0.06
1.84
5.33
10.62
17.61
26.11
35.65
45.45
54.38
61.33
65.58
67.15
66.62
64.67
61.57
56.88
49.79
39.71
26.81
12.28
-1.93
-13.70
-21.40
-24.35
-23.03
-18.89
-13.87
-9.85
-8.05
-8.82
-11.67
-15.67
-19.90
-23.71
-26.63
-28.24
-28.15
-26.30
-23.42
-21.14
-21.58
-26.25
-35.01
-45.50
-53.63
-54.93
-46.19
-26.61
1.86
35.19
68.44
96.93
117.17
127.28
127.12
118.15
103.06
85.22
68.01
54.09
44.87
40.28
38.99
38.85
37.54
33.17
24.73
12.18
-3.58
-20.97
