1563811884.00
64.000000
-0.00
-0.00
-0.00
-0.00
-0.00
-0.00
-0.00
-0.00
-0.00
-0.00
0.00
0.01
0.01
-0.00
-0.03
-0.05
-0.05
0.00
0.13
0.36
0.66
1.01
1.37
1.72
2.06
2.40
2.79
3.24
3.80
4.42
5.06
5.68
6.22
6.72
7.23
7.82
8.54
9.51
10.63
11.80
12.91
13.90
14.81
15.81
17.10
18.85
21.27
24.17
27.29
30.32
33.10
35.71
38.45
41.78
46.02
51.56
58.06
65.00
71.80
78.10
83.96
89.89
96.61
104.69
114.68
126.10
138.16
149.97
160.95
171.11
181.11
192.32
203.50
216.96
233.33
252.73
273.92
293.97
308.47
312.83
303.70
280.29
245.05
201.87
155.09
107.90
61.78
16.87
-26.93
-69.31
-109.40
-145.73
-177.49
-204.22
-225.87
-242.27
-253.42
-259.02
-258.76
-252.70
-241.27
-225.75
-207.70
-188.78
-170.24
-152.78
-136.47
-121.04
-106.24
-91.94
-78.51
-66.09
-55.04
-45.62
-37.86
-31.50
-26.14
-21.39
-16.96
-12.80
-8.97
-5.67
-3.04
-1.14
0.16
1.03
1.66
2.20
2.70
3.19
3.61
3.91
4.06
4.09
4.02
3.88
3.67
3.40
3.05
2.59
1.97
1.19
0.24
-0.85
-2.05
-3.30
-4.55
-5.75
-6.86
-7.85
-8.68
-9.34
-9.84
-10.18
-10.41
-10.59
-10.73
-10.88
-11.05
-11.22
-11.38
-11.57
-11.81
-12.18
-12.73
-13.49
-14.42
-15.43
-16.43
-17.31
-18.03
-18.61
-19.11
-19.61
-20.14
-20.65
-21.07
-21.29
-21.24
-20.94
-20.53
-20.25
-20.34
-20.97
-22.14
-23.68
-25.31
-26.82
-28.16
-29.58
-31.54
-34.46
-38.59
-43.78
-49.51
-55.11
-60.08
-64.39
-68.49
-73.25
-79.44
-87.41
-96.83
-106.83
-116.42
-125.04
-132.88
-140.78
-149.78
-160.55
-173.16
-187.27
-202.65
-219.46
-237.88
-257.26
-275.39
-288.72
-293.74
-288.87
-275.68
-258.26
-241.13
-226.73
-214.23
-200.50
-182.71
-160.71
-137.59
-117.87
-104.58
-97.02
-91.12
-81.97
-67.01
-47.76
-28.97
-15.80
-10.66
-11.79
-14.38
-13.47
-6.85
3.71
13.67
18.45
16.32
9.36
2.39
0.18
4.80
14.51
24.97
31.74
32.95
30.27
27.89
29.90
37.78
49.43
60.35
66.34
66.03
61.90
58.73
60.92
69.66
82.23
93.50
98.91
97.14
90.92
85.52
85.71
93.16
105.49
117.86
125.58
126.82
123.31
119.31
119.07
124.42
133.79
143.04
147.88
146.23
139.39
131.35
126.42
126.70
130.79
134.57
133.64
125.93
113.10
99.63
90.42
87.92
90.67
94.19
93.56
86.34
73.86
60.56
51.36
49.03
52.56
57.86
60.13
56.60
47.86
37.51
29.96
27.83
30.56
34.73
36.21
32.56
24.42
15.08
8.51
7.07
10.18
14.76
17.17
15.25
9.55
2.78
-1.83
-2.41
0.59
4.62
6.65
4.91
-0.19
-6.19
-10.07
-9.94
-5.95
-0.30
4.15
5.48
3.73
0.57
-1.73
-1.74
0.24
2.59
3.46
2.11
-0.51
-2.38
-1.70
1.78
6.42
9.42
8.59
3.71
-3.07
-8.36
-9.45
-5.98
-0.11
4.71
5.81
2.87
-1.94
-5.34
-4.95
-0.80
4.77
8.50
8.18
3.96
-1.62
-5.14
-4.33
0.58
6.84
10.75
9.82
4.30
-2.90
-7.86
-7.97
-3.51
2.51
6.16
5.01
-0.35
-6.66
-9.87
-7.71
-1.11
6.12
9.64
6.95
-0.94
-10.01
-15.47
-14.41
-7.47
1.50
7.65
7.80
2.27
-5.34
-10.24
-9.27
-2.67
5.96
11.73
11.43
5.35
-2.81
-8.08
-7.19
-0.52
8.08
13.55
12.46
5.16
-4.47
-11.28
-11.75
-6.00
2.28
8.09
8.01
2.20
-5.67
-10.63
-9.32
-2.11
7.14
13.28
12.83
6.05
-3.20
-9.70
-9.88
-3.86
4.72
10.68
10.44
3.97
-5.15
-11.83
-12.34
-6.44
2.51
9.61
11.13
6.70
-0.70
-6.46
-7.11
-2.28
5.18
10.88
11.53
6.63
-1.22
-8.01
-10.53
-8.16
-3.00
1.52
2.69
-0.01
-4.82
-8.82
-9.79
-7.45
-3.44
-0.28
0.24
-1.99
-5.34
-7.56
-7.17
-4.30
-0.69
1.50
1.00
-1.75
-5.01
-6.82
-6.37
-4.63
-3.75
-5.62
-10.48
-16.69
-21.53
-23.02
-21.14
-18.01
-16.60
-18.92
-24.68
-31.43
-36.08
-36.80
-34.31
-31.39
-31.21
-35.56
-43.76
-52.92
-59.54
-61.46
-58.98
-54.90
-52.76
-55.01
-61.83
-70.93
-78.53
-81.02
-76.31
-64.49
-47.57
-27.40
-4.45
22.32
54.54
93.10
137.58
186.31
236.87
286.95
335.86
383.66
429.64
471.17
503.55
521.42
520.20
500.45
461.70
403.81
328.17
238.84
142.81
48.85
-34.76
-102.25
-151.75
-186.98
-214.65
-241.21
-270.13
-301.14
-331.43
-357.97
-379.59
-397.13
-412.79
-428.00
-442.71
-455.95
-466.86
-475.29
-481.57
-486.67
-491.45
-496.20
-500.08
-501.53
-498.99
-491.53
-480.46
-466.50
-450.52
-432.90
-413.26
-390.28
-362.05
-326.57
-282.33
-228.42
-164.59
-91.92
-12.18
72.61
160.28
248.57
335.18
416.11
487.57
548.87
599.74
640.44
672.13
696.11
713.73
726.29
734.83
740.40
743.87
745.82
743.74
735.80
720.29
695.73
660.80
614.55
556.86
486.00
402.14
307.00
203.91
96.79
-10.44
-114.41
-212.66
-303.39
-385.39
-457.62
-519.21
-569.01
-606.00
-629.49
-639.11
-635.51
-619.36
-591.27
-551.52
-500.45
-438.51
-366.96
-288.24
-206.03
-124.92
-49.81
15.07
67.03
105.42
131.96
150.59
166.39
184.87
209.61
240.35
272.19
297.16
307.32
298.32
270.97
230.17
182.28
132.57
84.65
41.46
6.53
-16.51
-25.84
-23.39
-14.73
-6.36
-2.20
-1.63
-0.84
3.40
10.47
15.91
14.68
5.54
-6.93
-14.47
-10.27
6.12
27.97
44.80
48.03
35.24
10.65
-18.09
-44.09
-63.84
-76.75
-82.84
-80.71
-67.52
-41.22
-3.41
39.50
77.35
99.28
97.13
67.84
14.41
-54.58
-126.73
-188.34
-227.75
-238.43
-220.78
-181.60
-131.42
-80.76
-37.09
-3.65
19.75
34.86
43.46
46.94
46.78
45.12
44.27
45.45
47.57
47.18
40.11
24.05
0.82
-23.40
-40.41
-43.60
-31.23
-7.58
18.69
38.28
45.19
39.09
24.97
10.53
2.52
3.92
13.18
25.52
35.53
39.57
36.91
29.26
19.47
10.49
4.80
4.27
9.67
19.78
30.52
35.36
27.58
3.66
-33.93
-76.33
-111.02
-126.62
-117.46
-85.79
-40.57
6.04
43.14
64.47
69.64
63.11
51.67
41.54
36.21
36.03
39.24
43.89
49.29
56.12
65.13
75.48
84.15
87.06
81.31
67.08
48.14
30.43
19.53
18.28
25.58
36.82
45.63
46.38
36.49
17.47
-5.50
-25.80
-38.07
-40.41
-34.83
-25.89
-18.21
-14.38
-14.19
-15.63
-16.53
-15.92
-14.23
-12.33
-10.66
-8.99
-7.01
-5.36
-5.88
-10.82
-21.26
-35.82
-50.51
-60.28
-61.46
-53.81
-40.85
-28.27
-21.14
-21.57
-28.10
-36.79
-43.41
-45.27
-42.11
-35.58
-28.24
-22.32
-19.07
-18.68
-20.48
-23.62
-27.24
-30.69
-33.35
-34.46
-33.06
-28.44
-20.73
-11.44
-3.28
0.92
-0.32
-5.96
-12.53
-15.68
-12.47
-3.22
8.43
17.25
19.57
15.56
9.48
7.69
15.10
32.33
55.11
76.43
90.31
95.20
95.16
98.17
112.22
141.42
183.71
231.61
275.13
305.55
318.12
312.69
292.64
262.93
228.79
194.73
164.03
137.93
114.85
89.91
55.77
5.44
-63.97
-148.63
-238.12
-319.07
-380.34
-417.34
-432.74
-433.91
-428.33
-420.03
-408.67
-391.30
-365.20
-329.49
-285.80
-237.32
-188.55
-145.26
-114.05
-100.54
-106.35
-127.02
-152.57
-171.35
-174.87
-161.35
-135.79
-106.94
-82.97
-68.42
-64.05
-68.36
-79.27
-94.63
-111.48
-125.78
-132.34
-127.13
-108.98
-80.71
-48.73
-21.19
-5.81
-5.52
-17.33
-33.23
-43.61
-41.12
-23.37
5.89
39.05
68.43
89.87
104.24
116.44
132.51
156.28
187.28
220.62
249.35
267.65
273.59
269.36
259.36
247.36
234.33
218.62
198.13
172.99
146.62
124.33
109.91
103.09
99.41
92.79
79.35
59.76
38.68
21.75
12.36
9.54
8.86
5.21
-4.01
-17.63
-31.44
-40.98
-44.01
-41.43
-36.27
-31.29
-27.16
-22.31
-14.48
-2.75
11.22
23.69
30.94
31.33
26.49
20.53
18.09
22.10
32.56
46.73
60.80
71.80
78.98
83.91
89.31
97.25
107.72
118.40
125.74
126.93
121.32
110.62
97.79
84.84
71.19
53.32
26.44
-12.51
-62.09
-115.26
-161.02
-187.99
-188.79
-162.93
-117.01
-62.27
-10.46
29.74
54.52
64.28
61.70
49.73
30.90
7.71
-16.64
-38.29
-53.62
-60.86
-60.98
-57.44
-54.58
-55.37
-59.97
-65.74
-68.93
-66.80
-59.33
-49.22
-40.45
-35.98
-35.97
-37.56
-36.25
-28.40
-13.44
5.54
23.20
34.67
38.20
35.91
32.39
31.94
35.91
42.02
45.73
43.20
33.73
20.16
7.34
-0.64
-2.68
-0.88
1.07
0.25
-3.82
-9.08
-12.61
-12.48
-9.03
-4.53
-1.69
-2.06
-5.25
-9.27
-11.93
-12.10
-10.28
-8.31
-8.22
-11.14
-16.57
-22.61
-26.71
-26.94
-22.86
-15.75
-8.09
-2.36
0.19
0.08
-0.90
-1.04
-0.09
0.25
-2.72
-10.79
-23.12
-35.91
-43.98
-43.45
-34.04
-19.53
-5.86
2.09
3.04
0.02
-1.68
2.45
13.57
29.00
43.75
53.27
55.51
51.42
43.89
36.01
29.82
26.26
26.07
30.44
40.94
58.35
81.25
105.61
125.90
137.39
138.40
131.28
121.43
115.18
117.36
129.58
149.85
173.42
194.60
208.78
214.09
211.95
206.37
201.95
201.48
204.62
207.85
206.17
195.61
174.78
144.94
108.51
67.60
23.27
-23.86
-72.33
-119.27
-160.81
-193.31
-214.70
-225.02
-225.53
-217.47
-201.07
-176.03
-143.04
-105.33
-68.97
-41.11
-26.85
-26.28
-33.43
-38.55
-32.78
-13.23
14.81
39.82
50.02
39.72
12.92
-18.09
-38.67
-39.08
-19.47
9.78
32.31
32.39
0.96
-61.60
-146.23
-238.78
-324.59
-392.47
-436.65
-456.68
-455.75
-438.39
-408.95
-371.40
-329.91
-289.31
-254.48
-228.78
-212.39
-201.86
-191.37
-175.47
-151.57
-121.24
-89.05
-60.25
-37.99
-21.65
-6.88
12.80
43.53
88.64
147.17
213.71
279.75
336.08
375.62
395.43
397.23
385.93
367.03
343.90
316.21
280.32
232.02
169.84
97.81
25.35
-35.58
-75.12
-89.48
-82.34
-62.68
-40.51
-22.69
-11.37
-5.10
-1.66
-0.27
-1.78
-7.41
-17.36
-30.44
-45.12
-60.54
-76.54
-92.22
-105.00
-111.07
-107.35
-93.91
-74.77
-56.78
-46.41
-46.69
-55.78
-67.74
-75.22
-72.60
-58.47
-36.21
-12.40
6.46
16.96
20.07
19.56
18.80
17.89
13.36
0.73
-21.84
-51.36
-81.40
-106.09
-123.32
-135.15
-144.92
-153.71
-158.96
-156.48
-143.56
-120.95
-92.31
-61.94
-32.73
-5.64
19.24
41.84
61.83
79.04
93.44
104.39
109.67
105.27
87.02
52.97
5.49
-48.92
-101.84
-146.06
-177.75
-196.59
-204.81
-205.72
-202.62
-198.40
-195.08
-193.55
-193.29
-192.32
-187.80
-177.11
-159.04
-134.43
-105.89
-76.99
-50.60
-27.44
-5.88
17.51
46.59
84.17
131.15
186.03
244.99
302.50
352.46
389.64
411.10
416.91
409.47
392.40
368.66
339.48
304.31
261.93
212.56
159.15
109.10
71.53
54.32
59.76
81.92
107.22
119.54
107.29
69.35
16.19
-34.52
-65.84
-69.06
-46.65
-9.89
27.18
54.68
70.12
77.94
85.05
96.15
110.04
120.06
117.91
98.65
64.51
24.27
-10.81
-32.69
-40.27
-38.61
-34.86
-33.40
-33.69
-31.84
-24.20
-9.43
11.36
37.00
67.70
104.30
145.63
186.46
217.82
230.40
219.27
187.06
142.96
98.87
63.58
38.99
19.69
-3.09
-36.15
-79.98
-127.87
-169.50
-195.97
-204.21
-197.68
-183.45
-167.94
-153.88
-140.43
-125.56
-108.26
-89.09
-69.09
-48.17
-25.22
0.43
27.24
50.75
64.95
64.56
47.21
14.25
-29.90
-78.83
-125.49
-163.41
-187.68
-195.94
-188.63
-168.61
-140.26
-108.68
-78.98
-55.70
-41.88
-37.49
-38.33
-36.38
-22.65
8.51
55.66
109.55
155.74
179.87
172.71
133.43
69.93
-3.50
-69.96
-113.98
-125.24
-101.46
-49.37
16.69
78.46
118.80
126.49
99.14
43.41
-27.34
-96.68
-149.11
-173.51
-165.52
-128.60
-73.27
-14.80
30.63
50.11
37.77
-3.38
-62.41
-123.74
-171.89
-195.84
-191.53
-161.56
-112.81
-53.29
10.04
71.68
126.89
170.71
198.20
206.01
194.10
166.69
131.12
95.29
64.89
42.11
25.95
14.01
4.40
-3.18
-7.49
-6.57
1.29
16.94
40.10
69.03
100.66
130.58
153.64
165.03
161.42
141.61
106.28
57.70
-0.15
-61.09
-116.40
-156.19
-172.46
-163.04
-133.61
-96.23
-64.34
-46.55
-42.85
-45.35
-43.67
-31.14
-8.76
15.55
31.43
31.64
15.54
-11.29
-40.24
-63.58
-77.02
-80.09
-74.43
-62.20
-45.16
-24.92
-3.47
16.60
32.54
42.21
44.70
40.22
29.97
16.00
1.38
-9.95
-13.69
-6.73
11.04
35.46
58.51
70.78
64.95
39.09
-2.09
-48.21
-86.49
-106.09
-101.86
-76.44
-39.41
-3.71
19.31
24.18
12.94
-6.62
-25.22
-36.39
-38.86
-35.85
-32.21
-31.06
-32.03
-31.87
-26.91
-15.91
-1.26
11.78
17.87
14.50
3.63
-9.03
-16.81
-15.58
-5.84
7.69
18.84
23.39
21.42
16.79
14.51
17.48
24.66
31.78
34.17
29.75
20.40
10.79
5.50
6.39
11.63
17.23
19.56
17.62
13.36
10.15
10.58
14.93
21.19
26.44
28.54
27.15
23.66
20.21
18.51
19.29
22.26
26.58
31.30
35.89
39.95
43.17
44.85
43.91
39.44
31.61
22.58
16.50
18.37
31.78
56.84
89.56
123.11
150.52
167.43
173.35
170.92
163.61
153.32
139.06
117.09
82.76
32.95
-31.82
-106.68
-183.45
-253.22
-309.30
-349.10
-374.34
-389.30
-398.13
-402.97
-403.62
-398.83
-388.19
-373.14
-356.32
-339.87
-323.94
-306.32
-283.78
-254.13
-217.90
-178.25
-139.96
-107.20
-81.60
-61.68
-43.29
-21.07
10.11
53.66
110.03
175.91
244.05
304.03
344.31
355.44
333.35
281.52
210.69
135.96
72.41
31.07
17.04
29.87
65.33
117.09
177.31
236.68
284.85
312.03
311.62
282.61
230.38
165.45
100.19
45.36
7.86
-9.89
-9.33
5.21
27.96
53.09
75.87
93.55
105.25
110.81
109.33
98.51
75.89
40.98
-2.65
-47.28
-83.49
-104.33
-108.58
-101.35
-91.38
-86.34
-89.19
-97.42
-105.64
-109.65
-109.17
-107.57
-108.49
-111.91
-112.41
-101.62
-73.36
-28.64
22.96
66.69
89.06
83.64
52.81
5.12
-49.81
-105.42
-159.06
-209.98
-256.26
-293.48
-315.91
-318.99
-301.37
-265.36
-215.72
-158.20
-98.74
-43.34
2.26
33.72
49.55
52.13
47.20
42.16
43.32
54.53
76.77
108.79
148.48
193.57
241.58
289.45
333.34
369.11
393.26
403.88
401.10
386.79
363.83
335.06
302.66
267.94
231.62
194.26
156.64
119.92
85.47
54.51
27.83
5.55
-12.80
-28.04
-40.99
-52.23
-62.00
-70.20
-76.65
-81.23
-84.06
-85.44
-85.82
-85.60
-85.05
-84.25
-83.12
-81.53
-79.41
-76.79
-73.77
-70.54
-67.24
-63.98
-60.80
-57.68
-54.61
-51.59
-48.60
-45.67
-42.82
-40.05
-37.39
-34.82
-32.34
-29.96
-27.67
-25.50
-23.46
-21.55
-19.69
-17.93
-16.31
-14.82
-13.47
-12.25
-11.16
-10.18
-9.29
-8.50
-7.80
-7.19
-6.64
-6.14
-5.69
-5.28
-4.90
-4.55
-4.21
-3.90
-3.62
-3.34
-3.08
-2.81
-2.55
-2.30
-2.05
-1.80
-1.57
-1.34
-1.13
-0.91
-0.70
-0.49
-0.28
-0.06
0.17
0.40
0.64
0.89
1.17
1.46
1.79
2.14
2.53
2.96
3.42
3.94
4.49
5.11
5.79
6.53
7.34
8.23
9.21
10.25
11.37
12.58
13.87
15.26
16.76
18.36
20.06
21.89
23.78
25.79
27.91
30.16
32.55
35.06
37.67
40.35
43.12
45.86
48.59
51.23
53.63
55.53
56.63
56.59
55.13
52.09
47.28
40.76
32.69
23.35
13.05
2.13
-9.00
-19.95
-29.70
-38.15
-44.99
-49.97
-53.04
-54.38
-54.38
-53.52
-52.61
-51.63
-50.64
-49.42
-47.73
-45.48
-42.90
-40.44
-38.68
-38.02
-38.36
-39.39
-40.37
-40.64
-39.90
-38.43
-36.97
-36.39
-37.31
-39.69
-42.99
-46.23
-48.70
-50.02
-50.46
-50.57
-50.98
-52.18
-54.80
-59.71
-67.59
-77.95
-88.22
-93.88
-89.90
-73.21
-44.78
-9.87
23.64
48.51
61.13
62.15
55.51
45.97
36.93
29.89
25.48
24.70
28.98
38.86
52.28
64.17
67.96
59.06
37.23
7.52
-21.68
-42.42
-50.59
-47.45
-38.12
-28.53
-22.43
-20.05
-18.79
-15.14
-6.74
7.01
24.87
44.86
65.21
83.64
98.32
107.28
108.76
102.35
90.28
76.57
66.41
63.69
68.95
78.74
87.08
88.28
79.62
62.56
41.25
20.35
2.91
-10.38
-20.17
-27.30
-31.95
-33.80
-32.66
-29.25
-24.99
-21.43
-19.79
-20.18
-21.82
-23.46
-24.23
-23.40
-21.27
-18.75
-16.95
-16.65
-17.97
-20.40
-23.16
-25.52
-27.11
-28.13
-29.13
-30.67
-33.13
-36.47
-40.45
-44.79
-49.35
-54.12
-59.27
-64.91
-71.02
-77.38
-83.75
-90.12
-96.74
-104.10
-112.50
-121.99
-132.11
-141.96
-150.50
-156.85
-160.77
-162.71
-163.54
-163.85
-163.70
-162.18
-157.52
-148.02
-132.10
-109.54
-81.59
-50.50
-18.60
12.42
42.13
71.43
102.10
136.26
175.46
219.66
264.90
304.97
331.63
337.02
317.31
275.19
219.90
163.92
118.18
87.92
71.63
63.25
55.92
45.71
31.74
15.77
0.85
-9.27
-10.27
1.92
28.68
66.17
104.84
132.32
138.52
120.59
84.37
41.53
4.00
-21.30
-34.37
-39.84
-42.96
-46.31
-49.07
-48.88
-44.31
-36.28
-27.65
-22.06
-21.76
-26.86
-35.39
-43.95
-49.17
-48.71
-42.37
-31.94
-20.94
-13.27
-11.76
-17.24
-27.97
-40.26
-49.45
-51.18
-41.96
-20.49
11.81
49.97
85.80
109.85
114.42
97.41
64.10
26.44
-1.38
-8.09
9.92
47.00
90.19
124.18
137.18
125.27
94.10
54.55
19.05
-3.48
-11.19
-8.47
-2.78
-0.27
-3.26
-9.88
-16.88
-22.36
-27.18
-34.07
-44.76
-58.13
-70.42
-76.96
-75.11
-65.73
-52.80
-41.40
-35.59
-36.43
-41.98
-48.47
-52.16
-50.95
-45.23
-37.32
-30.30
-26.57
-26.81
-29.97
-33.93
-36.53
-36.46
-33.68
-29.08
-23.88
-19.06
-14.74
-10.43
-5.22
1.65
10.42
20.51
31.03
40.80
48.70
54.00
56.35
55.74
52.36
46.55
38.77
29.60
19.68
9.54
-0.17
-8.99
-16.62
-23.04
-28.38
-32.95
-36.99
-40.69
-44.14
-47.36
-50.38
-53.39
-56.63
-60.43
-65.02
-70.38
-76.30
-82.40
-88.25
-93.60
-98.51
-103.29
-108.33
-113.72
-119.04
-123.16
-124.52
-121.55
-113.15
-99.41
-81.10
-59.66
-36.71
-13.45
9.48
31.96
53.80
74.47
92.48
105.77
112.55
111.97
104.87
93.60
81.41
71.73
67.73
71.76
84.97
106.57
133.05
158.30
175.00
177.19
162.04
133.27
99.07
68.65
48.30
39.45
39.24
43.06
47.23
50.33
52.86
55.48
57.80
58.48
56.10
50.34
42.23
33.60
26.27
21.12
17.62
14.31
9.84
3.14
-5.65
-15.50
-24.99
-33.08
-39.47
-44.64
-49.38
-54.13
-58.59
-61.66
-62.01
-58.73
-51.82
-42.17
-31.20
-20.23
-9.97
-0.42
8.71
17.43
24.99
29.88
30.43
25.45
14.68
-1.07
-20.07
-39.82
-57.26
-69.05
-72.09
-64.49
-46.58
-21.46
5.65
29.03
44.45
50.48
48.61
42.08
34.23
27.15
21.27
16.43
13.04
12.76
17.92
30.32
49.60
72.58
94.13
108.70
112.80
106.14
91.33
72.26
52.19
32.46
12.23
-8.62
-30.31
-51.85
-70.86
-84.33
-89.96
-87.27
-78.00
-65.54
-53.52
-44.45
-38.43
-33.47
-26.98
-17.52
-5.96
4.80
11.39
11.64
4.92
-7.83
-25.18
-45.91
-69.05
-93.37
-117.02
-137.40
-151.65
-157.23
-152.14
-135.19
-106.55
-68.39
-25.24
16.70
51.01
73.62
84.06
85.32
81.86
76.97
70.56
59.20
38.04
3.93
-41.85
-92.48
-136.93
-163.71
-165.80
-144.25
-108.38
-72.00
-47.48
-40.12
-46.82
-59.01
-68.17
-70.38
-66.92
-61.21
-54.74
-45.12
-27.82
-0.27
34.96
70.05
95.22
103.90
95.96
77.56
57.82
44.82
42.44
49.95
63.42
77.87
89.27
95.19
94.31
85.58
67.72
39.66
1.84
-42.26
-85.84
-119.87
-135.90
-129.70
-103.22
-63.65
-20.26
19.50
52.26
77.96
97.79
112.11
118.94
115.40
100.89
79.02
56.94
42.52
40.09
49.12
65.67
83.13
95.17
98.68
94.37
85.46
75.93
67.93
62.13
59.82
60.36
61.46
60.88
56.74
47.09
29.44
-0.19
-44.69
-101.55
-165.58
-229.92
-286.55
-329.24
-355.99
-360.78
-342.38
-316.48
-290.00
-259.73
-224.97
-188.22
-154.90
-131.16
-120.16
-120.39
-124.71
-116.93
-85.47
-28.08
48.28
130.82
206.53
267.19
310.36
338.20
355.79
365.76
367.62
360.01
342.25
316.76
283.80
243.13
194.74
140.37
82.34
24.22
-28.65
-67.27
-85.88
-85.21
-71.76
-54.64
-40.93
-34.08
-33.63
-36.68
-40.29
-43.44
-46.63
-50.27
-53.86
-55.97
-55.47
-52.35
-47.74
-43.26
-40.89
-41.78
-45.45
-50.44
-54.95
-57.78
-58.63
-58.23
-57.81
-58.79
-62.05
-67.36
-73.86
-80.45
-86.32
-91.18
-95.36
-99.57
-104.58
-110.77
-117.74
-124.82
-130.89
-134.81
-135.43
-131.73
-122.75
-107.63
-86.43
-58.08
-22.13
21.07
70.18
122.88
176.10
226.35
270.10
304.31
326.66
335.38
329.77
310.16
277.90
235.20
184.85
129.31
72.40
17.81
-31.68
-74.15
-108.46
-134.17
-151.51
-161.30
-164.77
-164.03
-160.41
-155.13
-149.13
-142.91
-136.61
-129.99
-122.57
-113.78
-102.97
-89.70
-74.00
-56.24
-37.06
-17.32
2.08
20.21
36.30
49.86
60.64
68.42
73.13
74.82
73.59
69.46
62.43
52.38
39.08
22.16
1.03
-24.85
-55.84
-92.00
-133.01
-178.09
-226.11
-275.54
-324.48
-371.40
-414.98
-454.05
-487.45
-514.05
-532.75
-542.57
-542.93
-533.89
-516.16
-490.99
-459.83
-424.01
-384.68
-342.53
-297.91
-251.11
-202.77
-154.02
-106.37
-61.21
-19.32
19.58
56.87
94.59
134.63
177.93
224.17
271.89
319.18
364.48
407.22
447.77
487.16
526.58
566.79
607.81
648.55
686.37
716.64
732.96
728.72
699.53
645.80
573.91
494.82
420.65
360.64
318.62
293.06
279.46
273.14
270.97
271.10
271.63
269.59
261.18
243.21
214.84
178.40
138.70
101.16
69.89
46.31
28.78
13.45
-4.01
-26.45
-53.95
-83.74
-111.40
-132.68
-145.06
-147.92
-142.15
-128.98
-109.47
-84.77
-56.94
-29.15
-5.10
12.54
23.79
31.14
38.15
47.31
58.54
69.05
74.93
73.29
63.83
49.61
35.30
25.27
22.26
26.97
38.74
56.43
79.22
103.35
125.56
142.31
150.10
146.22
129.70
101.71
65.28
24.52
-16.61
-54.73
-87.93
-115.69
-138.43
-156.84
-171.50
-182.76
-190.76
-195.76
-197.88
-197.54
-195.35
-191.94
-187.72
-182.88
-177.45
-171.39
-164.78
-157.63
-150.10
-142.43
-134.83
-127.40
-120.17
-113.11
-106.19
-99.46
-92.93
-86.66
-80.68
-75.04
-69.69
-64.62
-59.79
-55.21
-50.91
-46.89
-43.17
-39.75
-36.58
-33.64
-30.88
-28.29
-25.85
-23.57
-21.47
-19.58
-17.88
-16.38
-15.05
-13.88
-12.85
-11.95
-11.15
-10.33
-9.54
-8.83
-8.17
-7.58
-7.03
-6.53
-6.08
-5.66
-5.27
-4.94
-4.63
-4.35
-4.09
-3.85
-3.62
-3.41
-3.21
-3.03
-2.87
-2.73
-2.60
-2.48
-2.37
-2.25
-2.13
-2.01
-1.89
-1.76
-1.63
-1.49
-1.34
-1.19
-1.03
-0.86
-0.70
-0.54
-0.38
-0.24
-0.08
0.06
0.21
0.36
0.51
0.68
0.88
1.10
1.35
1.59
1.80
1.96
2.09
2.22
2.41
2.71
3.15
3.70
4.33
4.97
5.59
6.19
6.81
7.53
8.42
9.52
10.78
12.12
13.43
14.65
15.76
16.87
18.14
19.76
21.75
24.02
26.35
28.45
30.16
31.51
32.81
34.53
37.14
40.69
44.85
48.89
51.90
53.06
51.93
48.48
43.14
36.38
28.37
18.88
7.35
-6.73
-23.02
-40.78
-58.37
-73.83
-85.68
-93.17
-96.76
-97.68
-97.72
-97.90
-99.27
-102.53
-107.77
-113.84
-117.97
-116.26
-105.07
-83.13
-52.54
-18.88
11.11
32.26
42.89
44.98
42.44
38.84
35.91
33.52
30.77
27.33
23.91
21.76
21.69
23.38
25.56
26.77
25.95
23.08
19.11
15.42
13.16
12.77
13.76
15.12
15.74
14.97
12.89
10.17
7.79
6.46
6.41
7.20
8.08
8.29
7.51
5.90
4.09
2.81
2.50
3.11
4.10
4.71
4.36
2.94
0.96
-0.78
-1.45
-0.78
0.86
2.58
3.31
2.41
-0.06
-3.28
-5.95
-6.91
-5.80
-3.21
-0.45
1.06
0.29
-2.85
-7.67
-12.82
-16.79
-18.29
-16.33
-10.61
-2.51
4.67
6.15
-2.59
-23.10
-52.30
-82.96
-106.03
-114.19
-104.82
-80.72
-47.49
-12.68
19.04
46.54
70.71
92.42
111.27
125.48
132.82
132.09
123.21
107.33
85.83
59.72
30.35
0.27
-26.42
-44.49
-50.55
-44.83
-31.09
-15.48
-3.88
0.60
-1.55
-7.55
-14.14
-19.71
-24.52
-29.54
-35.30
-41.24
-45.91
-48.10
-47.62
-45.45
-43.56
-44.05
-47.91
-54.86
-63.46
-71.64
-77.62
-80.55
-80.88
-80.35
-81.11
-84.44
-90.49
-97.88
-104.17
-106.70
-103.43
-92.73
-73.83
-46.74
-12.70
25.15
61.66
90.66
106.64
107.88
97.47
81.83
67.96
60.39
59.65
62.97
66.81
68.66
68.31
67.00
65.88
64.94
63.10
59.08
52.56
44.44
36.34
30.14
26.80
25.99
26.30
25.97
23.66
19.02
12.80
6.45
1.50
-1.09
-1.50
-0.74
-0.31
-1.47
-4.71
-9.61
-14.99
-19.42
-21.93
-22.40
-21.62
-20.96
-21.84
-24.79
-29.47
-34.59
-38.73
-40.90
-41.34
-41.19
-41.61
-42.97
-44.73
-46.12
-46.80
-46.87
-46.08
-43.01
-35.12
-20.09
2.28
29.09
54.97
74.52
84.84
86.69
83.62
79.47
76.35
73.92
70.65
65.60
59.57
54.72
52.95
54.94
59.42
63.96
66.18
64.89
60.60
55.13
50.64
48.86
50.67
56.09
64.17
72.78
78.43
76.90
64.72
41.02
8.70
-26.04
-55.94
-75.71
-83.93
-83.20
-78.21
-73.19
-70.13
-68.57
-66.88
-63.75
-59.20
-54.29
-50.47
-48.63
-48.88
-50.61
-52.61
-53.71
-53.00
-50.34
-46.16
-41.50
-37.56
-35.25
-35.00
-36.86
-40.64
-45.72
-50.58
-52.40
-47.68
-33.57
-9.65
21.27
53.54
80.98
99.39
108.01
109.51
108.28
108.21
110.87
114.88
116.64
111.98
98.12
75.06
46.00
16.17
-8.99
-25.96
-34.42
-36.54
-35.38
-33.12
-30.21
-25.94
-19.80
-12.51
-5.83
-1.71
-0.89
-2.45
-4.29
-4.31
-1.17
4.86
12.31
19.41
24.75
27.93
29.65
31.19
33.65
37.48
42.01
45.90
47.59
45.90
40.44
31.65
20.59
8.47
-3.36
-14.31
-24.03
-32.38
-39.35
-44.85
-48.73
-50.87
-51.51
-50.60
-48.54
-45.78
-42.81
-39.99
-37.50
-35.42
-33.66
-32.12
-30.51
-28.84
-27.08
-25.33
-23.76
-22.50
-21.63
-21.13
-20.82
-20.45
-19.86
-19.02
-18.07
-17.30
-17.03
-17.46
-18.55
-20.00
-21.32
-22.16
-22.38
-22.21
-22.14
-22.75
-24.39
-27.05
-30.30
-33.42
-35.76
-37.07
-37.47
-37.55
-38.20
-40.23
-44.06
-49.56
-55.85
-61.35
-63.89
-61.18
-51.60
-34.89
-12.70
11.65
34.08
51.13
61.01
64.07
62.20
57.83
52.86
48.22
44.02
40.10
36.56
33.74
32.00
31.30
31.10
30.59
29.18
26.66
23.44
20.22
17.68
16.17
15.58
15.42
15.08
14.11
12.40
10.20
7.99
6.22
5.11
4.60
4.42
4.19
3.64
2.67
1.41
0.09
-1.09
-1.97
-2.60
-3.10
-3.66
-4.41
-5.39
-6.60
-7.92
-9.31
-10.70
-12.10
-13.54
-15.12
-16.84
-18.73
-20.79
-23.05
-25.50
-28.13
-30.98
-34.02
-37.29
-40.75
-44.36
-48.14
-52.12
-56.32
-60.75
-65.43
-70.37
-75.63
-81.12
-86.78
-92.56
-98.25
-103.60
-108.23
-111.61
-113.06
-111.92
-107.59
-99.29
-86.61
-69.51
-48.38
-23.98
2.59
30.06
56.46
80.48
101.11
117.61
129.62
137.17
140.60
140.54
138.31
134.32
129.18
123.50
117.66
111.95
106.51
101.39
96.68
92.30
88.22
84.49
81.14
78.16
75.57
73.36
71.47
69.95
68.83
68.16
67.78
67.61
67.43
67.07
66.66
65.47
63.07
59.26
54.12
47.73
40.35
32.28
23.77
14.99
5.95
-3.26
-13.14
-23.04
-32.69
-41.79
-50.09
-57.41
-63.65
-68.90
-73.19
-76.51
-78.69
-79.61
-79.21
-77.48
-74.70
-71.36
-68.22
-65.85
-64.67
-64.47
-64.72
-64.58
-63.42
-61.14
-58.30
-56.03
-55.36
-56.89
-60.35
-64.63
-68.16
-69.56
-68.26
-64.66
-59.91
-54.94
-49.91
-43.91
-35.27
-22.28
-3.90
19.93
48.27
78.76
108.28
132.36
145.97
144.91
127.93
97.85
60.96
25.08
-4.12
-23.70
-33.79
-36.33
-33.83
-28.43
-21.42
-13.30
-3.99
6.60
18.27
29.60
38.10
41.15
37.80
29.98
21.95
17.98
19.57
24.32
27.01
22.90
10.87
-5.62
-20.54
-28.90
-29.53
-25.37
-21.38
-21.59
-26.88
-34.99
-42.57
-47.72
-50.93
-53.75
-56.37
-56.11
-48.04
-27.85
4.90
45.37
85.07
115.70
132.60
136.09
130.40
120.54
109.97
100.01
90.79
82.42
75.28
69.18
62.42
51.62
34.16
10.50
-14.92
-34.40
-40.62
-30.50
-7.20
20.00
40.17
45.60
34.88
12.85
-11.93
-31.41
-41.49
-42.60
-38.48
-33.65
-31.13
-31.30
-32.57
-32.81
-30.64
-26.18
-20.89
-16.35
-13.37
-11.29
-8.75
-4.72
0.39
4.60
5.18
0.08
-10.18
-24.02
-38.22
-49.61
-56.35
-58.66
-58.29
-57.53
-58.12
-60.87
-65.69
-71.26
-75.50
-76.20
-71.63
-61.08
-45.47
-27.20
-9.46
4.73
13.70
17.44
16.93
14.02
10.16
6.26
2.84
0.30
-1.10
-1.32
-0.89
-0.90
-2.44
-6.02
-11.21
-16.67
-20.85
-22.85
-22.86
-22.43
-23.69
-28.58
-37.62
-49.35
-60.87
-68.74
-70.13
-63.52
-49.65
-31.62
-14.49
-4.57
-6.72
-22.78
-49.74
-79.86
-102.72
-109.40
-96.15
-65.86
-26.80
11.31
41.04
59.58
68.06
69.59
66.57
60.05
50.38
38.36
26.43
17.87
15.92
21.35
33.12
48.15
62.95
74.96
82.71
85.64
82.84
74.22
59.06
39.01
18.44
2.97
-3.28
-0.10
8.43
15.89
17.57
12.68
4.45
-3.02
-7.90
-11.72
-17.44
-25.88
-34.54
-37.14
-29.10
-10.65
12.87
34.62
50.28
60.04
68.80
79.41
92.13
103.42
108.36
104.08
91.72
75.40
59.41
45.71
32.88
17.91
-2.14
-27.52
-54.84
-77.53
-88.59
-83.39
-61.60
-28.42
7.82
38.38
57.25
61.75
55.02
43.04
31.91
26.35
28.78
40.35
59.84
83.09
103.75
115.01
112.45
96.28
72.41
46.39
23.23
4.73
-10.72
-26.33
-43.68
-61.71
-77.37
-87.92
-93.37
-95.72
-98.09
-103.09
-111.43
-121.12
-129.07
-132.67
-131.06
-124.87
-114.75
-101.18
-84.99
-68.44
-54.41
-44.88
-39.06
-32.98
-20.56
3.68
41.22
88.18
133.63
164.19
169.68
147.08
101.04
41.56
-19.81
-72.05
-105.06
-114.54
-103.11
-77.35
-43.48
-6.05
31.48
65.57
92.52
109.52
115.24
111.29
101.73
92.13
85.31
81.53
78.82
74.60
66.76
54.37
38.87
23.82
13.48
10.38
14.38
22.71
31.23
37.69
39.84
36.45
27.15
11.75
-9.98
-37.36
-67.72
-96.68
-119.01
-131.18
-131.98
-121.39
-99.88
-69.04
-32.82
0.74
19.03
10.07
-32.99
-106.42
-194.69
-275.81
-330.78
-351.38
-342.10
-316.76
-288.44
-264.74
-245.48
-224.01
-192.11
-145.16
-83.71
-11.61
65.97
147.70
232.32
310.61
368.72
395.80
389.07
353.19
305.69
252.06
197.06
144.67
97.67
58.53
28.39
9.56
3.96
12.66
33.61
64.40
97.54
122.10
130.76
123.88
108.42
92.12
79.46
69.74
60.97
51.47
41.19
34.05
35.61
50.90
81.92
127.85
184.33
245.92
305.94
357.84
397.58
419.96
423.40
409.01
379.92
339.30
289.87
233.21
169.88
101.69
31.64
-36.63
-100.77
-160.25
-215.82
-268.02
-316.28
-359.93
-396.75
-424.34
-441.47
-449.36
-451.08
-450.12
-449.01
-448.70
-450.81
-454.81
-458.95
-461.59
-462.60
-463.50
-466.45
-473.17
-483.69
-497.94
-510.67
-512.67
-494.64
-451.90
-386.65
-307.24
-225.12
-132.29
-34.13
57.13
130.04
179.73
207.24
216.13
211.13
198.00
181.69
166.16
155.70
153.60
160.76
175.60
195.71
220.26
251.29
288.32
326.83
361.94
390.25
410.03
420.11
418.10
400.55
364.35
309.02
237.75
159.37
85.44
25.71
-14.98
-38.22
-49.92
-57.37
-65.92
-77.31
-88.95
-95.69
-93.87
-81.25
-59.34
-32.52
-7.26
10.12
16.13
10.87
-2.85
-21.23
-38.80
-51.38
-55.89
-51.46
-39.10
-20.93
0.28
21.20
39.33
57.31
75.55
96.95
123.97
157.99
199.51
247.84
299.62
336.14
341.46
307.59
240.95
158.46
78.94
16.16
-24.89
-47.00
-62.15
-77.56
-95.52
-113.29
-126.11
-129.82
-122.75
-103.21
-74.41
-45.02
-23.01
-12.44
-10.89
-12.35
-11.62
-6.99
-0.80
2.31
-1.45
-10.68
-20.67
-26.00
-23.57
-13.60
1.59
18.62
33.49
41.84
40.60
28.48
6.01
-23.85
-56.52
-86.15
-107.96
-120.46
-125.77
-127.51
-129.06
-132.05
-136.19
-141.15
-147.04
-155.14
-167.66
-186.77
-213.62
-248.44
-291.20
-335.47
-375.72
-405.15
-416.04
-401.61
-359.03
-291.17
-206.48
-116.72
-32.87
37.08
90.26
128.49
155.50
174.36
186.04
190.03
186.09
175.76
161.80
148.10
139.38
138.98
147.13
160.45
173.18
179.64
176.83
165.02
147.75
132.13
125.86
134.57
159.54
197.33
241.11
281.93
309.69
315.44
296.80
259.10
214.87
180.02
168.77
189.31
240.71
312.46
372.58
388.85
343.25
244.54
122.03
6.54
-83.86
-145.95
-185.75
-211.75
-227.22
-231.24
-222.17
-201.88
-176.63
-154.35
-140.77
-137.16
-141.21
-146.58
-146.28
-136.28
-117.94
-97.31
-81.58
-74.89
-75.75
-78.90
-75.86
-59.53
-28.15
13.16
54.36
85.34
98.33
94.16
78.25
57.76
38.27
22.54
11.35
5.01
4.14
8.60
15.98
20.06
13.60
-8.10
-44.67
-90.24
-135.93
-174.51
-199.69
-207.55
-196.64
-167.27
-122.20
-67.70
-13.39
30.05
54.98
59.53
50.14
37.17
29.57
31.01
39.80
51.40
61.90
69.64
74.98
78.18
77.94
72.18
59.58
40.58
17.53
-6.28
-27.55
-44.99
-59.09
-71.71
-85.05
-100.70
-118.67
-136.72
-150.32
-153.93
-143.21
-117.24
-79.95
-39.02
-3.13
21.55
33.53
35.90
33.88
31.65
30.69
29.56
26.03
19.02
9.73
1.16
-2.90
0.26
11.36
28.44
46.51
59.41
61.85
51.65
30.65
4.13
-21.62
-41.46
-52.57
-54.35
-47.40
-32.94
-12.48
10.28
30.75
44.26
47.60
40.35
24.98
5.82
-12.69
-27.30
-36.26
-38.61
-33.93
-21.92
-2.66
22.67
51.12
77.81
96.19
101.36
92.01
71.40
46.45
24.99
12.42
9.82
14.43
21.49
27.01
29.16
27.54
22.06
11.85
-4.45
-26.99
-53.17
-77.59
-93.09
-94.84
-82.78
-61.87
-40.01
-24.49
-18.96
-22.51
-31.18
-40.46
-47.85
-53.22
-57.51
-61.11
-63.12
-61.31
-53.75
-40.10
-21.81
-1.83
16.44
30.77
40.53
46.65
50.68
53.63
55.32
54.43
49.41
39.37
25.43
10.62
-0.77
-4.41
2.78
21.61
49.83
82.81
113.53
134.49
139.49
126.06
96.67
58.13
19.75
-9.47
-22.85
-18.96
-0.07
28.09
58.39
84.13
100.92
107.80
106.70
100.51
90.54
75.83
53.47
21.83
-17.03
-57.16
-90.77
-111.63
-118.49
-115.58
-110.02
-108.84
-115.07
-127.30
-141.28
-152.31
-157.14
-154.92
-146.61
-131.69
-112.08
-89.53
-65.59
-42.57
-23.14
-8.88
0.80
9.58
22.28
42.31
69.85
100.78
127.78
142.10
139.91
123.10
97.78
71.04
47.45
28.35
12.28
-2.81
-17.77
-31.39
-41.63
-46.92
-46.90
-42.50
-34.64
-23.94
-11.10
2.37
14.07
20.68
19.41
9.13
-7.42
-25.02
-38.60
-45.39
-45.78
-41.93
-35.89
-28.64
-19.95
-9.78
0.58
8.54
11.40
7.64
-2.07
-14.73
-25.83
-30.19
-23.40
-3.56
27.73
65.16
100.84
127.27
140.21
140.16
131.91
122.11
115.98
113.57
112.24
106.75
91.06
63.70
28.70
-6.21
-33.20
-47.75
-50.66
-47.39
-45.22
-50.00
-63.80
-85.28
-110.42
-134.95
-154.54
-165.18
-163.91
-150.11
-126.25
-97.39
-69.55
-47.68
-33.81
-26.73
-23.51
-21.66
-20.49
-20.78
-22.75
-25.19
-25.35
-20.27
-8.15
10.64
33.96
59.03
83.32
104.03
119.13
125.95
121.58
104.90
77.77
45.36
14.43
-9.67
-25.32
-34.91
-42.92
-52.24
-61.27
-64.79
-56.82
-34.96
-2.81
30.60
55.19
64.25
57.36
40.56
22.77
11.34
9.07
14.29
23.08
32.43
40.55
46.38
48.77
46.11
37.61
25.16
13.46
8.36
14.17
30.59
52.75
74.07
89.29
96.75
98.74
99.17
97.84
94.68
88.16
72.86
45.96
9.15
-31.91
-69.53
-94.92
-103.45
-96.57
-80.49
-62.26
-45.80
-31.22
-16.43
0.27
18.19
34.97
47.69
54.38
55.04
51.73
47.15
43.10
39.70
34.88
26.46
12.39
-7.38
-31.51
-57.41
-81.92
-102.40
-117.19
-129.46
-138.93
-145.57
-149.47
-150.16
-146.77
-138.09
-123.50
-98.68
-66.79
-31.43
3.67
33.61
57.59
74.48
82.65
79.98
65.98
42.03
14.00
-8.11
-15.86
-5.71
19.29
51.83
82.91
105.99
116.70
113.73
96.78
66.20
23.72
-26.14
-75.89
-118.18
-147.24
-161.94
-164.95
-160.89
-154.10
-146.73
-138.67
-122.85
-99.13
-70.15
-40.20
-13.02
9.52
27.22
41.42
53.58
64.68
73.55
78.78
79.29
73.77
61.52
42.27
16.40
-14.64
-47.85
-79.29
-101.64
-109.11
-100.75
-80.93
-57.67
-38.96
-29.57
-29.59
-35.94
-44.10
-50.69
-54.11
-53.53
-48.09
-36.42
-17.30
9.42
42.02
75.20
104.50
127.00
142.16
151.52
157.33
161.47
164.56
165.87
163.87
158.09
149.33
142.87
140.23
141.74
146.53
151.88
154.08
149.43
136.61
116.82
89.00
59.08
32.42
12.59
0.08
-7.61
-15.88
-29.77
-53.49
-87.95
-128.48
-167.83
-197.62
-212.23
-207.69
-188.49
-163.64
-141.93
-131.11
-126.57
-123.07
-111.51
-86.08
-47.43
-3.87
32.22
49.47
39.68
5.64
-42.67
-90.50
-124.78
-138.15
-130.76
-107.45
-71.28
-29.42
14.14
56.14
95.13
130.49
162.73
193.31
218.33
247.66
271.33
279.84
265.22
227.07
172.98
114.45
62.09
21.95
-4.07
-20.44
-30.01
-34.40
-33.28
-26.03
-13.95
-0.21
10.70
15.38
10.38
-3.11
-21.93
-42.11
-60.88
-78.33
-94.23
-110.10
-127.11
-146.51
-167.05
-186.69
-203.77
-217.37
-227.66
-233.07
-231.16
-218.73
-194.44
-159.55
-118.91
-80.98
-49.73
-27.59
-12.45
-0.74
11.23
25.45
42.01
59.72
77.49
95.39
113.70
134.32
157.13
180.36
201.29
217.03
225.75
227.17
222.84
205.68
178.27
145.59
112.27
81.03
52.63
26.77
3.07
-18.22
-36.43
-49.36
-55.89
-56.12
-50.25
-38.21
-19.78
4.24
31.29
56.61
73.08
74.66
60.32
35.04
7.58
-13.60
-24.50
-27.08
-25.98
-25.89
-29.95
-39.06
-52.94
-71.80
-95.23
-123.63
-156.08
-188.48
-213.64
-222.84
-209.99
-175.20
-125.67
-73.11
-29.12
-0.71
13.82
19.93
23.89
29.70
38.05
48.17
60.58
76.98
100.54
131.78
165.08
190.29
197.33
181.42
146.49
103.41
64.45
38.18
26.50
25.52
29.50
34.12
37.22
38.18
36.16
29.82
17.78
-0.47
-24.47
-52.72
-81.17
-106.04
-123.59
-131.24
-129.14
-120.94
-112.80
-110.43
-115.46
-123.57
-126.56
-116.41
-90.07
-51.91
-11.43
21.86
43.33
54.76
61.78
68.35
74.07
74.51
64.65
43.24
14.78
-11.12
-25.04
-22.42
-5.32
19.39
43.68
62.03
72.96
78.18
80.40
81.59
81.60
79.17
72.85
61.88
46.32
27.32
6.54
-14.67
-34.72
-54.24
-74.47
-95.70
-115.59
-129.31
-130.95
-116.50
-86.79
-47.34
-6.79
27.14
50.31
62.46
64.98
58.50
42.21
15.00
-21.59
-62.24
-98.77
-123.21
-131.21
-123.46
-104.54
-78.40
-50.55
-23.16
3.43
28.75
51.39
69.03
79.62
82.52
79.33
71.94
62.85
53.31
43.17
31.54
17.41
0.09
-20.58
-43.43
-66.26
-85.07
-95.16
-92.62
-76.25
-48.84
-16.18
12.26
29.33
32.28
23.47
8.12
-8.59
-23.66
-36.57
-48.37
-59.91
-70.56
-79.01
-84.01
-85.37
-84.10
-81.85
-79.30
-76.22
-71.41
-63.01
-49.59
-30.81
-7.67
17.71
42.08
63.21
79.83
91.60
99.18
103.57
105.61
105.78
104.17
100.74
95.73
89.55
82.73
76.02
70.02
65.00
60.89
57.28
53.71
50.05
46.29
42.49
38.91
35.75
33.08
30.86
28.96
27.20
25.68
24.86
24.56
24.81
25.60
26.79
28.03
29.27
29.75
29.13
27.25
24.10
19.95
15.02
9.53
3.66
-2.40
-8.41
-13.89
-18.23
-20.91
-21.44
-19.97
-17.10
-13.80
-10.97
-9.35
-8.95
-9.13
-8.78
-6.78
-2.49
3.97
11.83
20.12
27.95
34.83
40.89
46.59
52.60
59.61
68.33
79.17
91.71
104.13
113.10
114.87
106.86
89.19
65.02
39.67
18.57
5.25
0.66
3.25
10.65
20.81
32.54
45.03
57.30
68.07
76.30
82.08
86.31
90.84
97.46
107.16
119.64
133.49
146.56
156.31
162.67
164.85
162.56
156.38
147.70
138.35
129.85
122.82
116.74
109.93
100.60
88.24
73.80
58.91
45.06
33.07
22.84
13.93
5.74
-2.02
-8.72
-13.30
-14.97
-13.57
-9.49
-3.60
3.17
9.09
12.92
14.54
14.69
14.06
12.81
10.89
7.70
2.91
-6.38
-21.75
-42.19
-64.77
-86.51
-105.80
-121.79
-135.45
-147.66
-164.98
-191.43
-225.86
-262.90
-296.90
-324.85
-345.12
-359.71
-370.46
-388.10
-419.26
-462.35
-509.30
-551.47
-584.38
-605.71
-618.96
-627.44
-645.78
-683.13
-737.51
-798.73
-855.21
-899.97
-928.05
-941.81
-865.18
-663.81
-363.52
-35.93
251.93
470.39
603.94
683.82
731.29
758.56
759.64
729.23
674.43
605.16
532.33
463.51
405.90
359.81
325.18
292.32
254.45
211.79
165.97
119.76
74.61
33.30
-5.58
-43.27
-86.89
-141.43
-182.74
-193.83
-173.19
-134.54
-92.40
-57.01
-31.34
-16.50
-9.49
-3.27
7.29
26.07
53.97
89.03
125.10
155.47
174.80
182.08
180.49
172.01
158.46
141.72
124.36
108.61
96.40
88.94
86.33
87.36
87.92
83.73
72.07
53.00
29.09
4.46
-16.14
-28.94
-33.62
-32.63
-30.89
-32.77
-39.95
-50.75
-61.29
-67.65
-67.93
-63.03
-55.79
-49.71
-47.10
-48.54
-53.41
-60.58
-69.05
-78.41
-88.63
-98.83
-107.70
-113.15
-112.76
-104.72
-89.10
-68.67
-48.22
-32.71
-23.81
-20.03
-17.23
-10.78
1.93
20.67
43.04
67.21
87.59
103.36
115.90
127.26
138.69
150.13
160.58
169.07
175.54
181.08
188.29
199.26
215.29
236.78
263.22
293.28
324.39
352.81
374.02
384.53
382.20
367.25
342.10
310.23
274.52
236.10
194.43
148.70
99.45
48.42
-1.60
-47.99
-88.92
-123.74
-152.87
-176.85
-195.60
-205.96
-204.93
-191.96
-169.87
-142.83
-114.72
-88.72
-66.86
-50.09
-38.23
-30.59
-26.17
-24.21
-24.93
-28.87
-36.99
-49.87
-67.59
-89.58
-115.42
-141.13
-165.70
-188.79
-208.41
-220.36
-218.65
-199.00
-161.37
-111.12
-57.12
-8.59
28.88
54.09
67.99
71.37
62.76
40.19
4.18
-40.17
-84.38
-119.11
-138.22
-143.58
-138.09
-126.69
-113.55
-100.09
-85.27
-67.45
-45.83
-21.49
2.65
23.34
37.41
43.16
41.00
32.68
20.41
6.20
-8.35
-21.78
-31.86
-36.23
-32.71
-20.36
-0.34
23.97
48.09
68.03
81.47
88.33
90.74
92.33
96.72
106.09
120.47
137.78
154.71
167.86
174.85
174.89
168.69
158.08
145.27
132.25
120.52
110.95
103.95
99.66
97.92
98.25
99.72
101.13
101.27
99.57
96.44
93.39
92.48
95.58
103.44
115.42
129.68
143.89
155.91
164.08
167.30
165.03
157.50
145.98
132.68
120.12
110.04
102.26
94.42
82.90
64.42
37.67
3.91
-33.77
-72.05
-108.81
-143.90
-178.78
-215.52
-256.03
-301.73
-353.58
-411.73
-474.74
-538.66
-596.92
-641.74
-666.68
-669.08
-651.12
-618.53
-577.80
-533.35
-486.31
-435.31
-378.64
-316.13
-249.65
-182.30
-117.08
-56.03
0.02
51.15
98.08
141.99
183.91
223.99
261.08
292.86
316.88
331.82
338.20
337.94
333.15
324.96
313.11
296.26
272.67
240.73
199.20
147.43
85.94
17.19
-54.03
-121.20
-177.56
-218.05
-240.92
-248.32
-245.65
-240.11
-238.70
-246.24
-263.71
-287.78
-311.86
-328.57
-332.80
-323.83
-305.41
-283.94
-265.59
-253.91
-249.36
-250.06
-253.45
-257.22
-259.35
-257.33
-247.78
-227.01
-192.50
-144.38
-86.00
-23.01
38.58
94.38
142.66
184.07
220.44
253.66
284.89
314.58
342.57
368.39
391.30
410.38
424.67
433.45
436.37
433.37
424.45
409.59
388.82
362.77
333.01
302.07
272.82
247.57
227.23
211.09
197.27
183.71
169.08
153.18
136.80
121.00
106.58
93.70
82.22
72.19
64.23
59.54
59.34
64.10
73.06
84.29
95.48
104.93
112.27
118.58
125.76
135.39
147.90
162.30
176.63
189.03
198.70
206.48
214.56
225.57
241.30
261.76
284.79
306.55
322.76
330.05
327.07
314.80
296.09
274.48
252.98
233.26
215.56
199.13
182.96
166.36
149.02
130.66
110.76
88.29
61.99
30.88
-5.22
-45.38
-87.65
-129.48
-168.49
-202.93
-232.10
-256.20
-276.01
-292.70
-308.01
-324.61
-346.04
-375.72
-414.98
-461.39
-508.25
-546.21
-566.60
-564.59
-541.06
-501.51
-453.53
-403.91
-357.25
-315.93
-281.05
-253.45
-233.49
-220.24
-210.49
-199.46
-182.82
-159.35
-132.35
-108.72
-96.14
-99.03
-115.97
-139.56
-159.06
-164.33
-149.11
-112.14
-55.86
15.92
99.64
191.51
286.14
375.55
450.20
501.96
526.85
526.48
506.81
475.30
437.81
396.93
352.56
303.69
250.18
193.18
134.44
75.27
15.95
-43.72
-103.31
-160.88
-212.78
-254.60
-282.52
-294.77
-292.53
-279.81
-262.34
-245.76
-233.94
-227.95
-226.32
-226.01
-223.89
-217.80
-207.11
-192.55
-175.74
-158.60
-142.79
-129.47
-119.05
-111.09
-104.12
-95.87
-83.68
-65.30
-39.72
-7.71
28.14
64.11
96.41
122.04
139.45
148.22
148.52
140.51
124.32
100.55
71.04
39.15
9.40
-13.77
-27.22
-30.04
-23.63
-10.90
4.68
20.24
33.94
44.94
53.13
58.54
61.23
61.23
58.77
54.34
48.45
41.20
31.97
19.46
2.14
-20.88
-49.10
-80.10
-109.78
-133.18
-145.88
-145.56
-133.06
-112.38
-89.42
-69.92
-57.37
-52.11
-51.75
-52.89
-52.90
-50.63
-45.99
-39.00
-29.24
-16.27
-0.42
17.10
34.98
53.10
73.28
98.08
128.67
162.85
194.99
218.20
227.68
223.12
208.75
190.90
174.74
161.94
150.93
138.92
124.61
109.46
96.97
90.63
91.81
99.00
108.60
116.76
120.86
120.03
114.31
103.63
87.15
63.44
31.44
-8.67
-55.49
-107.06
-161.14
-215.00
-264.79
-305.50
-332.27
-342.56
-337.94
-323.87
-307.48
-293.97
-283.98
-273.50
-256.47
-228.95
-192.01
-151.94
-117.40
-95.14
-86.62
-87.30
-88.81
-82.82
-64.47
-33.99
3.91
42.70
76.79
102.92
120.07
128.18
127.17
117.05
98.98
76.34
54.87
41.20
40.83
56.16
85.69
124.73
166.71
205.05
234.55
252.46
258.84
256.42
249.58
242.77
238.83
237.90
237.74
234.79
225.73
208.14
180.97
144.57
101.27
55.95
16.18
-9.23
-13.22
6.22
44.20
90.07
131.19
157.58
165.21
156.48
138.09
117.82
101.73
92.96
91.62
95.36
100.03
100.51
91.78
70.59
37.01
-4.78
-47.03
-80.70
-98.37
-97.03
-79.14
-51.89
-24.35
-4.49
3.20
-1.66
-16.70
-38.93
-66.40
-98.43
-134.59
-173.36
-211.52
-245.02
-270.54
-287.19
-296.97
-303.78
-311.68
-323.23
-338.79
-356.89
-374.90
-389.54
-397.50
-395.68
-381.61
-354.10
-314.03
-264.47
-210.11
-156.04
-106.22
-63.18
-27.90
-0.42
19.55
32.44
38.81
39.60
36.34
31.76
28.71
29.39
35.28
47.04
64.48
86.44
110.40
132.79
151.13
162.94
166.61
162.35
152.84
142.44
135.18
132.54
132.96
135.66
139.73
145.69
155.53
172.26
198.44
234.93
280.41
331.83
388.46
447.61
504.10
550.58
580.46
590.61
583.19
564.33
519.16
441.94
335.93
214.82
96.39
-4.92
-82.08
-135.26
-169.49
-192.02
-206.67
-217.27
-225.88
-236.49
-251.03
-268.63
-285.52
-296.64
-297.81
-282.75
-252.35
-213.95
-177.64
-150.48
-133.89
-124.31
-116.44
-106.82
-93.44
-77.26
-60.13
-43.80
-28.66
-14.43
-0.92
10.39
18.46
23.41
25.74
25.59
22.16
14.18
0.73
-18.18
-41.16
-65.45
-87.66
-104.74
-114.48
-115.66
-107.78
-91.19
-67.31
-39.08
-9.28
16.67
33.41
37.79
30.05
13.30
-8.07
-30.13
-49.95
-65.24
-74.06
-74.36
-65.35
-49.17
-31.25
-18.58
-16.15
-23.90
-36.25
-45.09
-44.09
-32.34
-14.84
0.52
7.33
3.80
-7.08
-19.93
-30.20
-35.89
-37.57
-36.90
-35.06
-32.01
-26.92
-19.25
-9.51
0.47
8.29
11.84
10.06
3.33
-6.73
-17.91
-28.11
-35.99
-41.07
-43.50
-43.68
-41.95
-38.43
-33.05
-25.82
-17.05
-7.57
1.38
8.35
12.27
12.83
10.70
7.26
4.11
2.44
2.72
4.71
7.76
11.30
15.02
18.81
22.56
26.13
29.42
32.43
35.16
37.44
38.70
38.09
34.82
28.78
20.85
12.82
6.78
4.25
5.64
10.13
16.15
21.97
26.37
28.83
29.52
28.92
27.46
25.37
22.61
19.03
14.59
9.47
4.17
-0.57
-3.90
-5.10
-3.77
-0.03
5.59
12.29
19.20
25.61
30.97
34.90
37.14
37.59
36.36
33.77
30.34
26.69
23.35
20.64
18.64
17.18
16.04
15.00
13.98
12.99
12.13
11.48
11.00
10.63
10.20
9.59
8.67
7.27
5.24
2.46
-0.94
-4.55
-7.64
-9.42
-9.24
-6.86
-2.47
3.37
9.99
16.69
22.89
28.13
32.06
34.44
35.21
34.50
32.64
30.08
27.28
24.69
22.63
21.26
20.58
20.33
20.22
19.95
19.37
18.51
17.50
16.50
15.52
14.39
12.79
10.34
6.80
2.13
-3.38
-9.21
-14.63
-18.98
-21.76
-22.85
-22.45
-21.02
-19.05
-16.88
-14.62
-12.16
-9.33
-6.07
-2.50
1.11
4.42
7.10
8.97
10.04
10.58
11.09
12.25
14.66
18.62
23.92
29.98
36.01
41.44
45.99
49.59
52.17
53.45
52.95
50.29
45.42
38.67
30.70
22.19
13.76
5.91
-0.96
-6.44
-10.31
-12.70
-14.09
-15.24
-16.88
-19.40
-22.76
-26.57
-30.33
-33.59
-35.94
-37.06
-36.78
-35.20
-32.82
-30.46
-29.04
-29.09
-30.41
-32.07
-32.74
-31.27
-27.27
-21.27
-14.47
-8.24
-3.65
-1.36
-1.70
-4.84
-10.79
-19.17
-28.90
-38.15
-44.72
-46.80
-43.70
-36.19
-26.22
-16.08
-7.57
-1.41
2.67
5.33
7.12
8.12
8.11
6.92
4.74
2.10
-0.39
-2.35
-3.74
-4.72
-5.31
-5.37
-4.63
-3.05
-1.07
0.50
0.77
-0.77
-4.02
-8.30
-12.70
-16.44
-19.20
-21.16
-22.73
-24.21
-25.45
-25.81
-24.46
-20.81
-14.99
-7.97
-1.25
3.74
6.28
6.60
5.64
4.50
3.78
3.31
2.39
0.23
-3.41
-8.12
-12.97
-17.01
-19.73
-21.22
-21.94
-22.42
-22.85
-23.05
-22.71
-21.74
-20.50
-19.73
-20.21
-22.28
-25.62
-29.32
-32.31
-33.82
-33.62
-32.00
-29.48
-26.36
-22.56
-17.66
-11.31
-3.69
4.15
10.22
12.20
8.14
-2.61
-19.00
-38.32
-56.93
-71.28
-78.70
-77.97
-69.32
-54.24
-35.20
-15.23
2.50
15.24
21.34
20.56
14.21
4.63
-5.59
-14.36
-20.61
-24.22
-25.74
-25.77
-24.63
-22.14
-17.79
-11.01
-1.61
10.02
22.94
35.97
48.11
58.88
68.31
76.62
83.79
89.27
92.15
91.65
87.57
80.65
72.16
63.31
54.73
46.26
37.38
27.71
17.48
7.54
-0.98
-7.20
-10.79
-12.05
-11.67
-10.57
-9.58
-9.39
-10.40
-12.68
-16.06
-20.31
-25.30
-31.06
-37.56
-44.48
-51.00
-56.03
-58.60
-58.32
-55.60
-51.40
-46.79
-42.47
-38.72
-35.62
-33.37
-32.45
-33.34
-36.07
-39.90
-43.34
-44.63
-42.61
-37.08
-28.90
-19.54
-10.35
-2.11
5.08
11.56
17.66
23.45
28.78
33.48
37.63
41.59
45.74
50.17
54.39
57.45
58.28
56.40
52.27
47.37
43.69
42.92
45.84
52.12
60.70
70.43
80.47
90.17
98.86
105.57
109.15
108.97
105.35
99.62
93.47
88.10
83.67
79.57
75.09
70.28
66.03
63.51
63.22
64.32
64.75
62.07
54.56
41.99
25.66
7.69
-9.81
-25.43
-38.64
-49.52
-58.32
-65.08
-69.49
-71.10
-69.75
-65.86
-60.43
-54.78
-49.99
-46.45
-43.64
-40.47
-35.85
-29.31
-21.35
-13.15
-6.08
-1.02
1.92
3.33
4.02
4.52
4.96
5.13
4.88
4.23
3.33
2.09
0.01
-3.81
-10.17
-19.01
-28.98
-37.56
-41.96
-40.34
-32.67
-20.70
-7.03
6.18
18.11
29.05
39.73
50.34
60.15
67.68
71.16
69.22
61.13
47.07
28.02
5.80
-17.18
-38.28
-55.29
-67.04
-73.58
-75.78
-74.77
-71.53
-66.84
-61.78
-57.88
-56.79
-59.50
-65.54
-72.65
-77.42
-76.81
-69.57
-57.13
-43.09
-31.67
-25.89
-26.46
-31.86
-39.51
-47.13
-53.76
-59.59
-65.36
-71.57
-78.32
-85.72
-94.22
-104.44
-116.26
-128.03
-136.18
-136.29
-125.10
-102.47
-72.11
-40.65
-15.02
0.16
4.30
0.54
-6.07
-10.87
-11.16
-6.47
2.34
14.33
29.04
46.25
65.28
84.72
102.63
117.47
128.70
136.79
142.70
147.10
150.06
151.06
149.59
145.44
138.83
130.14
119.66
107.61
94.34
80.63
67.59
56.24
47.08
39.79
33.45
26.99
19.80
11.88
3.87
-3.39
-9.36
-14.11
-18.29
-22.85
-28.52
-35.49
-43.29
-50.90
-57.07
-60.53
-60.34
-56.19
-48.56
-38.78
-28.83
-20.74
-16.02
-15.13
-17.35
-21.08
-24.47
-26.01
-25.12
-22.17
-18.18
-14.25
-11.01
-8.41
-5.84
-2.57
1.65
6.24
9.90
11.21
9.37
4.85
-0.31
-3.04
-0.41
9.00
24.16
41.66
57.07
66.72
69.15
65.32
57.47
47.54
36.32
23.59
9.19
-6.11
-20.79
-33.81
-45.85
-59.39
-77.08
-99.31
-122.90
-142.13
-151.49
-148.69
-135.69
-117.31
-98.37
-81.28
-65.69
-50.04
-33.78
-18.32
-6.12
1.34
4.92
7.83
13.69
24.51
39.83
57.38
74.42
88.81
99.31
105.46
107.60
107.05
106.31
108.43
115.42
126.57
137.94
143.66
138.54
120.75
92.94
61.12
32.28
11.46
0.18
-3.38
-2.53
0.17
4.14
10.25
18.93
28.40
34.12
30.80
15.41
-10.33
-39.95
-64.91
-78.76
-80.23
-73.75
-66.97
-66.79
-76.40
-94.50
-116.71
-138.10
-155.43
-167.96
-176.90
-183.73
-188.42
-188.68
-180.68
-161.17
-129.83
-90.42
-49.88
-15.56
7.76
19.74
23.94
25.54
28.77
35.40
44.66
54.34
62.21
66.93
68.33
67.23
65.05
63.24
62.88
64.45
67.79
72.52
78.33
85.09
92.68
100.70
108.36
114.71
119.09
121.38
121.89
120.90
118.21
113.34
105.96
96.57
86.62
77.93
71.80
68.26
66.04
62.96
56.68
45.55
29.17
8.43
-14.82
-38.48
-60.94
-81.52
-100.35
-117.84
-133.96
-147.72
-157.11
-159.58
-152.88
-135.93
-109.54
-76.60
-41.75
-10.40
12.72
25.03
26.88
21.08
11.47
1.31
-7.52
-14.15
-17.94
-17.83
-12.62
-1.80
13.48
30.45
45.69
56.30
60.66
58.56
50.79
38.90
25.06
11.98
2.42
-1.72
-0.22
5.12
11.19
14.85
14.17
9.19
1.68
-5.77
-11.18
-14.28
-16.87
-22.17
-33.28
-51.12
-73.30
-94.71
-109.65
-114.79
-111.05
-102.98
-96.25
-94.56
-97.92
-103.30
-107.11
-107.73
-106.43
-106.15
-109.39
-116.32
-124.21
-128.83
-125.99
-113.21
-90.16
-58.36
-20.32
21.32
64.12
105.92
144.96
180.32
212.23
241.91
270.62
298.32
322.66
339.13
342.61
329.44
299.24
255.13
202.75
148.28
96.62
50.60
11.05
-22.45
-50.74
-74.42
-93.66
-108.09
-116.96
-120.03
-118.08
-113.32
-108.82
-107.49
-110.78
-118.03
-126.70
-133.52
-135.87
-132.69
-124.74
-114.01
-102.79
-92.72
-84.54
-78.14
-73.14
-69.31
-66.61
-64.85
-63.47
-61.50
-57.95
-52.47
-45.62
-38.70
-33.14
-29.81
-28.71
-29.12
-30.22
-31.44
-32.63
-33.82
-34.88
-35.40
-34.84
-32.89
-29.67
-25.88
-22.37
-19.77
-18.18
-17.18
-16.21
-15.07
-14.18
-14.37
-16.45
-20.58
-26.07
-31.64
-35.99
-38.52
-39.41
-39.37
-38.90
-37.87
-35.60
-31.31
-24.68
-15.94
-5.53
6.33
19.66
34.37
49.54
63.25
73.06
77.09
75.03
68.33
59.56
51.28
45.00
40.98
38.61
37.10
35.95
35.12
34.70
34.72
35.00
35.12
34.58
32.91
29.87
25.62
20.85
16.62
13.99
13.49
14.84
17.02
18.85
19.53
18.98
17.65
15.98
14.08
11.84
9.31
7.05
6.09
7.25
10.59
15.13
19.39
22.20
23.29
23.17
22.51
21.39
19.16
14.89
8.29
0.12
-7.83
-13.53
-15.53
-13.47
-8.24
-1.45
5.23
10.65
14.39
16.45
16.99
16.14
14.09
11.39
8.88
7.50
7.84
9.94
13.26
17.10
20.80
23.85
25.68
25.61
23.15
18.38
12.21
6.03
0.96
-2.86
-6.22
-10.06
-14.54
-18.68
-20.94
-20.35
-17.29
-13.35
-10.23
-8.65
-7.82
-6.10
-2.36
2.99
7.90
9.62
6.25
-2.25
-13.86
-25.45
-34.23
-38.82
-39.59
-38.01
-35.62
-33.32
-31.15
-28.70
-25.66
-22.11
-18.51
-15.37
-13.00
-11.51
-10.96
-11.64
-14.06
-18.72
-25.70
-34.20
-42.45
-48.14
-49.16
-44.44
-34.48
-21.15
-7.05
5.36
14.47
19.66
21.18
19.59
15.59
9.74
2.70
-4.74
-11.57
-16.78
-19.59
-19.75
-17.48
-13.28
-7.60
-0.66
7.59
17.12
27.52
37.73
46.31
51.86
53.68
52.03
48.06
43.20
38.62
34.75
31.27
27.36
22.20
15.48
7.62
-0.14
-6.13
-8.85
-7.55
-2.56
4.78
12.64
19.35
23.96
26.40
27.21
27.12
26.72
26.20
25.53
24.52
23.06
21.17
19.05
16.98
15.25
14.11
13.62
13.71
14.07
14.22
13.52
11.29
7.08
0.91
-6.57
-14.28
-21.16
-26.71
-31.31
-36.09
-42.28
-50.61
-60.80
-71.56
-81.04
-87.43
-89.55
-87.04
-80.48
-70.99
-59.98
-48.62
-37.64
-27.30
-17.70
-9.05
-1.90
3.05
5.37
5.23
3.55
1.51
0.04
-0.54
-0.53
-0.46
-0.69
-1.29
-2.15
-3.26
-4.83
-6.95
-9.16
-10.24
-8.59
-3.16
5.75
16.24
25.57
31.27
32.05
27.98
19.97
9.11
-3.51
-16.66
-28.61
-37.25
-40.61
-37.58
-28.37
-14.43
2.12
19.04
34.29
46.30
54.26
58.33
59.63
59.76
59.91
60.21
59.75
57.37
52.75
46.90
41.65
38.58
38.08
39.30
41.04
42.57
43.94
45.45
46.89
47.23
45.23
40.25
32.73
23.92
14.94
6.14
-2.93
-12.72
-22.98
-32.45
-39.37
-42.46
-41.43
-37.03
-30.42
-22.76
-15.07
-8.31
-3.20
0.04
1.92
3.46
5.46
7.77
9.24
8.31
4.30
-1.85
-7.81
-11.06
-10.26
-6.02
-0.45
4.08
6.16
5.84
4.20
2.55
1.67
1.55
1.42
0.17
-3.17
-9.04
-16.98
-25.68
-33.44
-38.75
-40.88
-39.98
-36.64
-31.29
-23.86
-13.99
-1.38
13.80
31.11
50.12
70.77
93.08
116.67
140.16
161.30
177.55
186.93
188.76
183.81
174.04
162.07
150.63
141.98
137.22
135.88
136.05
135.16
131.12
123.18
112.15
99.54
86.86
74.92
64.02
54.36
46.36
40.42
36.19
32.22
26.25
16.25
1.60
-16.38
-34.93
-51.12
-63.13
-70.70
-74.78
-76.56
-76.62
-74.74
-70.47
-63.92
-56.25
-49.35
-45.03
-44.05
-45.92
-49.26
-52.70
-55.66
-58.47
-61.98
-66.83
-72.96
-79.59
-85.68
-90.41
-93.54
-95.35
-96.34
-96.88
-97.03
-96.67
-95.84
-95.08
-95.35
-97.54
-101.72
-106.68
-110.14
-109.58
-103.49
-92.08
-77.16
-60.98
-45.08
-29.79
-14.66
0.40
14.37
25.27
31.29
31.88
28.06
21.70
14.46
7.06
-0.49
-8.01
-14.55
-18.49
-18.28
-13.42
-4.72
6.20
17.68
28.64
38.51
46.98
53.76
58.62
61.57
62.97
63.20
62.45
60.63
57.59
53.37
48.30
42.69
36.69
30.40
24.25
19.41
17.61
20.19
27.10
36.30
44.25
47.33
43.43
32.94
18.53
4.06
-6.94
-12.42
-12.30
-8.14
-2.17
3.62
8.14
11.26
13.35
14.74
15.58
16.05
16.71
18.69
23.16
30.50
39.70
48.47
54.22
55.33
51.95
45.88
39.57
34.83
32.18
30.95
30.11
29.15
28.25
27.78
27.60
26.63
23.32
16.70
7.31
-2.63
-10.12
-12.88
-10.67
-5.43
-0.41
1.52
-0.82
-6.53
-13.52
-19.90
-24.92
-29.15
-33.82
-39.87
-47.21
-54.64
-60.09
-61.38
-56.94
-46.39
-30.64
-11.73
7.61
24.67
37.30
44.40
46.04
43.27
37.84
31.71
26.62
23.78
23.77
26.39
30.89
36.03
40.48
43.00
42.78
39.65
34.16
27.40
20.70
15.30
12.00
11.19
12.82
16.55
21.57
26.54
29.48
28.07
20.60
6.84
-11.59
-32.00
-51.95
-70.28
-87.02
-102.22
-114.73
-121.92
-121.19
-111.81
-96.03
-78.54
-64.20
-55.68
-52.37
-51.41
-49.90
-46.77
-42.99
-40.20
-38.93
-37.83
-34.47
-27.39
-17.44
-7.92
-3.04
-5.83
-16.50
-32.54
-49.80
-64.16
-72.79
-74.31
-68.42
-55.52
-36.79
-14.55
7.66
26.02
37.78
42.32
41.40
37.91
34.27
31.15
27.58
21.74
12.29
-0.92
-16.86
-33.68
-49.55
-63.01
-73.05
-78.95
-80.36
-77.43
-71.04
-62.73
-54.35
-47.53
-43.16
-41.11
-40.37
-39.52
-37.28
-33.04
-26.88
-19.33
-11.10
-2.85
4.86
11.41
16.22
19.28
21.45
24.47
30.49
41.05
56.21
74.23
92.14
106.88
116.56
121.04
121.84
121.43
122.19
125.62
131.86
139.73
147.42
153.38
157.11
159.40
161.69
164.77
167.70
167.76
161.83
148.27
128.27
105.52
84.31
67.28
54.14
42.43
29.72
15.51
1.69
-8.96
-14.98
-17.52
-19.70
-24.48
-32.48
-41.53
-48.23
-50.38
-48.64
-46.03
-45.99
-50.30
-58.34
-67.91
-76.86
-84.12
-89.52
-92.98
-93.76
-90.73
-83.31
-72.21
-59.65
-48.69
-42.03
-41.30
-46.80
-57.56
-71.50
-85.50
-95.68
-98.46
-91.85
-76.67
-56.52
-36.41
-20.79
-11.90
-9.46
-11.37
-15.07
-18.45
-20.21
-19.72
-17.03
-12.98
-9.25
-8.17
-11.58
-19.75
-30.68
-40.72
-46.17
-44.95
-37.41
-26.00
-13.82
-3.31
4.35
9.09
11.47
12.10
11.40
9.66
7.31
5.08
3.98
4.97
8.48
13.98
19.95
24.25
24.88
20.84
12.56
1.83
-8.92
-17.58
-23.07
-25.68
-26.67
-27.65
-29.79
-33.37
-37.91
-42.55
-46.62
-50.05
-53.20
-56.43
-59.64
-62.05
-62.46
-59.92
-54.26
-46.18
-37.00
-28.17
-20.84
-15.88
-13.84
-15.15
-20.01
-28.29
-39.41
-52.43
-66.26
-79.85
-92.47
-103.94
-114.55
-124.75
-134.41
-142.21
-145.66
-141.96
-129.51
-108.98
-83.46
-57.30
-34.07
-15.21
0.21
14.32
29.01
44.99
62.00
79.75
98.65
119.73
143.87
170.80
198.94
225.98
249.98
270.08
286.54
300.18
311.55
320.73
327.29
330.75
330.80
327.24
319.86
308.42
292.77
273.27
250.91
227.08
202.89
178.51
152.81
123.77
89.47
49.17
3.87
-43.81
-90.56
-133.44
-170.75
-202.16
-228.30
-249.90
-267.29
-280.41
-289.34
-294.93
-298.83
-302.80
-307.59
-312.18
-314.03
-310.30
-299.41
-281.92
-260.20
-237.33
-215.87
-197.13
-181.35
-168.20
-157.24
-147.75
-138.41
-127.09
-111.46
-89.88
-62.33
-30.70
1.85
31.90
57.02
76.30
90.20
100.14
107.67
113.82
118.88
122.61
124.40
123.70
119.90
112.48
101.13
86.07
68.39
50.13
33.95
22.37
17.07
18.48
25.84
37.79
52.71
68.95
84.72
98.00
106.71
109.21
104.79
93.94
78.32
60.34
42.69
27.91
17.92
13.83
15.81
23.13
34.39
47.80
61.36
73.04
80.95
83.52
80.00
70.74
57.40
42.50
28.70
17.96
10.91
6.85
4.26
1.49
-2.54
-8.03
-14.33
-20.40
-25.36
-28.99
-31.99
-35.99
-43.30
-56.48
-77.73
-107.84
-145.14
-184.86
-219.76
-242.21
-247.01
-233.86
-207.76
-177.15
-150.54
-133.24
-125.90
-125.42
-127.31
-128.23
-127.10
-124.59
-121.79
-118.93
-115.25
-109.59
-101.38
-91.19
-80.41
-70.54
-62.29
-55.07
-47.08
-36.12
-20.52
0.07
24.35
49.87
73.81
94.09
109.94
121.95
131.45
139.69
147.19
153.60
158.11
160.12
159.83
158.12
156.15
154.46
152.53
148.80
141.41
129.11
112.06
91.85
70.98
51.86
35.90
23.13
12.60
3.06
-6.25
-15.21
-22.98
-28.37
-30.31
-28.13
-21.75
-11.71
0.63
13.25
23.81
30.33
31.82
28.54
21.62
12.53
2.47
-7.76
-17.49
-25.96
-32.17
-35.25
-34.87
-31.38
-25.56
-17.99
-8.80
2.27
15.18
29.15
42.62
53.98
62.38
68.22
72.76
77.21
81.98
86.35
88.99
88.75
85.26
79.07
71.29
63.30
56.50
52.20
51.38
54.29
60.12
66.99
72.48
74.34
71.22
62.94
50.43
35.25
19.21
4.07
-8.81
-18.73
-25.88
-31.34
-36.59
-42.76
-50.00
-57.41
-63.51
-67.06
-67.68
-66.00
-63.23
-60.63
-58.95
-58.32
-58.48
-59.01
-59.67
-60.30
-60.69
-60.47
-59.00
-55.62
-49.89
-41.75
-31.60
-20.22
-8.54
2.51
12.23
20.22
26.35
30.66
33.13
33.66
32.03
28.22
22.62
16.19
10.33
6.47
5.45
7.15
10.53
14.03
16.29
16.78
15.81
14.25
12.81
11.58
9.95
6.99
2.13
-4.34
-11.04
-15.94
-16.96
-12.80
-3.47
9.70
24.50
38.70
50.76
60.31
67.98
74.81
81.57
88.33
94.59
99.51
102.07
100.99
94.71
81.84
62.14
37.26
10.89
-12.43
-29.14
-38.23
-41.56
-42.54
-44.18
-47.53
-51.54
-54.30
-54.66
-53.15
-51.61
-51.91
-54.72
-59.14
-63.20
-64.97
-63.32
-58.21
-50.47
-41.17
-31.20
-21.11
-11.20
-1.76
6.74
13.68
18.36
20.30
19.49
16.42
12.07
7.47
3.45
0.34
-2.02
-3.96
-5.64
-6.84
-7.03
-5.64
-2.43
2.36
8.10
14.04
19.68
24.92
29.95
34.91
39.52
42.90
43.83
41.18
34.55
24.54
12.74
1.13
-8.57
-15.46
-19.55
-21.43
-21.78
-21.02
-19.42
-17.37
-15.62
-15.14
-16.58
-19.78
-23.70
-26.81
-27.89
-26.64
-23.63
-19.94
-16.40
-13.26
-10.33
-7.49
-5.14
-4.19
-5.66
-10.01
-16.86
-25.10
-33.37
-40.65
-46.48
-50.90
-54.12
-56.17
-56.70
-55.01
-50.39
-42.48
-31.58
-18.79
-5.74
5.81
14.47
19.50
20.82
18.87
14.29
7.76
-0.08
-8.55
-16.90
-24.41
-30.46
-34.83
-37.80
-40.10
-42.72
-46.55
-51.89
-58.31
-64.59
-69.29
-71.35
-70.65
-68.10
-65.15
-63.05
-62.28
-62.31
-62.04
-60.43
-56.97
-51.78
-45.29
-37.78
-29.18
-19.31
-8.23
3.53
15.07
25.50
34.37
41.70
47.74
52.58
56.20
58.63
60.34
62.38
65.93
71.65
79.21
87.34
94.32
98.72
99.85
97.92
93.75
88.41
82.88
77.76
73.10
68.44
62.97
55.94
47.25
37.68
28.80
22.45
20.02
22.08
28.26
37.66
49.28
62.28
76.03
89.93
103.22
114.88
123.70
128.61
128.94
124.70
116.66
106.26
95.52
86.50
80.78
78.88
79.93
81.99
82.72
80.22
73.45
62.43
47.82
30.63
11.95
-7.28
-26.43
-45.27
-63.99
-82.61
-100.32
-115.03
-123.71
-123.85
-115.31
-101.24
-87.27
-79.05
-79.53
-87.66
-99.29
-109.68
-115.85
-117.11
-113.73
-105.23
-90.03
-67.08
-37.92
-7.41
18.22
35.06
44.19
51.50
64.13
86.00
115.13
144.51
166.12
175.23
172.46
162.62
151.28
141.33
131.72
118.73
98.66
70.33
36.07
0.90
-29.71
-52.15
-65.88
-72.99
-76.56
-78.92
-80.83
-82.03
-82.40
-82.79
-84.65
-88.87
-94.72
-99.73
-100.90
-96.37
-86.72
-74.82
-64.46
-58.58
-58.06
-61.54
-66.46
-70.23
-71.36
-69.86
-66.95
-64.32
-63.23
-63.70
-64.38
-63.14
-58.24
-49.50
-38.89
-29.88
-25.81
-28.08
-35.25
-43.63
-49.01
-48.84
-43.12
-33.95
-23.90
-14.38
-5.08
5.40
18.27
33.55
49.91
65.41
78.53
88.83
96.82
103.34
108.64
111.94
111.57
105.81
93.78
76.13
54.93
32.82
12.01
-6.48
-22.72
-37.15
-49.73
-59.69
-65.95
-68.04
-66.56
-62.97
-58.72
-54.47
-50.02
-44.87
-39.17
-33.98
-30.68
-30.02
-31.30
-32.63
-31.87
-27.91
-21.31
-13.99
-8.11
-4.94
-4.33
-5.00
-5.52
-5.09
-3.97
-3.16
-3.67
-5.87
-9.19
-12.37
-14.01
-13.23
-10.00
-5.09
0.23
4.69
7.39
8.02
6.82
4.33
0.90
-3.64
-9.94
-18.71
-29.98
-42.67
-54.78
-64.18
-69.63
-71.41
-71.04
-70.49
-71.09
-72.97
-75.15
-76.19
-74.76
-69.98
-61.42
-49.01
-33.37
-16.11
-0.01
11.39
14.69
7.81
-9.09
-33.35
-60.36
-84.75
-102.00
-109.69
-108.05
-99.51
-87.43
-74.75
-63.29
-53.63
-45.68
-39.12
-33.37
-27.36
-19.69
-9.17
4.13
18.41
30.76
38.52
40.95
39.76
38.23
39.40
44.56
53.03
63.17
73.75
84.57
96.02
108.09
119.59
128.56
133.22
132.88
128.23
120.90
112.56
104.45
97.32
91.51
86.98
83.24
79.05
72.82
63.24
50.13
34.64
18.62
3.60
-9.99
-22.72
-35.33
-47.90
-59.66
-69.74
-78.00
-85.35
-93.07
-101.70
-110.12
-115.81
-116.12
-109.71
-97.24
-80.90
-62.98
-44.75
-26.19
-6.68
13.85
34.39
53.09
68.12
78.54
84.61
87.68
89.49
91.71
95.45
101.13
108.45
116.48
124.04
130.07
134.09
136.26
137.36
138.29
139.76
142.04
145.15
148.91
153.14
157.52
161.43
164.03
164.44
162.25
157.70
151.63
145.04
138.47
131.72
123.91
113.98
101.25
85.72
67.97
48.73
28.43
6.88
-16.68
-43.21
-73.32
-106.57
-141.15
-173.97
-201.35
-220.17
-228.92
-228.18
-220.25
-208.15
-194.50
-180.87
-167.79
-155.31
-143.46
-132.35
-121.87
-111.54
-100.74
-89.04
-76.86
-65.30
-55.67
-48.81
-44.54
-41.69
-38.54
-33.37
-24.88
-12.49
3.58
22.08
40.95
57.75
70.48
78.43
82.59
85.20
88.76
94.74
102.77
110.82
116.16
116.57
111.38
101.71
89.71
77.48
66.10
55.33
44.20
31.76
17.49
0.90
-19.13
-44.36
-75.94
-112.51
-148.95
-177.14
-189.02
-180.34
-152.81
-113.39
-70.95
-32.31
-0.27
25.63
46.44
61.77
69.84
69.54
62.33
52.28
43.68
38.08
33.20
24.65
9.29
-12.10
-34.84
-53.08
-63.11
-65.05
-62.00
-57.57
-53.85
-51.02
-48.47
-46.11
-44.59
-44.38
-44.70
-43.51
-38.48
-28.51
-14.41
1.74
17.72
32.21
44.81
55.56
64.30
70.72
74.73
76.78
77.58
77.34
75.15
69.13
57.25
38.46
13.37
-15.89
-46.48
-75.69
-101.51
-122.57
-137.83
-146.32
-147.17
-140.00
-125.42
-105.22
-82.20
-59.54
-40.00
-25.22
-15.41
-9.53
-6.00
-3.54
-1.77
-1.09
-2.02
-4.53
-7.65
-9.80
-9.68
-6.96
-2.48
2.20
5.63
7.07
6.71
5.33
3.63
1.82
-0.59
-4.45
-10.42
-18.45
-27.60
-36.13
-42.13
-44.20
-41.98
-36.28
-28.61
-20.49
-12.78
-5.58
1.45
8.48
14.90
19.40
20.59
17.70
11.18
2.63
-5.88
-12.50
-16.14
-16.50
-13.82
-8.59
-1.42
6.82
14.89
21.21
24.23
22.87
16.92
7.09
-5.09
-17.72
-28.99
-37.44
-42.25
-43.29
-41.11
-36.84
-31.87
-27.45
-24.25
-22.12
-20.46
-18.72
-16.98
-15.97
-16.64
-19.38
-23.62
-27.89
-30.50
-30.30
-27.00
-21.01
-12.93
-3.16
8.19
20.90
34.31
47.30
58.57
67.18
72.83
75.78
76.58
75.63
72.96
68.43
61.92
53.86
45.44
38.44
34.69
35.40
40.46
48.42
56.83
63.13
65.49
63.29
57.10
48.26
38.33
28.46
19.33
11.19
4.06
-2.01
-6.85
-10.34
-12.57
-13.77
-14.30
-14.43
-14.20
-13.60
-12.72
-11.93
-11.77
-12.50
-13.77
-14.78
-14.59
-12.82
-9.92
-6.92
-4.83
-3.97
-3.93
-3.87
-3.18
-1.83
-0.30
0.93
1.85
2.89
4.54
6.83
8.98
9.49
6.75
-0.32
-11.82
-26.62
-42.73
-57.84
-69.99
-77.96
-81.35
-80.31
-75.33
-67.07
-56.45
-44.65
-33.01
-22.65
-14.07
-7.04
-0.84
5.28
11.63
17.95
23.57
27.73
29.97
30.16
28.59
25.80
22.50
19.48
17.35
16.37
16.24
16.14
15.02
11.93
6.43
-1.23
-10.22
-19.26
-26.93
-31.98
-33.59
-31.51
-26.19
-18.69
-10.52
-3.22
1.98
4.69
5.46
5.73
7.23
11.22
17.92
26.41
35.09
42.41
47.46
50.15
50.95
50.47
49.07
46.84
43.78
40.07
36.01
31.63
26.45
19.41
9.24
-4.78
-22.30
-41.82
-60.97
-77.23
-88.43
-93.08
-90.47
-80.70
-64.83
-44.71
-22.82
-1.57
17.23
32.80
45.23
54.94
61.96
65.74
65.49
60.90
52.78
43.13
34.52
29.07
27.68
29.71
33.52
37.18
39.29
39.39
37.92
36.02
34.97
35.73
38.50
42.59
46.55
48.78
48.32
45.41
41.33
37.83
36.13
36.38
37.80
39.47
41.03
42.82
45.10
47.14
46.73
40.89
27.24
5.53
-21.71
-49.90
-74.03
-90.42
-97.93
-97.79
-92.85
-86.18
-80.00
-75.20
-71.32
-66.85
-59.65
-47.56
-29.55
-6.77
16.78
34.54
38.80
23.18
-14.67
-71.34
-137.57
-200.33
-246.46
-266.48
-257.22
-222.36
-170.71
-113.03
-58.78
-13.86
19.84
43.32
58.72
67.86
71.82
71.59
68.70
65.44
63.98
65.56
69.84
75.25
80.16
84.12
88.29
94.78
105.53
121.51
142.28
166.18
190.43
211.28
224.23
225.17
211.83
185.27
150.11
113.10
80.66
56.52
40.87
31.32
24.99
20.19
17.11
17.05
21.12
29.18
39.57
49.74
56.96
59.30
56.00
47.48
35.04
20.22
4.41
-11.37
-26.28
-39.47
-49.91
-56.58
-58.92
-57.26
-52.98
-48.19
-45.06
-45.07
-48.57
-54.69
-61.89
-68.66
-74.20
-78.63
-82.68
-87.06
-91.72
-95.51
-96.52
-92.87
-83.65
-69.45
-52.30
-35.05
-20.37
-10.05
-4.61
-3.43
-5.19
-8.38
-11.68
-14.15
-15.27
-14.87
-12.99
-9.86
-5.77
-1.01
4.22
9.93
16.28
23.42
31.25
39.20
46.23
51.09
52.89
51.54
47.80
42.95
37.89
32.50
25.58
15.62
1.92
-14.57
-31.20
-44.76
-52.86
-55.09
-52.98
-48.98
-44.93
-41.14
-36.44
-29.37
-19.35
-7.43
4.18
13.14
18.16
19.39
18.10
15.85
13.52
11.04
7.58
2.13
-5.99
-16.84
-30.03
-44.82
-60.29
-75.44
-89.34
-101.32
-111.20
-119.36
-126.60
-133.67
-140.97
-148.21
-154.60
-159.06
-160.71
-159.11
-154.43
-147.51
-139.79
-133.09
-129.06
-128.39
-130.23
-132.08
-130.57
-122.60
-106.57
-82.89
-53.49
-20.63
14.21
50.79
89.45
129.84
169.84
205.61
232.75
248.08
251.17
244.55
232.66
219.91
209.01
200.24
192.13
182.83
171.46
158.59
145.82
134.91
126.98
122.35
120.80
122.01
125.74
131.71
139.21
146.84
152.65
154.71
151.85
144.19
133.11
120.58
108.39
97.47
87.76
78.63
69.46
60.12
50.91
42.25
34.27
26.79
19.52
12.53
6.31
1.57
-1.37
-2.89
-3.97
-5.69
-8.62
-12.45
-16.41
-19.83
-22.74
-25.93
-30.29
-36.09
-42.59
-48.23
-51.46
-51.58
-48.89
-44.38
-39.03
-33.30
-27.21
-20.74
-14.28
-8.65
-4.68
-2.71
-2.34
-2.74
-3.15
-3.24
-3.22
-3.47
-4.30
-5.75
-7.68
-9.96
-12.53
-15.34
-18.28
-21.11
-23.59
-25.56
-27.04
-28.17
-29.08
-29.90
-30.75
-31.84
-33.44
-35.69
-38.59
-41.73
-44.32
-45.41
-44.35
-41.11
-36.42
-31.44
-27.24
-24.59
-23.68
-24.05
-24.74
-24.63
-22.70
-18.34
-11.44
-2.54
6.88
14.88
19.64
20.40
17.65
13.04
8.65
5.66
5.26
7.89
13.03
19.68
27.11
34.87
42.95
50.19
54.59
53.97
46.70
32.53
12.94
-8.58
-27.66
-40.44
-44.95
-41.55
-32.63
-21.83
-12.78
-8.04
-8.61
-14.09
-23.09
-33.81
-44.47
-53.80
-61.54
-68.28
-74.94
-81.94
-88.78
-94.24
-97.21
-97.47
-95.89
-94.05
-93.07
-92.83
-91.95
-88.74
-82.37
-73.51
-64.09
-56.26
-51.41
-49.56
-49.60
-50.01
-49.63
-48.03
-45.39
-42.06
-38.12
-33.34
-27.34
-19.97
-11.57
-3.01
4.58
10.23
13.63
15.22
16.03
17.18
19.30
22.20
24.97
26.33
25.37
21.98
17.01
12.05
8.94
9.28
14.13
23.80
37.82
54.87
72.88
89.34
101.97
109.36
111.35
108.84
103.21
95.82
87.86
80.50
75.11
73.36
76.81
86.51
102.56
123.79
147.82
171.28
190.15
200.18
197.53
179.55
146.14
100.52
48.93
-1.09
-43.28
-74.86
-97.21
-114.54
-132.09
-153.20
-178.13
-204.33
-228.33
-247.92
-263.32
-276.56
-289.27
-302.02
-313.66
-322.80
-329.19
-334.30
-340.36
-348.37
-356.12
-357.66
-346.21
-316.67
-268.66
-206.92
-139.63
-75.14
-18.67
29.13
76.84
131.01
193.50
258.67
316.27
356.48
376.98
381.58
375.19
362.40
345.76
326.52
303.05
275.96
247.42
219.79
194.36
169.66
143.17
111.94
73.70
26.19
-30.36
-92.71
-154.62
-207.61
-245.13
-263.75
-264.60
-244.84
-208.29
-162.76
-116.56
-80.38
-51.65
-26.48
-4.04
14.35
24.02
19.62
-0.51
-33.31
-71.93
-107.35
-133.04
-145.69
-145.71
-137.19
-127.25
-122.25
-125.38
-135.70
-148.55
-159.98
-168.15
-174.08
-181.05
-192.73
-210.81
-234.91
-264.39
-299.38
-341.64
-391.47
-444.57
-491.39
-519.82
-519.80
-487.44
-426.49
-346.00
-256.75
-167.32
-82.42
-3.83
67.68
130.94
184.24
226.05
256.11
275.33
285.53
288.65
286.12
278.95
267.73
253.25
236.67
219.50
203.26
189.06
177.48
168.46
161.61
156.42
152.59
149.93
148.35
147.58
147.15
146.54
145.62
144.82
145.15
147.85
153.78
163.02
174.73
187.42
199.76
211.17
222.29
234.94
251.68
275.16
307.34
348.22
395.01
442.08
482.01
507.55
513.92
500.27
469.82
429.06
384.96
342.87
305.10
271.02
238.21
204.28
168.55
132.91
102.36
82.04
74.68
78.99
89.87
100.62
106.10
104.40
96.92
88.36
82.33
79.57
77.94
74.19
66.18
54.09
39.78
25.35
14.07
7.03
3.38
1.17
-1.26
-4.18
-5.95
-4.18
-10.57
-32.05
-70.61
-120.84
-173.12
-218.85
-253.40
-275.55
-286.42
-288.37
-282.06
-269.90
-254.80
-240.04
-227.70
-220.12
-217.99
-220.87
-227.86
-236.20
-244.88
-253.31
-261.40
-269.26
-276.55
-282.25
-285.40
-285.71
-274.58
-248.44
-207.64
-156.53
-101.91
-50.00
-4.80
32.06
60.70
82.85
99.30
111.04
119.06
123.95
126.62
128.06
129.02
129.82
130.74
130.78
129.00
125.38
118.60
108.28
94.63
78.03
58.96
37.99
15.11
-9.47
-32.64
-53.54
-71.45
-85.86
-96.45
-103.13
-105.97
-105.61
-102.70
-98.05
-92.88
-87.92
-83.55
-79.82
-76.53
-73.17
-69.41
-65.04
-60.22
-55.84
-52.58
-50.89
-50.72
-51.50
-52.26
-52.07
-50.42
-47.62
-44.82
-43.27
-43.78
-46.40
-50.27
-53.90
-56.05
-55.98
-54.08
-51.61
-49.99
-50.46
-53.93
-61.05
-71.86
-85.05
-97.50
-104.74
-102.29
-87.94
-63.32
-33.93
-7.18
10.69
16.78
12.85
2.92
-8.94
-20.39
-31.01
-41.27
-51.34
-60.32
-66.41
-68.26
-65.67
-59.66
-51.86
-44.01
-36.41
-28.61
-19.75
-8.91
3.95
17.97
31.74
43.56
52.68
59.21
64.04
68.57
74.49
82.73
93.53
106.54
120.79
135.60
150.45
164.92
177.09
186.80
193.57
196.60
196.70
192.28
182.48
167.18
146.79
122.07
94.35
64.77
34.45
4.47
-24.41
-51.14
-74.82
-94.75
-110.54
-121.92
-129.09
-132.48
-132.71
-130.72
-127.27
-122.91
-118.20
-113.62
-109.42
-105.87
-103.07
-100.97
-99.53
-98.47
-97.31
-95.63
-93.18
-89.77
-85.46
-80.53
-75.37
-70.54
-66.51
-63.48
-61.73
-61.53
-63.04
-66.23
-70.88
-76.42
-82.00
-88.29
-94.97
-101.49
-107.27
-111.83
-114.92
-116.46
-116.56
-115.35
-113.01
-109.44
-104.67
-98.87
-92.34
-85.50
-78.72
-72.27
-66.16
-60.17
-53.63
-46.04
-37.12
-27.08
-16.43
-5.82
4.28
13.81
23.18
33.21
44.65
57.82
72.46
87.84
103.08
117.52
131.01
143.94
157.14
171.60
188.29
207.99
230.85
255.93
280.83
301.96
315.34
318.02
309.09
290.12
264.49
236.03
207.69
180.86
155.61
131.50
108.56
87.60
70.00
57.03
49.17
45.94
46.01
47.78
49.81
51.33
52.11
52.20
51.58
49.94
46.78
41.69
34.71
26.39
17.70
9.59
2.66
-2.94
-7.47
-11.33
-14.83
-18.04
-20.83
-23.01
-24.47
-25.25
-25.69
-26.22
-27.32
-29.30
-32.22
-35.89
-39.97
-44.15
-48.28
-52.25
-55.96
-59.07
-61.06
-61.28
-59.29
-55.03
-48.99
-42.06
-35.28
-29.58
-25.56
-23.37
-22.83
-23.60
-25.28
-27.66
-30.67
-34.40
-38.95
-44.30
-50.23
-56.31
-61.93
-66.38
-68.93
-69.01
-66.17
-60.05
-50.42
-37.22
-20.76
-1.82
18.26
37.73
54.74
67.70
75.66
78.43
76.57
71.20
63.87
56.26
49.93
46.03
45.05
46.67
49.92
53.45
56.03
56.93
55.99
53.53
50.16
46.45
42.71
38.98
35.15
31.08
26.74
22.29
17.95
13.94
10.36
7.06
3.74
0.04
-4.30
-9.36
-15.01
-21.03
-27.16
-33.28
-39.40
-45.61
-52.07
-59.01
-66.68
-75.26
-84.75
-94.79
-104.67
-113.38
-119.89
-123.37
-123.53
-120.68
-115.51
-108.79
-100.99
-92.23
-82.29
-70.83
-57.58
-42.48
-25.71
-7.67
11.03
29.58
47.07
62.61
75.44
85.10
91.44
94.62
95.05
93.23
89.77
85.24
80.17
74.92
69.74
64.67
59.60
54.38
48.82
42.82
36.47
30.06
24.08
19.05
15.51
13.67
13.52
14.65
16.47
18.33
19.65
20.08
19.48
17.84
15.26
11.83
7.69
3.03
-1.88
-6.73
-11.20
-15.04
-18.08
-20.34
-21.95
-23.16
-24.22
-25.33
-26.61
-28.13
-29.90
-31.94
-34.32
-37.08
-40.31
-44.05
-48.30
-53.02
-57.99
-62.86
-67.14
-70.44
-72.56
-73.70
-74.29
-74.82
-75.63
-76.78
-78.02
-78.88
-78.83
-77.38
-74.09
-68.56
-60.44
-49.55
-35.98
-20.11
-2.68
15.26
32.52
47.89
60.43
69.59
75.27
77.82
77.84
75.97
72.77
68.57
63.46
57.38
50.23
42.01
32.91
23.45
14.35
6.39
0.35
-3.42
-5.00
-4.97
-4.23
-3.78
-4.52
-7.04
-11.58
-17.92
-25.56
-33.81
-41.98
-49.59
-56.50
-62.92
-69.40
-76.66
-85.34
-95.75
-107.51
-119.41
-129.53
-135.76
-136.45
-130.85
-119.20
-102.49
-82.02
-59.01
-34.43
-9.01
16.70
42.13
66.63
89.42
109.57
126.06
138.01
144.92
146.83
144.35
138.43
129.98
119.75
108.22
95.87
83.35
71.48
61.10
52.73
46.37
41.52
37.44
33.35
28.71
23.36
17.52
11.69
6.63
3.18
2.11
3.84
8.30
14.91
22.76
30.97
38.87
46.01
52.03
56.56
59.27
60.04
59.07
56.85
53.78
49.88
44.72
37.70
28.50
17.46
5.64
-5.50
-14.56
-20.71
-23.60
-23.19
-19.74
-13.75
-6.11
1.92
8.87
13.49
15.05
13.45
9.08
2.58
-5.46
-14.38
-23.41
-31.57
-37.99
-42.03
-43.62
-43.29
-41.92
-40.32
-38.88
-37.46
-35.63
-32.91
-29.02
-23.97
-17.96
-11.33
-4.47
2.13
7.89
12.31
15.13
16.51
17.04
17.44
18.30
19.69
21.19
22.08
21.80
20.31
18.16
16.19
15.14
15.36
16.55
18.01
18.86
18.45
16.49
13.13
8.80
4.04
-0.62
-4.74
-7.87
-9.64
-9.72
-8.05
-4.95
-1.14
2.27
4.15
3.69
0.80
-3.85
-8.96
-13.05
-14.99
-14.31
-11.44
-7.32
-3.16
-0.08
1.18
0.20
-2.95
-7.83
-13.60
-19.29
-24.03
-27.46
-29.83
-31.80
-34.03
-36.81
-39.95
-42.97
-45.51
-47.44
-48.98
-50.44
-51.87
-52.88
-52.90
-51.33
-47.86
-42.56
-35.76
-27.88
-19.32
-10.41
-1.50
6.94
14.33
20.01
23.52
24.83
24.37
22.91
21.27
19.94
18.97
18.06
16.78
14.67
11.26
5.94
-1.90
-12.67
-26.18
-41.21
-55.58
-66.82
-72.98
-73.34
-68.47
-59.69
-48.21
-34.45
-18.02
1.75
24.94
50.53
76.43
100.05
119.15
132.48
140.06
143.02
142.93
141.12
138.22
133.96
127.57
118.24
105.69
90.49
73.86
57.12
41.27
26.71
13.41
1.34
-9.30
-18.10
-24.80
-29.49
-32.76
-35.44
-38.30
-41.88
-46.39
-51.78
-57.71
-63.52
-68.22
-70.82
-70.71
-68.09
-63.96
-59.67
-56.28
-54.08
-52.71
-51.49
-49.97
-48.06
-45.85
-43.27
-39.93
-35.15
-28.25
-18.76
-6.62
7.94
24.44
42.10
59.79
76.17
89.95
100.29
107.03
110.60
111.66
110.65
107.64
102.40
94.67
84.42
72.00
58.15
43.80
29.91
17.27
6.42
-2.37
-9.12
-14.06
-17.60
-20.34
-22.94
-25.96
-29.63
-33.71
-37.49
-40.17
-41.27
-40.92
-39.82
-38.85
-38.59
-39.04
-39.75
-40.27
-40.56
-41.06
-42.52
-45.51
-50.19
-56.35
-63.80
-72.56
-83.02
-95.44
-109.47
-123.65
-135.50
-142.05
-140.86
-130.87
-112.89
-89.16
-62.51
-35.30
-8.78
17.11
43.12
69.87
97.09
123.34
146.43
164.13
175.02
178.81
176.26
168.73
157.58
143.88
128.43
111.93
95.24
79.38
65.24
53.41
43.92
36.23
29.52
22.96
15.97
8.30
0.09
-8.33
-16.60
-24.53
-32.15
-39.54
-46.76
-53.65
-59.88
-65.03
-68.82
-71.23
-72.52
-73.11
-73.32
-73.16
-72.33
-70.33
-66.74
-61.58
-55.49
-49.58
-45.06
-42.81
-43.08
-45.60
-49.80
-55.03
-60.51
-65.25
-67.90
-66.99
-61.44
-51.04
-36.71
-20.10
-2.95
13.56
29.01
43.39
56.60
68.16
77.27
83.25
85.96
85.87
83.78
80.48
76.54
72.15
67.30
61.88
55.66
48.40
39.95
30.54
20.92
12.39
6.40
4.01
5.38
9.58
14.86
19.23
21.14
19.85
15.52
8.91
1.04
-7.13
-14.81
-21.35
-26.28
-29.28
-30.28
-29.49
-27.32
-24.28
-20.78
-17.07
-13.22
-9.30
-5.44
-1.97
0.70
2.18
2.28
1.11
-0.98
-3.50
-6.01
-8.25
-10.15
-11.82
-13.38
-14.86
-16.19
-17.09
-17.31
-16.62
-14.98
-12.51
-9.53
-6.39
-3.42
-0.87
1.20
2.79
4.03
5.05
5.92
6.68
7.25
7.48
7.24
6.51
5.41
4.15
2.98
2.00
1.21
0.48
-0.32
-1.25
-2.29
-3.37
-4.39
-5.32
-6.15
-6.90
-7.52
-7.96
-8.17
-8.15
-8.00
-7.94
-8.14
-8.68
-9.40
-9.92
-9.73
-8.43
-5.90
-2.36
1.65
5.57
8.92
11.43
12.99
13.60
13.27
12.08
10.24
8.06
5.88
4.00
2.62
1.76
1.39
1.46
1.91
2.68
3.62
4.54
5.26
5.67
5.83
5.85
5.81
5.64
5.16
4.09
2.26
-0.29
-3.29
-6.32
-8.97
-10.99
-12.24
-12.74
-12.55
-11.70
-10.22
-8.28
-6.11
-3.96
-2.07
-0.52
0.73
1.74
2.51
2.93
2.76
1.80
0.01
-2.36
-4.84
-6.82
-7.81
-7.57
-6.28
-4.51
-2.99
-2.36
-2.92
-4.52
-6.65
-8.64
-9.97
-10.49
-10.44
-10.36
-10.85
-12.29
-14.78
-18.08
-21.75
-25.28
-28.19
-30.06
-30.61
-29.69
-27.33
-23.88
-19.87
-15.98
-12.84
-10.87
-10.19
-10.62
-11.85
-13.47
-15.14
-16.56
-17.55
-17.96
-17.77
-17.03
-15.88
-14.48
-12.97
-11.42
-9.81
-8.09
-6.17
-4.05
-1.83
0.35
2.29
3.86
5.02
5.84
6.38
6.73
6.94
7.02
6.99
6.97
7.11
7.56
8.39
9.47
10.52
11.10
10.80
9.31
6.65
3.13
-0.60
-3.83
-5.95
-6.65
-6.07
-4.62
-2.87
-1.34
-0.27
0.38
0.86
1.48
2.48
3.92
5.66
7.44
8.97
10.06
10.61
10.59
9.97
8.73
6.86
4.53
2.11
0.19
-0.57
0.29
2.85
6.76
11.29
15.60
18.97
20.94
21.40
20.48
18.42
15.49
11.94
7.98
3.76
-0.47
-4.46
-7.93
-10.69
-12.65
-13.94
-14.81
-15.53
-16.39
-17.45
-18.70
-19.95
-21.04
-21.84
-22.32
-22.60
-22.86
-23.35
-24.23
-25.56
-27.21
-28.86
-30.11
-30.51
-29.73
-27.60
-24.19
-19.78
-14.81
-9.81
-5.29
-1.67
0.81
2.14
2.56
2.46
2.44
3.12
4.98
8.26
12.80
18.10
23.47
28.21
31.90
34.39
35.82
36.36
36.13
35.06
32.96
29.68
25.19
19.62
13.25
6.39
-0.58
-7.26
-13.13
-17.64
-20.29
-20.76
-19.09
-15.70
-11.28
-6.63
-2.41
0.91
3.12
4.15
4.08
3.11
1.58
-0.02
-1.17
-1.36
-0.34
1.84
4.81
7.98
10.82
12.93
14.26
14.95
15.24
15.34
15.23
14.76
13.66
11.71
8.82
5.11
0.88
-3.49
-7.49
-10.62
-12.45
-12.71
-11.37
-8.66
-5.05
-1.16
2.37
4.99
6.37
6.44
5.35
3.47
1.18
-1.07
-2.95
-4.19
-4.70
-4.50
-3.79
-2.84
-1.96
-1.42
-1.32
-1.56
-1.90
-2.07
-1.85
-1.20
-0.30
0.54
0.89
0.47
-0.85
-2.87
-5.12
-6.93
-7.67
-6.90
-4.44
-0.53
4.37
9.61
14.52
18.43
20.83
21.44
20.25
17.65
14.27
10.89
8.19
6.59
6.11
6.44
7.12
7.69
7.86
7.52
6.75
5.66
4.40
3.06
1.70
0.32
-1.23
-3.15
-5.70
-8.97
-12.78
-16.64
-19.84
-21.72
-21.87
-20.35
-17.52
-14.00
-10.37
-7.09
-4.46
-2.61
-1.63
-1.48
-2.04
-3.09
-4.37
-5.59
-6.53
-7.04
-7.08
-6.69
-5.94
-4.89
-3.57
-1.89
0.25
2.90
5.97
9.12
11.84
13.53
13.75
12.37
9.67
6.28
2.99
0.50
-0.68
-0.40
1.25
3.98
7.39
11.06
14.50
17.24
18.79
18.80
17.15
14.04
9.91
5.43
1.23
-2.28
-4.94
-6.92
-8.54
-10.14
-11.90
-13.88
-15.99
-18.09
-20.07
-21.80
-23.25
-24.38
-25.26
-25.99
-26.67
-27.36
-27.94
-28.20
-27.77
-26.39
-23.88
-20.29
-15.81
-10.75
-5.46
-0.35
4.14
7.58
9.69
10.43
10.04
8.94
7.59
6.29
5.16
4.09
2.94
1.62
0.22
-1.05
-1.92
-2.21
-1.92
-1.28
-0.65
-0.43
-0.84
-1.90
-3.37
-4.89
-6.03
-6.41
-5.72
-3.79
-0.63
3.44
7.80
11.65
14.21
14.96
13.85
11.17
7.36
2.81
-2.23
-7.63
-13.09
-18.08
-21.83
-23.60
-22.95
-20.04
-15.63
-10.81
-6.61
-3.71
-2.23
-1.87
-2.20
-2.97
-4.22
-6.20
-9.16
-13.07
-17.53
-21.80
-25.09
-26.75
-26.52
-24.51
-21.16
-17.09
-12.91
-9.13
-6.12
-4.07
-3.06
-3.10
-4.11
-5.91
-8.22
-10.68
-12.84
-14.36
-15.05
-14.92
-14.18
-13.11
-12.02
-11.10
-10.42
-9.94
-9.57
-9.28
-9.15
-9.41
-10.28
-11.92
-14.25
-16.88
-19.13
-20.25
-19.65
-17.09
-12.84
-7.61
-2.37
1.95
4.71
5.70
5.11
3.38
1.03
-1.58
-4.21
-6.75
-9.14
-11.28
-13.08
-14.42
-15.24
-15.48
-15.12
-14.14
-12.47
-10.18
-7.58
-5.20
-3.82
-4.12
-6.26
-9.72
-13.27
-15.39
-14.87
-11.27
-5.04
2.69
10.68
17.93
23.90
28.41
31.36
32.59
31.98
29.61
25.94
21.77
18.03
15.42
14.15
13.95
14.21
14.27
13.65
12.20
10.06
7.50
4.82
2.19
-0.33
-2.87
-5.64
-8.88
-12.60
-16.54
-19.99
-22.05
-21.82
-18.75
-12.84
-4.67
4.78
14.38
23.09
30.08
34.87
37.26
37.37
35.58
32.39
28.40
24.11
19.87
15.93
12.41
9.40
6.90
4.83
3.04
1.31
-0.62
-2.95
-5.83
-9.33
-13.45
-18.10
-22.99
-27.58
-31.13
-32.76
-31.72
-27.64
-20.74
-11.87
-2.33
6.49
13.45
17.93
19.97
20.06
18.90
17.11
15.11
13.10
11.13
9.28
7.74
6.70
6.30
6.52
7.13
7.82
8.26
8.26
7.77
6.78
5.21
2.85
-0.56
-5.10
-10.48
-15.85
-20.02
-21.78
-20.28
-15.42
-7.89
1.07
10.05
17.80
23.52
26.92
28.06
27.27
25.01
21.85
18.39
15.26
13.00
11.91
12.03
13.11
14.68
16.22
17.28
17.60
17.14
16.00
14.27
11.97
8.93
4.92
-0.19
-6.20
-12.46
-17.86
-21.12
-21.12
-17.33
-9.99
-0.14
10.77
21.22
29.97
36.32
40.08
41.42
40.71
38.34
34.78
30.50
26.08
22.06
18.80
16.47
14.92
13.89
13.05
12.22
11.27
10.15
8.74
6.88
4.32
0.83
-3.71
-9.23
-15.36
-21.38
-26.28
-28.96
-28.47
-24.49
-17.54
-8.87
-0.08
7.41
12.81
16.02
17.42
17.51
16.59
14.79
12.17
8.98
5.71
2.94
1.07
0.23
0.19
0.57
1.04
1.46
1.86
2.28
2.68
2.87
2.55
1.40
-0.76
-3.94
-7.88
-12.11
-15.90
-18.40
-18.79
-16.52
-11.54
-4.35
4.10
12.70
20.49
26.89
31.67
34.83
36.41
36.36
34.64
31.41
27.09
22.40
18.11
14.82
12.73
11.64
11.07
10.54
9.72
8.54
7.13
5.61
4.03
2.31
0.22
-2.44
-5.82
-9.94
-14.62
-19.43
-23.69
-26.52
-27.06
-24.73
-19.46
-11.77
-2.69
6.54
14.75
21.07
25.05
26.62
26.01
23.70
20.31
16.56
13.19
10.77
9.64
9.76
10.73
11.88
12.53
12.15
10.62
8.23
5.55
3.22
1.65
0.97
0.91
0.96
0.49
-1.13
-4.35
-9.31
-15.59
-22.27
-27.94
-31.06
-30.44
-25.61
-17.11
-6.34
4.79
14.42
21.21
24.65
25.02
23.20
20.28
17.19
14.47
12.28
10.49
8.98
7.66
6.60
5.88
5.47
5.21
4.87
4.27
3.39
2.42
1.58
1.02
0.65
0.23
-0.60
-2.14
-4.58
-7.91
-11.90
-16.13
-19.93
-22.50
-23.06
-21.10
-16.57
-10.00
-2.34
5.34
12.11
17.39
20.99
22.93
23.36
22.42
20.27
17.21
13.64
10.07
6.99
4.71
3.32
2.66
2.43
2.28
1.91
1.18
0.11
-1.16
-2.42
-3.55
-4.52
-5.45
-6.54
-8.00
-9.94
-12.39
-15.26
-18.36
-21.39
-23.88
-25.19
-24.68
-21.90
-16.81
-9.93
-2.16
5.46
12.09
17.26
20.87
23.00
23.76
23.26
21.61
19.02
15.87
12.63
9.76
7.59
6.28
5.76
5.80
6.09
6.27
6.11
5.49
4.46
3.19
1.83
0.46
-0.95
-2.55
-4.47
-6.82
-9.64
-12.80
-16.03
-18.83
-20.59
-20.69
-18.73
-14.68
-8.89
-2.11
4.81
11.06
16.00
19.23
20.61
20.15
18.09
14.84
10.92
6.86
3.11
-0.06
-2.55
-4.31
-5.39
-5.83
-5.81
-5.60
-5.55
-5.95
-6.93
-8.36
-9.99
-11.53
-12.87
-14.12
-15.53
-17.33
-19.51
-21.77
-23.53
-24.11
-22.92
-19.72
-14.68
-8.33
-1.38
5.45
11.63
16.80
20.78
23.45
24.71
24.55
23.03
20.43
17.13
13.62
10.34
7.57
5.45
3.94
2.91
2.20
1.66
1.22
0.86
0.61
0.49
0.43
0.28
-0.14
-1.01
-2.41
-4.35
-6.68
-9.17
-11.58
-13.61
-15.00
-15.49
-14.89
-13.04
-9.92
-5.62
-0.47
5.02
10.22
14.49
17.32
18.47
17.94
15.96
12.96
9.41
5.81
2.64
0.24
-1.20
-1.76
-1.73
-1.53
-1.58
-2.10
-3.17
-4.63
-6.29
-8.01
-9.70
-11.35
-13.00
-14.73
-16.63
-18.77
-21.12
-23.45
-25.33
-26.22
-25.65
-23.39
-19.55
-14.61
-9.16
-3.80
0.99
4.90
7.73
9.30
9.51
8.38
6.14
3.19
0.11
-2.59
-4.52
-5.53
-5.72
-5.34
-4.69
-4.01
-3.45
-3.06
-2.85
-2.85
-3.11
-3.68
-4.63
-6.00
-7.84
-10.10
-12.65
-15.15
-17.07
-17.79
-16.82
-13.97
-9.46
-3.90
1.92
7.27
11.67
14.90
16.90
17.70
17.31
15.74
13.10
9.64
5.75
1.92
-1.38
-3.90
-5.57
-6.53
-7.00
-7.22
-7.32
-7.39
-7.52
-7.81
-8.43
-9.47
-10.92
-12.63
-14.35
-15.84
-16.93
-17.49
-17.38
-16.36
-14.18
-10.69
-5.96
-0.35
5.57
11.20
16.02
19.72
22.11
23.09
22.61
20.76
17.81
14.26
10.73
7.81
5.87
5.00
4.97
5.39
5.76
5.72
5.02
3.67
1.87
-0.11
-1.98
-3.59
-4.97
-6.26
-7.66
-9.24
-10.91
-12.38
-13.29
-13.22
-11.92
-9.31
-5.51
-0.88
4.12
8.94
13.11
16.32
18.47
19.62
19.95
19.66
18.90
17.76
16.27
14.48
12.48
10.50
8.77
7.53
6.88
6.74
6.89
7.01
6.87
6.32
5.33
3.92
2.08
-0.24
-3.10
-6.49
-10.18
-13.73
-16.57
-18.13
-18.01
-16.13
-12.69
-8.10
-2.75
3.03
9.01
14.97
20.61
25.52
29.24
31.45
32.07
31.22
29.18
26.23
22.60
18.45
13.97
9.37
5.01
1.24
-1.63
-3.46
-4.31
-4.44
-4.23
-4.06
-4.29
-5.15
-6.77
-9.13
-11.99
-14.95
-17.39
-18.63
-18.09
-15.50
-11.08
-5.46
0.45
5.71
9.64
11.90
12.48
11.63
9.74
7.25
4.55
1.94
-0.40
-2.46
-4.23
-5.80
-7.15
-8.27
-9.10
-9.65
-9.94
-10.10
-10.25
-10.53
-11.08
-12.02
-13.45
-15.51
-18.26
-21.66
-25.55
-29.63
-33.48
-36.59
-38.43
-38.51
-36.59
-32.66
-27.10
-20.61
-14.07
-8.30
-3.94
-1.27
-0.24
-0.60
-1.92
-3.79
-5.83
-7.67
-8.99
-9.61
-9.47
-8.65
-7.43
-6.10
-4.93
-4.08
-3.52
-3.15
-2.85
-2.63
-2.69
-3.35
-4.93
-7.55
-10.98
-14.61
-17.59
-19.07
-18.49
-15.72
-11.12
-5.38
0.71
6.38
11.09
14.47
16.36
16.73
15.69
13.47
10.47
7.14
3.94
1.20
-0.92
-2.45
-3.52
-4.27
-4.80
-5.13
-5.27
-5.29
-5.31
-5.54
-6.18
-7.39
-9.21
-11.64
-14.54
-17.69
-20.65
-22.84
-23.59
-22.33
-18.79
-13.15
-6.06
1.57
8.80
14.89
19.46
22.35
23.56
23.14
21.16
17.88
13.75
9.42
5.58
2.71
0.98
0.20
0.00
-0.00
-0.01
-0.09
-0.17
-0.21
-0.23
-0.35
-0.81
-1.87
-3.82
-6.81
-10.74
-15.17
-19.33
-22.26
-23.09
-21.32
-16.99
-10.68
-3.32
4.05
10.55
15.63
19.01
20.68
20.75
19.38
16.76
13.20
9.10
4.97
1.32
-1.44
-3.08
-3.55
-3.00
-1.68
0.06
1.86
3.34
4.20
4.21
3.28
1.41
-1.29
-4.72
-8.73
-13.13
-17.51
-21.27
-23.63
-23.85
-21.51
-16.69
-9.99
-2.32
5.28
12.03
17.39
21.12
23.09
23.20
21.49
18.16
13.69
8.82
4.39
1.08
-0.74
-1.17
-0.63
0.28
1.02
1.23
0.83
-0.10
-1.34
-2.74
-4.29
-6.16
-8.62
-11.96
-16.28
-21.27
-26.21
-30.05
-31.71
-30.39
-25.86
-18.56
-9.45
0.26
9.44
17.18
22.94
26.44
27.63
26.65
23.84
19.74
15.09
10.65
7.08
4.77
3.74
3.69
4.17
4.70
4.96
4.80
4.25
3.40
2.34
1.08
-0.49
-2.57
-5.39
-9.13
-13.72
-18.75
-23.36
-26.39
-26.71
-23.60
-17.08
-8.00
2.27
12.24
20.79
27.30
31.61
33.85
34.14
32.56
29.26
24.57
19.12
13.73
9.19
6.02
4.34
3.84
4.00
4.30
4.38
4.12
3.60
2.91
2.07
1.03
-0.41
-2.46
-5.35
-9.20
-13.94
-19.22
-24.29
-28.14
-29.70
-28.19
-23.41
-15.80
-6.41
3.44
12.54
19.99
25.31
28.41
29.39
28.49
26.01
22.36
18.01
13.55
9.53
6.39
4.36
3.40
3.27
3.57
3.86
3.78
3.18
2.10
0.78
-0.53
-1.73
-2.89
-4.27
-6.20
-8.91
-12.46
-16.63
-20.87
-24.35
-26.09
-25.21
-21.25
-14.42
-5.59
3.94
12.86
20.18
25.40
28.47
29.54
28.83
26.51
22.84
18.26
13.39
8.99
5.68
3.85
3.46
4.11
5.15
5.94
6.04
5.34
4.07
2.56
1.10
-0.23
-1.61
-3.31
-5.63
-8.67
-12.43
-16.75
-21.33
-25.70
-29.16
-30.80
-29.76
-25.55
-18.28
-8.77
1.64
11.51
19.68
25.49
28.81
29.85
28.99
26.63
23.17
19.02
14.67
10.64
7.39
5.22
4.21
4.12
4.54
4.95
4.91
4.23
2.93
1.20
-0.70
-2.64
-4.62
-6.80
-9.30
-12.19
-15.41
-18.81
-22.22
-25.39
-27.96
-29.43
-29.16
-26.57
-21.43
-13.97
-4.93
4.61
13.60
21.19
26.92
30.60
32.23
31.84
29.56
25.67
20.69
15.38
10.53
6.82
4.61
3.86
4.22
5.14
6.05
6.50
6.20
5.04
3.05
0.43
-2.53
-5.56
-8.37
-10.83
-13.01
-15.14
-17.57
-20.57
-24.18
-28.08
-31.57
-33.73
-33.69
-30.84
-25.18
-17.25
-8.08
1.07
9.08
15.17
19.05
20.83
20.90
19.67
17.53
14.74
11.56
8.29
5.27
2.87
1.40
0.94
1.36
2.31
3.32
3.95
3.94
3.21
1.89
0.22
-1.54
-3.24
-4.90
-6.69
-8.85
-11.63
-15.15
-19.23
-23.38
-26.76
-28.43
-27.56
-23.81
-17.43
-9.27
-0.49
7.73
14.51
19.38
22.22
23.15
22.35
20.04
16.56
12.32
7.88
3.78
0.54
-1.48
-2.18
-1.73
-0.48
1.10
2.60
3.77
4.48
4.72
4.50
3.74
2.30
0.11
-2.78
-6.22
-9.98
-13.89
-17.78
-21.43
-24.46
-26.25
-26.12
-23.62
-18.75
-12.06
-4.49
2.88
9.18
13.88
16.85
18.19
18.11
16.92
14.92
12.51
10.05
7.89
6.22
5.14
4.65
4.70
5.24
6.18
7.30
8.30
8.89
8.86
8.15
6.92
5.35
3.56
1.60
-0.62
-3.18
-6.09
-9.27
-12.50
-15.46
-17.72
-18.76
-18.04
-15.23
-10.31
-3.73
3.68
10.93
17.19
21.87
24.80
26.02
25.71
24.08
21.34
17.76
13.70
9.55
5.75
2.65
0.45
-0.85
-1.40
-1.47
-1.32
-1.14
-1.04
-1.02
-1.09
-1.28
-1.68
-2.38
-3.48
-5.01
-6.98
-9.33
-12.02
-14.90
-17.70
-19.92
-20.91
-20.03
-16.89
-11.49
-4.33
3.73
11.75
18.86
24.47
28.28
30.16
30.16
28.40
25.16
20.84
16.01
11.25
7.11
3.95
1.87
0.76
0.35
0.32
0.37
0.34
0.17
-0.09
-0.37
-0.64
-0.88
-1.18
-1.66
-2.48
-3.83
-5.89
-8.72
-12.14
-15.73
-18.82
-20.59
-20.38
-17.84
-13.13
-6.84
0.07
6.59
11.84
15.26
16.66
16.18
14.20
11.16
7.54
3.73
0.05
-3.21
-5.75
-7.35
-7.90
-7.45
-6.25
-4.66
-3.06
-1.74
-0.84
-0.34
-0.18
-0.27
-0.58
-1.11
-1.94
-3.14
-4.83
-7.08
-9.84
-12.82
-15.50
-17.16
-17.15
-15.07
-10.99
-5.44
0.72
6.60
11.52
15.10
17.25
18.02
17.47
15.65
12.69
8.82
4.48
0.22
-3.41
-6.02
-7.44
-7.81
-7.43
-6.70
-5.96
-5.40
-5.05
-4.83
-4.60
-4.36
-4.19
-4.27
-4.83
-6.03
-7.91
-10.36
-13.13
-15.82
-17.94
-18.98
-18.48
-16.20
-12.22
-6.92
-0.95
4.92
9.99
13.72
15.81
16.21
15.03
12.55
9.19
5.38
1.59
-1.79
-4.46
-6.25
-7.15
-7.25
-6.80
-6.06
-5.34
-4.82
-4.57
-4.57
-4.78
-5.25
-6.13
-7.65
-10.00
-13.19
-16.97
-20.89
-24.31
-26.61
-27.32
-26.14
-23.10
-18.53
-13.00
-7.24
-1.93
2.41
5.52
7.38
8.12
7.90
6.89
5.28
3.26
1.13
-0.84
-2.43
-3.63
-4.54
-5.35
-6.24
-7.22
-8.18
-8.89
-9.10
-8.67
-7.61
-6.15
-4.70
-3.79
-3.95
-5.54
-8.67
-13.05
-17.97
-22.42
-25.27
-25.54
-22.75
-17.06
-9.26
-0.58
7.69
14.45
19.04
21.24
21.13
19.03
15.39
10.79
5.92
1.52
-1.74
-3.43
-3.48
-2.20
-0.24
1.68
2.97
3.34
2.84
1.82
0.67
-0.33
-1.13
-1.96
-3.16
-5.08
-7.79
-11.02
-14.10
-16.10
-16.11
-13.54
-8.38
-1.23
6.84
14.63
21.15
25.82
28.46
29.20
28.31
26.01
22.60
18.39
13.85
9.47
5.70
2.79
0.72
-0.73
-1.91
-3.03
-4.10
-4.93
-5.33
-5.25
-4.88
-4.59
-4.81
-5.86
-7.86
-10.73
-14.22
-17.96
-21.51
-24.31
-25.73
-25.23
-22.47
-17.51
-10.87
-3.36
4.04
10.45
15.32
18.35
19.57
19.18
17.47
14.73
11.30
7.50
3.73
0.39
-2.21
-3.91
-4.76
-5.01
-5.02
-5.06
-5.21
-5.35
-5.27
-4.88
-4.28
-3.83
-3.97
-5.08
-7.33
-10.57
-14.37
-18.08
-20.95
-22.16
-21.05
-17.33
-11.17
-3.26
5.38
13.68
20.74
25.96
29.10
30.12
29.18
26.54
22.65
18.14
13.70
9.95
7.19
5.45
4.44
3.81
3.33
2.94
2.73
2.74
2.92
3.01
2.68
1.55
-0.59
-3.89
-8.32
-13.71
-19.67
-25.52
-30.35
-33.16
-33.21
-30.24
-24.65
-17.33
-9.40
-1.88
4.56
9.57
13.02
14.87
15.05
13.55
10.61
6.71
2.59
-1.04
-3.69
-5.29
-6.11
-6.57
-7.07
-7.76
-8.60
-9.48
-10.30
-11.12
-12.13
-13.59
-15.67
-18.45
-21.91
-25.82
-29.84
-33.42
-35.83
-36.26
-34.04
-28.89
-21.08
-11.50
-1.39
7.91
15.38
20.52
23.36
24.28
23.74
22.13
19.73
16.89
14.05
11.75
10.50
10.52
11.66
13.37
14.94
15.81
15.79
15.03
13.93
12.80
11.71
10.46
8.71
6.21
2.88
-1.17
-5.67
-10.29
-14.52
-17.71
-19.04
-17.76
-13.49
-6.46
2.43
11.87
20.52
27.47
32.36
35.30
36.60
36.47
34.99
32.19
28.26
23.70
19.23
15.61
13.36
12.56
12.84
13.59
14.21
14.26
13.59
12.27
10.49
8.39
6.05
3.39
0.31
-3.35
-7.64
-12.48
-17.61
-22.54
-26.51
-28.65
-28.18
-24.69
-18.33
-9.91
-0.70
7.89
14.73
19.29
21.61
22.17
21.50
19.95
17.60
14.45
10.60
6.44
2.61
-0.27
-1.79
-2.03
-1.44
-0.62
-0.03
0.17
0.13
0.10
0.20
0.30
0.11
-0.73
-2.44
-5.05
-8.42
-12.26
-16.25
-19.97
-22.90
-24.45
-24.01
-21.14
-15.76
-8.28
0.44
9.26
17.04
22.90
26.36
27.38
26.20
23.28
19.11
14.23
9.20
4.58
0.84
-1.71
-3.01
-3.27
-2.86
-2.17
-1.57
-1.27
-1.30
-1.59
-2.00
-2.42
-2.85
-3.43
-4.38
-5.99
-8.53
-12.08
-16.50
-21.24
-25.46
-28.10
-28.21
-25.27
-19.37
-11.26
-2.12
6.78
14.43
20.18
23.84
25.52
25.42
23.84
21.07
17.47
13.44
9.43
5.87
3.11
1.34
0.56
0.57
0.98
1.34
1.27
0.58
-0.67
-2.24
-3.85
-5.32
-6.69
-8.24
-10.32
-13.27
-17.22
-21.97
-27.01
-31.53
-34.59
-35.31
-33.13
-28.00
-20.38
-11.24
-1.76
6.94
13.98
18.93
21.70
22.46
21.47
19.04
15.48
11.19
6.63
2.32
-1.31
-3.99
-5.75
-6.80
-7.52
-8.31
-9.42
-10.92
-12.75
-14.75
-16.81
-18.89
-21.08
-23.59
-26.64
-30.46
-35.22
-41.00
-47.72
-55.08
-62.44
-68.88
-73.30
-74.75
-72.88
-67.92
-60.70
-52.28
-43.56
-35.03
-26.69
-18.21
-9.29
0.17
9.96
19.65
28.76
36.90
43.85
49.57
54.12
57.57
59.94
61.17
61.13
59.74
57.08
53.37
48.93
44.14
39.26
34.40
29.54
24.45
18.93
12.81
6.06
-1.23
-8.73
-15.76
-21.30
-24.21
-23.58
-19.06
-11.14
-1.06
9.54
19.13
26.62
31.57
34.06
34.41
32.99
30.09
25.99
21.03
15.74
10.70
6.51
3.57
1.96
1.48
1.70
2.17
2.54
2.67
2.60
2.40
2.09
1.58
0.67
-0.81
-3.03
-6.04
-9.84
-14.29
-19.12
-23.74
-27.30
-28.73
-27.13
-22.04
-13.67
-2.96
8.67
19.76
29.11
36.02
40.27
41.95
41.27
38.45
33.79
27.74
20.91
14.10
8.10
3.51
0.66
-0.54
-0.50
0.21
0.96
1.30
1.01
0.10
-1.24
-2.82
-4.50
-6.32
-8.45
-11.10
-14.47
-18.58
-23.20
-27.68
-31.12
-32.47
-30.89
-26.05
-18.30
-8.68
1.47
10.86
18.63
24.38
28.13
30.02
30.16
28.56
25.25
20.52
14.92
9.25
4.37
0.88
-1.02
-1.59
-1.37
-0.97
-0.80
-0.97
-1.36
-1.74
-2.01
-2.28
-2.87
-4.15
-6.44
-9.90
-14.50
-19.92
-25.55
-30.48
-33.63
-34.00
-30.93
-24.35
-14.87
-3.68
7.79
18.15
26.41
32.00
34.83
35.10
33.18
29.54
24.64
19.02
13.24
7.86
3.38
0.12
-1.86
-2.77
-3.00
-2.96
-2.94
-3.05
-3.25
-3.44
-3.61
-3.90
-4.61
-6.06
-8.56
-12.19
-16.75
-21.71
-26.22
-29.27
-29.90
-27.43
-21.74
-13.31
-3.12
7.56
17.52
25.79
31.79
35.23
36.11
34.57
30.90
25.59
19.30
12.80
6.86
2.14
-1.04
-2.72
-3.27
-3.28
-3.27
-3.51
-4.01
-4.56
-4.95
-5.18
-5.49
-6.32
-8.12
-11.19
-15.56
-20.91
-26.55
-31.46
-34.46
-34.45
-30.85
-23.80
-14.16
-3.31
7.28
16.47
23.58
28.38
30.89
31.19
29.39
25.71
20.55
14.60
8.71
3.70
0.06
-2.08
-3.04
-3.37
-3.55
-3.88
-4.33
-4.73
-4.89
-4.84
-4.82
-5.23
-6.50
-8.96
-12.78
-17.82
-23.59
-29.21
-33.49
-35.20
-33.46
-28.03
-19.48
-9.03
1.84
11.81
19.96
25.87
29.45
30.71
29.76
26.81
22.25
16.78
11.24
6.49
3.09
1.17
0.46
0.39
0.46
0.30
-0.13
-0.68
-1.16
-1.51
-1.90
-2.68
-4.29
-7.09
-11.21
-16.48
-22.29
-27.71
-31.58
-32.81
-30.66
-25.04
-16.53
-6.32
4.18
13.66
21.23
26.44
29.30
30.00
28.82
26.06
22.07
17.40
12.70
8.65
5.74
4.11
3.51
3.40
3.24
2.71
1.77
0.60
-0.56
-1.66
-2.80
-4.32
-6.56
-9.77
-14.02
-19.14
-24.66
-29.81
-33.55
-34.81
-32.79
-27.29
-18.87
-8.68
1.86
11.48
19.33
25.04
28.53
29.87
29.14
26.50
22.33
17.23
12.01
7.43
4.01
1.92
0.96
0.73
0.76
0.69
0.36
-0.24
-1.02
-1.89
-2.84
-3.96
-5.38
-7.27
-9.87
-13.36
-17.79
-22.88
-27.95
-31.87
-33.43
-31.65
-26.26
-17.85
-7.72
2.57
11.66
18.74
23.59
26.25
26.89
25.62
22.60
18.20
13.12
8.30
4.67
2.84
2.88
4.33
6.40
8.27
9.37
9.47
8.70
7.35
5.71
3.96
2.07
-0.08
-2.71
-5.97
-9.99
-14.74
-20.03
-25.32
-29.75
-32.27
-31.91
-28.17
-21.21
-11.91
-1.64
8.13
16.25
22.09
25.54
26.86
26.38
24.43
21.26
17.21
12.73
8.44
5.01
2.93
2.37
3.08
4.47
5.80
6.45
6.10
4.76
2.67
0.23
-2.24
-4.60
-6.89
-9.28
-12.03
-15.40
-19.53
-24.41
-29.74
-34.81
-38.64
-40.10
-38.26
-32.82
-24.20
-13.53
-2.32
7.97
16.26
22.02
25.18
26.02
24.97
22.50
19.15
15.40
11.71
8.43
5.84
4.08
3.14
2.88
3.01
3.17
3.02
2.35
1.15
-0.48
-2.42
-4.62
-7.15
-10.12
-13.55
-17.43
-21.62
-25.97
-30.32
-34.40
-37.72
-39.54
-39.03
-35.52
-28.86
-19.55
-8.72
2.20
11.83
19.28
24.20
26.76
27.49
26.96
25.69
24.02
22.19
20.37
18.73
17.42
16.60
16.31
16.50
17.02
17.63
18.07
18.11
17.57
16.31
14.30
11.61
8.42
4.96
1.51
-1.76
-4.78
-7.67
-10.66
-13.99
-17.69
-21.46
-24.53
-25.87
-24.47
-19.71
-11.74
-1.42
9.85
20.58
29.59
36.18
40.23
41.93
41.66
39.78
36.67
32.70
28.22
23.60
19.19
15.25
12.04
9.76
8.52
8.29
8.80
9.59
10.09
9.78
8.35
5.82
2.48
-1.25
-4.95
-8.39
-11.54
-14.54
-17.62
-21.04
-24.93
-29.23
-33.55
-37.15
-39.08
-38.44
-34.68
-27.85
-18.65
-8.29
1.93
10.86
17.81
22.53
25.12
25.81
24.89
22.66
19.40
15.46
11.31
7.45
4.39
2.51
1.95
2.52
3.81
5.27
6.47
7.13
7.24
6.87
6.14
5.02
3.43
1.23
-1.64
-5.16
-9.26
-13.87
-18.90
-24.10
-28.93
-32.50
-33.74
-31.79
-26.36
-18.01
-7.99
2.07
10.75
17.13
20.96
22.46
22.04
20.07
16.86
12.72
8.10
3.62
-0.02
-2.26
-2.86
-1.98
-0.09
2.19
4.33
5.97
6.95
7.21
6.74
5.51
3.51
0.76
-2.68
-6.72
-11.30
-16.38
-21.90
-27.67
-33.20
-37.70
-40.24
-39.94
-36.34
-29.60
-20.59
-10.62
-1.05
7.04
13.21
17.52
20.33
21.98
22.60
22.12
20.46
17.71
14.30
10.84
7.96
6.03
5.07
4.76
4.67
4.40
3.79
2.90
1.93
1.07
0.37
-0.28
-1.15
-2.52
-4.61
-7.57
-11.42
-16.02
-21.02
-25.76
-29.31
-30.63
-28.83
-23.58
-15.25
-4.91
5.93
15.79
23.53
28.56
30.85
30.77
28.87
25.71
21.73
17.32
12.80
8.52
4.85
2.14
0.65
0.35
1.00
2.11
3.17
3.73
3.59
2.74
1.29
-0.59
-2.81
-5.26
-7.91
-10.72
-13.69
-16.84
-20.08
-23.15
-25.54
-26.57
-25.51
-21.94
-15.89
-7.98
0.83
9.41
16.86
22.61
26.43
28.33
28.43
26.94
24.15
20.47
16.39
12.45
9.14
6.76
5.45
5.14
5.65
6.74
8.11
9.45
10.47
10.94
10.74
9.88
8.41
6.46
4.14
1.50
-1.43
-4.70
-8.29
-12.08
-15.72
-18.67
-20.23
-19.75
-16.83
-11.54
-4.43
3.58
11.46
18.30
23.49
26.77
28.12
27.76
25.93
22.95
19.16
14.93
10.64
6.68
3.36
0.89
-0.61
-1.20
-1.06
-0.47
0.20
0.63
0.57
-0.10
-1.36
-3.10
-5.22
-7.66
-10.42
-13.59
-17.22
-21.22
-25.30
-28.98
-31.63
-32.62
-31.50
-28.12
-22.68
-15.72
-8.03
-0.47
6.15
11.22
14.43
15.76
15.46
13.91
11.53
8.72
5.77
2.96
0.48
-1.47
-2.86
-3.74
-4.29
-4.74
-5.26
-5.88
-6.52
-7.07
-7.46
-7.79
-8.27
-9.19
-10.79
-13.23
-16.47
-20.32
-24.34
-27.90
-30.17
-30.37
-28.00
-23.07
-16.09
-8.04
0.03
7.20
12.91
16.99
19.49
20.57
20.43
19.26
17.31
14.87
12.34
10.10
8.48
7.64
7.57
8.02
8.70
9.31
9.66
9.75
9.63
9.36
8.94
8.33
7.46
6.27
4.72
2.78
0.41
-2.38
-5.42
-8.34
-10.64
-11.79
-11.45
-9.50
-6.14
-1.76
3.09
7.81
11.86
14.75
16.16
15.95
14.20
11.16
7.27
3.06
-0.92
-4.18
-6.38
-7.39
-7.32
-6.46
-5.19
-3.80
-2.48
-1.31
-0.38
0.15
0.04
-0.92
-2.83
-5.58
-8.93
-12.61
-16.35
-19.93
-23.05
-25.28
-26.11
-25.02
-21.78
-16.51
-9.83
-2.61
4.26
10.07
14.47
17.40
19.01
19.45
18.84
17.27
14.90
12.00
8.97
6.23
4.06
2.53
1.46
0.54
-0.49
-1.73
-3.09
-4.39
-5.46
-6.24
-6.83
-7.40
-8.15
-9.25
-10.83
-12.95
-15.56
-18.43
-21.12
-22.98
-23.34
-21.65
-17.74
-11.85
-4.69
2.80
9.66
15.15
18.82
20.54
20.40
18.63
15.53
11.47
6.92
2.39
-1.60
-4.64
-6.54
-7.34
-7.36
-7.00
-6.66
-6.58
-6.78
-7.19
-7.62
-8.03
-8.47
-9.14
-10.33
-12.22
-14.88
-18.08
-21.35
-24.00
-25.28
-24.54
-21.47
-16.25
-9.45
-1.99
5.23
11.45
16.20
19.28
20.67
20.40
18.60
15.47
11.36
6.79
2.37
-1.41
-4.24
-6.07
-7.05
-7.46
-7.53
-7.43
-7.23
-6.94
-6.60
-6.26
-6.02
-6.06
-6.59
-7.82
-9.93
-12.96
-16.67
-20.52
-23.71
-25.33
-24.69
-21.55
-16.16
-9.26
-1.80
5.29
11.30
15.79
18.58
19.60
18.88
16.57
12.97
8.55
3.93
-0.31
-3.71
-6.13
-7.65
-8.56
-9.14
-9.60
-9.97
-10.24
-10.40
-10.53
-10.79
-11.37
-12.48
-14.30
-17.00
-20.67
-25.18
-30.07
-34.46
-37.26
-37.42
-34.39
-28.26
-19.84
-10.35
-1.09
6.97
13.27
17.67
20.25
21.21
20.72
18.96
16.18
12.79
9.32
6.35
4.28
3.27
3.18
3.64
4.20
4.54
4.52
4.21
3.75
3.29
2.84
2.27
1.29
-0.47
-3.37
-7.53
-12.74
-18.35
-23.36
-26.58
-26.98
-24.04
-17.92
-9.46
0.09
9.38
17.38
23.52
27.62
29.74
29.97
28.40
25.14
20.52
15.12
9.75
5.24
2.16
0.63
0.38
0.83
1.43
1.77
1.69
1.27
0.64
-0.11
-1.00
-2.18
-3.90
-6.45
-10.07
-14.85
-20.55
-26.47
-31.51
-34.35
-33.91
-29.65
-21.87
-11.57
-0.25
10.61
19.83
26.72
31.02
32.74
32.09
29.37
25.01
19.62
13.93
8.68
4.51
1.81
0.60
0.57
1.19
1.89
2.23
2.08
1.52
0.73
-0.14
-1.18
-2.67
-5.00
-8.52
-13.41
-19.52
-26.38
-33.14
-38.65
-41.64
-41.02
-36.30
-27.77
-16.54
-4.27
7.34
17.03
24.22
28.91
31.45
32.13
31.11
28.41
24.20
18.92
13.38
8.49
4.95
3.07
2.65
3.14
3.96
4.66
5.08
5.18
4.96
4.33
3.14
1.25
-1.38
-4.73
-8.79
-13.51
-18.77
-24.18
-28.89
-31.70
-31.32
-26.87
-18.28
-6.46
6.93
20.00
31.14
39.37
44.36
46.20
45.29
42.06
37.04
30.87
24.30
18.14
13.12
9.67
7.90
7.52
8.02
8.74
9.14
8.87
7.87
6.35
4.61
2.93
1.38
-0.20
-2.21
-5.10
-9.22
-14.65
-21.04
-27.65
-33.36
-36.91
-37.18
-33.52
-25.99
-15.41
-3.20
9.04
19.86
28.30
33.95
36.81
37.07
35.01
30.94
25.28
18.71
12.06
6.26
2.06
-0.15
-0.44
0.72
2.58
4.41
5.66
6.09
5.76
4.87
3.63
2.12
0.27
-2.14
-5.36
-9.55
-14.73
-20.52
-26.17
-30.54
-32.31
-30.43
-24.46
-14.81
-2.73
10.03
21.79
31.24
37.70
41.09
41.63
39.71
35.71
30.07
23.38
16.42
10.05
5.06
1.93
0.59
0.56
1.10
1.52
1.46
0.93
0.20
-0.47
-1.01
-1.61
-2.64
-4.50
-7.50
-11.78
-17.22
-23.37
-29.31
-33.80
-35.47
-33.30
-26.98
-17.12
-5.13
7.23
18.36
27.16
33.15
36.39
37.14
35.78
32.66
28.22
22.96
17.52
12.55
8.60
5.99
4.71
4.46
4.71
4.93
4.74
4.06
3.03
1.91
0.88
-0.10
-1.27
-2.97
-5.54
-9.18
-13.91
-19.56
-25.70
-31.59
-36.14
-38.10
-36.35
-30.36
-20.50
-8.07
5.04
16.90
26.11
32.10
35.03
35.45
33.97
31.00
26.81
21.73
16.24
11.02
6.76
3.93
2.60
2.48
3.03
3.68
3.98
3.79
3.15
2.20
1.07
-0.23
-1.82
-3.88
-6.62
-10.13
-14.39
-19.23
-24.36
-29.29
-33.35
-35.65
-35.31
-31.64
-24.52
-14.55
-2.91
8.84
19.24
27.23
32.32
34.54
34.24
31.93
28.17
23.51
18.44
13.49
9.10
5.61
3.24
2.02
1.79
2.22
2.91
3.44
3.56
3.15
2.24
0.95
-0.66
-2.56
-4.75
-7.24
-10.06
-13.27
-16.94
-21.10
-25.53
-29.71
-32.78
-33.73
-31.75
-26.52
-18.39
-8.35
2.35
12.39
20.76
26.83
30.37
31.46
30.35
27.37
22.96
17.62
11.97
6.67
2.37
-0.49
-1.76
-1.61
-0.53
0.86
2.02
2.58
2.49
1.86
0.83
-0.46
-1.98
-3.80
-5.98
-8.56
-11.56
-14.91
-18.48
-22.04
-25.13
-27.13
-27.35
-25.26
-20.69
-14.04
-6.17
1.84
9.02
14.75
18.80
21.22
22.09
21.43
19.24
15.61
10.91
5.80
1.09
-2.53
-4.65
-5.28
-4.76
-3.57
-2.10
-0.61
0.81
2.13
3.25
3.96
4.00
3.07
0.99
-2.29
-6.68
-11.91
-17.50
-22.74
-26.72
-28.49
-27.36
-23.12
-16.25
-7.77
0.99
8.79
14.79
18.67
20.55
20.77
19.67
17.53
14.52
10.82
6.71
2.66
-0.82
-3.33
-4.71
-5.14
-5.02
-4.84
-4.92
-5.30
-5.77
-6.07
-6.07
-5.89
-5.88
-6.44
-7.87
-10.27
-13.59
-17.63
-22.08
-26.40
-29.81
-31.32
-30.07
-25.61
-18.19
-8.77
1.29
10.68
18.44
24.18
27.91
29.81
30.07
28.80
26.19
22.57
18.45
14.45
11.11
8.73
7.37
6.80
6.69
6.68
6.47
5.91
4.95
3.66
2.11
0.34
-1.68
-3.97
-6.58
-9.55
-12.86
-16.47
-20.21
-23.73
-26.54
-27.93
-27.25
-24.07
-18.40
-10.82
-2.34
5.86
12.76
17.74
20.60
21.44
20.52
18.08
14.38
9.76
4.75
-0.00
-3.84
-6.31
-7.31
-7.10
-6.22
-5.20
-4.44
-4.09
-4.09
-4.33
-4.70
-5.22
-5.98
-7.11
-8.64
-10.60
-12.94
-15.61
-18.51
-21.41
-23.86
-25.16
-24.54
-21.38
-15.52
-7.41
1.91
11.15
19.11
25.01
28.57
29.90
29.27
26.99
23.33
18.67
13.48
8.40
4.07
0.99
-0.70
-1.21
-0.98
-0.54
-0.26
-0.31
-0.62
-0.97
-1.15
-1.08
-0.87
-0.78
-1.23
-2.57
-5.06
-8.70
-13.15
-17.78
-21.67
-23.84
-23.53
-20.40
-14.71
-7.24
0.91
8.62
15.01
19.56
22.11
22.74
21.64
19.01
15.08
10.15
4.69
-0.76
-5.60
-9.33
-11.65
-12.55
-12.24
-11.06
-9.39
-7.54
-5.76
-4.27
-3.34
-3.27
-4.28
-6.47
-9.73
-13.78
-18.26
-22.77
-26.82
-29.87
-31.29
-30.48
-27.06
-21.06
-13.00
-3.81
5.41
13.63
20.12
24.47
26.52
26.29
23.94
19.82
14.44
8.51
2.83
-1.93
-5.36
-7.41
-8.32
-8.49
-8.30
-8.00
-7.72
-7.49
-7.38
-7.56
-8.22
-9.61
-11.89
-15.14
-19.33
-24.17
-29.14
-33.41
-36.02
-36.11
-33.18
-27.31
-19.16
-9.84
-0.53
7.71
14.16
18.41
20.29
19.83
17.20
12.82
7.34
1.61
-3.53
-7.40
-9.68
-10.45
-10.12
-9.23
-8.26
-7.57
-7.28
-7.42
-8.00
-9.04
-10.63
-12.90
-15.94
-19.86
-24.62
-29.97
-35.28
-39.52
-41.44
-39.95
-34.51
-25.42
-13.76
-1.08
11.08
21.57
29.75
35.32
38.15
38.24
35.73
31.11
25.26
19.34
14.43
11.24
9.97
10.27
11.50
13.03
14.41
15.48
16.28
16.93
17.45
17.66
17.25
15.80
12.94
8.48
2.54
-4.34
-11.16
-16.61
-19.37
-18.51
-13.80
-5.86
4.09
14.51
24.04
31.71
36.99
39.67
39.73
37.28
32.58
26.18
18.92
11.84
5.93
1.89
-0.09
-0.30
0.59
1.83
2.84
3.31
3.22
2.63
1.53
-0.22
-2.90
-6.82
-12.12
-18.69
-25.99
-33.11
-38.82
-41.86
-41.27
-36.66
-28.40
-17.55
-5.57
6.07
16.13
23.79
28.63
30.49
29.48
25.93
20.49
14.05
7.65
2.20
-1.68
-3.83
-4.58
-4.49
-4.20
-4.12
-4.41
-5.00
-5.72
-6.52
-7.55
-9.14
-11.67
-15.44
-20.39
-26.08
-31.52
-35.43
-36.49
-33.77
-27.09
-17.11
-5.25
6.72
17.19
25.06
29.90
31.82
31.26
28.75
24.78
19.84
14.50
9.36
5.05
2.00
0.28
-0.39
-0.52
-0.64
-1.03
-1.62
-2.11
-2.18
-1.76
-1.19
-1.10
-2.21
-5.06
-9.70
-15.60
-21.66
-26.47
-28.65
-27.31
-22.27
-14.22
-4.44
5.59
14.59
21.73
26.69
29.47
30.23
29.24
26.84
23.58
20.17
17.39
15.81
15.63
16.62
18.14
19.49
20.04
19.50
17.84
15.20
11.81
7.83
3.34
-1.67
-7.29
-13.61
-20.58
-27.90
-34.81
-40.16
-42.63
-41.17
-35.37
-25.72
-13.55
-0.57
11.61
21.89
29.82
35.44
38.96
40.55
40.27
38.20
34.59
30.05
25.40
21.51
18.93
17.75
17.54
17.53
16.96
15.33
12.55
8.94
4.94
1.00
-2.71
-6.23
-9.82
-13.77
-18.32
-23.59
-29.42
-35.34
-40.51
-43.82
-44.15
-40.75
-33.54
-23.22
-11.15
1.08
12.08
20.92
27.24
31.09
32.73
32.49
30.71
27.75
24.10
20.31
16.94
14.43
12.99
12.57
12.87
13.47
13.94
13.98
13.39
12.20
10.51
8.48
6.22
3.76
1.09
-1.86
-5.16
-8.84
-12.90
-17.27
-21.72
-25.86
-29.00
-30.31
-29.00
-24.63
-17.35
-7.96
2.28
11.97
20.02
25.76
29.10
30.27
29.69
27.82
25.07
21.82
18.44
15.28
12.65
10.77
9.74
9.55
10.01
10.86
11.76
12.39
12.55
12.13
11.11
9.51
7.32
4.53
1.14
-2.73
-6.87
-10.98
-14.89
-18.59
-22.23
-25.95
-29.59
-32.56
-33.87
-32.50
-27.84
-20.01
-9.95
0.95
11.26
19.95
26.56
31.07
33.71
34.70
34.26
32.62
30.12
27.24
24.47
22.19
20.58
19.59
19.01
18.61
18.22
17.82
17.45
17.12
16.75
16.15
15.09
13.43
11.16
8.45
5.51
2.51
-0.50
-3.62
-7.04
-10.94
-15.44
-20.46
-25.67
-30.41
-33.81
-34.93
-33.05
-27.95
-20.11
-10.57
-0.76
7.96
14.62
18.85
20.80
20.95
19.90
18.14
16.03
13.78
11.59
9.60
7.91
6.58
5.57
4.84
4.29
3.83
3.39
2.90
2.32
1.62
0.78
-0.22
-1.51
-3.19
-5.38
-8.10
-11.28
-14.74
-18.34
-22.02
-25.78
-29.61
-33.28
-36.26
-37.74
-36.87
-33.10
-26.46
-17.66
-7.91
1.41
9.20
14.87
18.40
20.10
20.45
19.82
18.53
16.83
15.00
13.37
12.18
11.51
11.28
11.27
11.28
11.16
10.83
10.19
9.08
7.35
4.88
1.76
-1.75
-5.28
-8.51
-11.26
-13.58
-15.61
-17.61
-19.82
-22.40
-25.40
-28.57
-31.37
-32.97
-32.54
-29.46
-23.63
-15.56
-6.27
3.03
11.27
17.76
22.20
24.65
25.29
24.38
22.20
19.06
15.41
11.70
8.42
5.94
4.42
3.82
3.90
4.41
5.05
5.59
5.80
5.47
4.40
2.44
-0.40
-3.99
-8.00
-12.07
-15.86
-19.19
-22.10
-24.76
-27.40
-30.00
-32.24
-33.49
-32.95
-30.01
-24.47
-16.76
-7.83
1.07
8.82
14.73
18.58
20.59
21.16
20.71
19.49
17.67
15.34
12.67
9.86
7.15
4.76
2.77
1.15
-0.24
-1.56
-2.89
-4.23
-5.48
-6.50
-7.22
-7.71
-8.18
-8.89
-10.02
-11.63
-13.69
-16.14
-18.99
-22.21
-25.66
-28.86
-30.98
-31.09
-28.49
-23.05
-15.37
-6.62
1.88
9.01
14.14
17.18
18.35
18.04
16.63
14.47
11.85
9.07
6.40
4.09
2.33
1.23
0.80
0.90
1.32
1.80
2.11
2.14
1.90
1.51
1.07
0.60
0.04
-0.73
-1.81
-3.24
-4.95
-6.93
-9.21
-11.80
-14.65
-17.43
-19.55
-20.22
-18.75
-14.84
-8.76
-1.36
6.20
12.77
17.55
20.26
21.06
20.36
18.65
16.34
13.70
10.95
8.28
5.84
3.74
2.08
0.87
0.08
-0.34
-0.51
-0.55
-0.61
-0.84
-1.30
-2.03
-3.00
-4.19
-5.63
-7.36
-9.41
-11.81
-14.58
-17.73
-21.23
-24.90
-28.34
-30.85
-31.63
-30.00
-25.68
-19.01
-10.83
-2.26
5.60
11.99
16.54
19.24
20.30
20.00
18.55
16.15
13.04
9.56
6.17
3.37
1.53
0.85
1.19
2.23
3.55
4.80
5.78
6.39
6.53
6.06
4.81
2.63
-0.47
-4.30
-8.55
-12.89
-17.11
-21.12
-24.91
-28.37
-31.18
-32.75
-32.41
-29.66
-24.40
-17.06
-8.51
0.14
7.89
14.05
18.37
20.94
22.07
22.12
21.41
20.15
18.52
16.66
14.75
12.99
11.61
10.75
10.43
10.50
10.62
10.45
9.71
8.34
6.49
4.44
2.47
0.68
-1.00
-2.72
-4.68
-6.93
-9.46
-12.19
-15.03
-17.89
-20.50
-22.40
-22.98
-21.71
-18.28
-12.92
-6.29
0.64
6.85
11.58
14.41
15.32
14.58
12.58
9.80
6.71
3.70
1.13
-0.72
-1.69
-1.74
-0.97
0.39
2.01
3.54
4.67
5.22
5.15
4.54
3.53
2.25
0.75
-1.00
-3.06
-5.54
-8.45
-11.74
-15.25
-18.66
-21.50
-23.18
-23.11
-20.93
-16.59
-10.50
-3.45
3.63
9.82
14.51
17.40
18.51
18.07
16.42
13.89
10.79
7.43
4.12
1.19
-1.06
-2.42
-2.85
-2.49
-1.66
-0.76
-0.16
-0.08
-0.58
-1.57
-2.87
-4.33
-5.87
-7.50
-9.32
-11.42
-13.90
-16.78
-19.94
-23.09
-25.74
-27.26
-26.98
-24.47
-19.64
-12.93
-5.17
2.57
9.31
14.35
17.40
18.53
18.01
16.22
13.48
10.12
6.46
2.84
-0.34
-2.75
-4.19
-4.66
-4.39
-3.71
-3.02
-2.63
-2.71
-3.23
-4.06
-5.02
-5.99
-7.02
-8.27
-9.96
-12.30
-15.33
-18.91
-22.70
-26.15
-28.62
-29.45
-28.05
-24.14
-17.85
-9.79
-0.97
7.45
14.45
19.40
22.10
22.73
21.62
19.18
15.74
11.67
7.38
3.39
0.16
-2.00
-3.02
-3.09
-2.60
-1.95
-1.49
-1.44
-1.84
-2.66
-3.76
-5.04
-6.45
-8.03
-9.94
-12.41
-15.70
-19.85
-24.63
-29.38
-33.13
-34.84
-33.74
-29.56
-22.66
-13.91
-4.42
4.71
12.60
18.73
22.85
24.92
25.06
23.48
20.48
16.44
11.85
7.25
3.24
0.30
-1.29
-1.56
-0.87
0.25
1.27
1.83
1.81
1.34
0.62
-0.20
-1.13
-2.36
-4.22
-7.04
-11.05
-16.23
-22.21
-28.24
-33.27
-36.08
-35.68
-31.60
-24.05
-13.97
-2.72
8.24
17.75
25.11
30.08
32.67
33.04
31.35
27.82
22.87
17.17
11.57
6.92
3.85
2.54
2.72
3.74
4.88
5.55
5.46
4.67
3.38
1.86
0.18
-1.77
-4.20
-7.35
-11.38
-16.29
-21.89
-27.80
-33.35
-37.60
-39.43
-37.77
-32.05
-22.45
-10.02
3.57
16.50
27.26
34.96
39.37
40.71
39.41
35.93
30.71
24.34
17.52
11.11
5.89
2.40
0.73
0.59
1.33
2.26
2.83
2.80
2.22
1.32
0.32
-0.72
-1.94
-3.63
-6.19
-9.92
-14.97
-21.19
-28.00
-34.42
-39.10
-40.67
-38.06
-30.97
-19.99
-6.56
7.42
20.15
30.25
37.07
40.56
41.08
39.12
35.20
29.81
23.50
16.98
10.99
6.27
3.29
2.16
2.53
3.75
5.05
5.85
5.92
5.37
4.50
3.59
2.67
1.53
-0.20
-2.92
-6.86
-12.05
-18.26
-24.95
-31.26
-36.00
-37.85
-35.74
-29.21
-18.73
-5.64
8.18
20.87
31.03
37.96
41.61
42.30
40.48
36.59
31.08
24.54
17.73
11.49
6.63
3.65
2.57
3.01
4.27
5.62
6.52
6.69
6.16
5.08
3.62
1.85
-0.25
-2.82
-6.08
-10.27
-15.55
-21.89
-28.86
-35.55
-40.61
-42.57
-40.24
-33.21
-22.03
-8.15
6.49
19.99
30.94
38.61
42.90
44.13
42.73
39.19
33.98
27.67
20.98
14.74
9.69
6.34
4.81
4.77
5.57
6.50
6.96
6.63
5.51
3.82
1.81
-0.31
-2.53
-4.99
-7.95
-11.64
-16.25
-21.79
-28.01
-34.26
-39.52
-42.49
-41.88
-36.88
-27.47
-14.59
0.07
14.48
26.82
35.90
41.29
43.24
42.36
39.33
34.79
29.27
23.30
17.45
12.38
8.64
6.55
6.05
6.62
7.57
8.17
7.96
6.79
4.82
2.34
-0.40
-3.31
-6.44
-9.94
-13.97
-18.62
-23.94
-29.86
-36.07
-41.94
-46.51
-48.52
-46.82
-40.69
-30.24
-16.53
-1.37
13.17
25.36
34.15
39.39
41.51
41.24
39.18
35.77
31.30
26.15
20.91
16.29
13.00
11.45
11.58
12.89
14.63
16.11
16.86
16.81
16.14
15.12
13.90
12.46
10.59
8.09
4.84
0.91
-3.52
-8.30
-13.32
-18.48
-23.45
-27.53
-29.68
-28.81
-24.22
-16.03
-5.26
6.41
17.20
25.74
31.35
34.11
34.49
33.07
30.27
26.40
21.74
16.69
11.83
7.73
4.79
3.11
2.43
2.31
2.32
2.14
1.66
0.87
-0.19
-1.48
-3.01
-4.85
-7.13
-9.99
-13.56
-17.88
-22.84
-28.11
-33.17
-37.31
-39.74
-39.65
-36.43
-29.88
-20.40
-8.98
2.95
13.89
22.66
28.64
31.80
32.50
31.32
28.78
25.33
21.32
17.09
13.06
9.61
7.07
5.59
5.09
5.27
5.69
5.93
5.72
5.02
3.93
2.66
1.35
0.02
-1.50
-3.47
-6.15
-9.72
-14.22
-19.45
-24.96
-30.02
-33.67
-34.88
-32.81
-27.17
-18.35
-7.44
4.03
14.58
23.02
28.72
31.58
31.84
29.96
26.48
22.04
17.29
12.86
9.21
6.54
4.85
3.92
3.51
3.42
3.53
3.74
3.95
4.01
3.79
3.17
2.11
0.60
-1.28
-3.49
-5.99
-8.81
-12.06
-15.86
-20.19
-24.77
-28.94
-31.74
-32.14
-29.40
-23.39
-14.71
-4.52
5.74
14.75
21.65
26.05
28.02
27.93
26.20
23.31
19.69
15.78
11.99
8.69
6.15
4.50
3.74
3.69
4.09
4.65
5.07
5.12
4.66
3.66
2.18
0.35
-1.73
-4.00
-6.47
-9.22
-12.34
-15.93
-19.98
-24.35
-28.68
-32.34
-34.49
-34.28
-31.13
-24.91
-16.15
-5.85
4.69
14.25
21.93
27.27
30.18
30.88
29.77
27.31
23.97
20.21
16.43
12.94
9.98
7.63
5.91
4.71
3.83
3.09
2.34
1.42
0.27
-1.20
-3.08
-5.41
-8.16
-11.25
-14.51
-17.75
-20.85
-23.78
-26.63
-29.54
-32.48
-35.24
-37.25
-37.79
-36.12
-31.85
-25.03
-16.25
-6.46
3.25
11.93
18.91
23.79
26.42
26.84
25.25
22.00
17.63
12.73
7.92
3.75
0.65
-1.12
-1.58
-1.01
0.05
0.98
1.27
0.67
-0.73
-2.54
-4.28
-5.52
-6.02
-5.82
-5.13
-4.36
-4.01
-4.47
-5.91
-8.06
-10.20
-11.31
-10.40
-6.90
-0.91
6.74
14.84
22.15
27.73
31.15
32.46
31.95
30.04
27.05
23.27
18.99
14.54
10.31
6.65
3.80
1.82
0.53
-0.35
-1.11
-1.97
-2.99
-4.08
-5.12
-6.03
-6.80
-7.55
-8.44
-9.57
-11.05
-12.93
-15.28
-18.15
-21.48
-25.01
-28.19
-30.23
-30.29
-27.76
-22.53
-15.08
-6.39
2.37
10.09
16.02
19.86
21.66
21.67
20.23
17.62
14.15
10.17
6.06
2.25
-0.90
-3.17
-4.50
-5.03
-5.01
-4.76
-4.54
-4.52
-4.74
-5.13
-5.61
-6.18
-6.96
-8.12
-9.87
-12.38
-15.68
-19.63
-23.85
-27.70
-30.37
-30.97
-28.81
-23.65
-15.88
-6.48
3.26
12.03
18.88
23.35
25.45
25.50
23.91
21.12
17.50
13.42
9.27
5.49
2.45
0.40
-0.60
-0.76
-0.40
0.07
0.34
0.24
-0.22
-0.91
-1.70
-2.49
-3.35
-4.45
-6.06
-8.42
-11.67
-15.77
-20.40
-25.01
-28.87
-31.17
-31.21
-28.59
-23.35
-15.96
-7.26
1.75
10.05
16.82
21.49
23.82
23.90
22.08
18.87
14.86
10.61
6.51
2.86
-0.19
-2.50
-3.95
-4.52
-4.27
-3.42
-2.30
-1.26
-0.54
-0.27
-0.47
-1.08
-2.10
-3.54
-5.53
-8.20
-11.69
-15.93
-20.63
-25.17
-28.70
-30.28
-29.21
-25.26
-18.73
-10.46
-1.47
7.16
14.64
20.45
24.33
26.22
26.19
24.42
21.27
17.23
12.88
8.76
5.31
2.77
1.20
0.47
0.34
0.50
0.65
0.56
0.16
-0.54
-1.44
-2.49
-3.70
-5.17
-7.10
-9.68
-13.05
-17.23
-22.02
-26.96
-31.24
-33.87
-33.94
-30.84
-24.61
-15.93
-5.96
3.95
12.62
19.31
23.74
25.97
26.26
24.88
22.09
18.17
13.48
8.54
3.98
0.42
-1.74
-2.45
-2.03
-1.03
-0.04
0.54
0.60
0.20
-0.52
-1.46
-2.63
-4.13
-6.16
-8.92
-12.57
-17.17
-22.49
-27.98
-32.72
-35.58
-35.58
-32.20
-25.61
-16.63
-6.53
3.43
12.21
19.18
24.11
26.96
27.82
26.78
24.06
20.04
15.27
10.44
6.24
3.18
1.49
1.09
1.65
2.68
3.71
4.37
4.42
3.82
2.67
1.13
-0.59
-2.37
-4.25
-6.46
-9.35
-13.22
-18.11
-23.62
-28.88
-32.68
-33.83
-31.51
-25.58
-16.70
-6.12
4.66
14.27
21.78
26.78
29.25
29.40
27.51
23.90
19.03
13.46
7.92
3.10
-0.42
-2.38
-2.88
-2.28
-1.13
0.04
0.86
1.15
0.96
0.46
-0.23
-1.11
-2.31
-4.03
-6.47
-9.76
-13.90
-18.71
-23.79
-28.41
-31.55
-32.13
-29.33
-22.93
-13.57
-2.55
8.53
18.26
25.83
31.05
34.15
35.41
34.99
32.88
29.12
24.00
18.14
12.35
7.47
4.04
2.20
1.70
2.05
2.66
3.07
2.99
2.35
1.28
-0.07
-1.60
-3.37
-5.57
-8.47
-12.31
-17.17
-22.95
-29.21
-35.23
-40.00
-42.34
-41.20
-36.06
-27.18
-15.62
-2.98
9.09
19.28
26.91
31.85
34.26
34.38
32.45
28.75
23.71
18.04
12.54
7.99
4.93
3.47
3.32
3.89
4.56
4.85
4.52
3.61
2.29
0.70
-1.12
-3.30
-6.05
-9.56
-13.95
-19.21
-25.17
-31.37
-36.98
-40.82
-41.63
-38.47
-31.14
-20.27
-7.28
6.09
18.21
27.98
34.91
38.98
40.44
39.63
36.89
32.64
27.42
21.89
16.74
12.60
9.84
8.46
8.10
8.25
8.37
8.13
7.48
6.54
5.47
4.30
2.89
0.94
-1.86
-5.75
-10.86
-17.06
-23.97
-30.80
-36.40
-39.44
-38.74
-33.67
-24.45
-12.19
1.41
14.51
25.58
33.67
38.51
40.34
39.68
37.10
33.16
28.37
23.24
18.29
14.07
11.00
9.26
8.73
8.99
9.50
9.76
9.51
8.75
7.72
6.68
5.81
5.07
4.25
3.05
1.13
-1.78
-5.84
-11.03
-17.07
-23.31
-28.79
-32.31
-32.76
-29.48
-22.46
-12.52
-1.01
10.44
20.40
27.86
32.40
34.10
33.39
30.86
27.16
22.92
18.66
14.85
11.80
9.75
8.76
8.74
9.42
10.42
11.26
11.59
11.19
10.10
8.48
6.56
4.49
2.28
-0.20
-3.10
-6.55
-10.58
-15.15
-20.06
-24.87
-28.92
-31.31
-31.17
-27.91
-21.52
-12.71
-2.76
6.90
14.97
20.74
24.01
25.03
24.22
22.02
18.80
14.94
10.87
7.07
3.99
1.91
0.82
0.42
0.24
-0.18
-1.14
-2.69
-4.67
-6.81
-8.84
-10.59
-12.04
-13.26
-14.42
-15.76
-17.54
-19.96
-23.05
-26.53
-29.75
-31.79
-31.68
-28.63
-22.39
-13.30
-2.22
9.59
20.77
30.12
36.80
40.38
40.89
38.68
34.33
28.52
21.95
15.29
9.21
4.33
1.10
-0.31
-0.09
1.19
2.85
4.26
5.14
5.49
5.60
5.76
6.08
6.39
6.30
5.42
3.43
0.24
-4.00
-8.93
-13.95
-18.25
-20.92
-21.14
-18.43
-12.84
-5.07
3.72
12.19
19.18
23.98
26.38
26.55
24.87
21.73
17.57
12.80
7.90
3.39
-0.24
-2.61
-3.54
-3.08
-1.52
0.69
3.06
5.13
6.62
7.41
7.56
7.17
6.28
4.88
2.91
0.29
-2.97
-6.77
-10.84
-14.72
-17.77
-19.28
-18.66
-15.63
-10.47
-3.96
2.79
8.74
13.19
15.90
17.00
16.81
15.52
13.25
10.11
6.30
2.22
-1.58
-4.60
-6.53
-7.39
-7.44
-7.11
-6.81
-6.81
-7.22
-7.97
-8.87
-9.69
-10.29
-10.66
-11.01
-11.71
-13.18
-15.62
-18.88
-22.34
-25.01
-25.84
-24.06
-19.46
-12.46
-4.09
4.46
12.11
18.17
22.37
24.80
25.59
24.86
22.65
19.06
14.43
9.36
4.56
0.69
-1.93
-3.35
-3.89
-3.97
-3.89
-3.75
-3.57
-3.38
-3.26
-3.41
-4.03
-5.23
-7.03
-9.40
-12.26
-15.51
-18.97
-22.31
-24.98
-26.28
-25.62
-22.68
-17.64
-11.09
-3.90
3.06
9.12
13.91
17.22
18.99
19.16
17.76
14.95
11.10
6.71
2.36
-1.50
-4.55
-6.71
-8.00
-8.56
-8.54
-8.13
-7.54
-6.95
-6.51
-6.34
-6.55
-7.26
-8.64
-10.86
-14.00
-17.82
-21.80
-25.07
-26.72
-26.03
-22.76
-17.27
-10.37
-3.09
3.66
9.25
13.42
16.14
17.52
17.62
16.54
14.40
11.45
8.08
4.76
1.89
-0.26
-1.65
-2.39
-2.70
-2.78
-2.80
-2.82
-2.92
-3.14
-3.57
-4.31
-5.50
-7.26
-9.69
-12.81
-16.51
-20.42
-23.88
-26.08
-26.21
-23.78
-18.84
-11.97
-4.15
3.53
10.21
15.38
18.85
20.63
20.76
19.35
16.58
12.83
8.69
4.80
1.74
-0.21
-1.10
-1.24
-1.04
-0.86
-0.92
-1.23
-1.69
-2.14
-2.51
-2.89
-3.52
-4.75
-6.86
-9.98
-13.93
-18.21
-22.04
-24.56
-24.99
-22.88
-18.22
-11.55
-3.80
3.92
10.62
15.64
18.79
20.23
20.30
19.32
17.50
15.01
12.05
8.96
6.18
4.11
2.97
2.66
2.85
3.12
3.13
2.77
2.09
1.26
0.42
-0.45
-1.48
-2.93
-5.06
-8.03
-11.85
-16.21
-20.53
-23.97
-25.62
-24.76
-21.17
-15.18
-7.63
0.36
7.73
13.74
18.06
20.64
21.66
21.27
19.67
17.02
13.59
9.82
6.23
3.35
1.53
0.85
1.02
1.58
2.00
1.94
1.33
0.41
-0.50
-1.18
-1.69
-2.32
-3.43
-5.31
-7.98
-11.30
-14.95
-18.51
-21.50
-23.30
-23.29
-21.03
-16.50
-10.22
-3.19
3.45
8.78
12.35
14.23
14.74
14.19
12.70
10.27
6.99
3.21
-0.52
-3.53
-5.43
-6.23
-6.34
-6.38
-6.82
-7.80
-9.15
-10.53
-11.65
-12.46
-13.14
-13.90
-14.92
-16.21
-17.70
-19.26
-20.74
-21.94
-22.56
-22.20
-20.45
-17.14
-12.41
-6.80
-1.00
4.38
9.00
12.81
15.93
18.38
19.98
20.49
19.78
18.05
15.85
13.94
12.98
13.31
14.83
17.10
19.57
21.72
23.21
23.84
23.63
22.66
21.09
19.09
16.81
14.32
11.66
8.77
5.62
2.15
-1.57
-5.38
-8.86
-11.47
-12.59
-11.67
-8.57
-3.54
2.67
9.05
14.61
18.63
20.76
21.08
19.86
17.51
14.43
10.93
7.35
4.00
1.23
-0.69
-1.63
-1.69
-1.18
-0.52
-0.14
-0.31
-1.07
-2.25
-3.60
-4.91
-6.11
-7.31
-8.74
-10.62
-13.10
-16.15
-19.58
-22.96
-25.74
-27.28
-27.01
-24.60
-20.12
-14.03
-7.10
-0.18
5.99
10.91
14.40
16.46
17.26
17.00
15.91
14.22
12.18
9.98
7.83
5.92
4.43
3.51
3.19
3.31
3.55
3.57
3.09
2.07
0.73
-0.64
-1.80
-2.70
-3.50
-4.44
-5.75
-7.53
-9.68
-11.96
-14.02
-15.45
-15.84
-14.85
-12.33
-8.38
-3.38
2.10
7.39
11.88
15.15
17.00
17.43
16.64
14.89
12.50
9.71
6.77
3.92
1.45
-0.38
-1.36
-1.46
-0.87
0.03
0.79
1.08
0.75
-0.12
-1.34
-2.74
-4.22
-5.83
-7.66
-9.82
-12.31
-15.09
-17.98
-20.67
-22.70
-23.50
-22.59
-19.73
-15.12
-9.37
-3.32
2.19
6.61
9.82
12.00
13.47
14.49
15.11
15.26
14.78
13.54
11.55
8.93
5.88
2.70
-0.30
-2.83
-4.66
-5.72
-6.03
-5.75
-5.15
-4.57
-4.36
-4.86
-6.31
-8.82
-12.27
-16.40
-20.82
-25.07
-28.64
-31.00
-31.66
-30.31
-26.97
-22.04
-16.34
-10.76
-6.08
-2.69
-0.57
0.58
1.14
1.34
1.29
1.02
0.58
0.14
-0.05
0.22
1.05
2.38
4.00
5.71
7.30
8.68
9.82
10.70
11.30
11.54
11.38
10.85
10.07
9.27
8.61
8.14
7.70
7.02
5.89
4.34
2.72
1.65
1.75
3.48
6.91
11.71
17.24
22.81
27.77
31.65
34.13
35.05
34.36
32.12
28.45
23.61
17.98
12.06
6.42
1.65
-1.79
-3.65
-3.95
-2.99
-1.21
0.87
2.77
4.15
4.78
4.56
3.48
1.58
-1.03
-4.23
-7.84
-11.71
-15.62
-19.28
-22.31
-24.19
-24.46
-22.79
-19.15
-13.89
-7.70
-1.43
4.13
8.49
11.47
13.22
13.94
13.80
12.86
11.10
8.63
5.69
2.77
0.38
-1.12
-1.58
-1.15
-0.17
0.98
2.00
2.69
2.97
2.85
2.36
1.58
0.51
-0.86
-2.63
-4.90
-7.74
-11.09
-14.76
-18.32
-21.23
-22.85
-22.68
-20.45
-16.30
-10.75
-4.62
1.23
6.07
9.52
11.49
12.15
11.77
10.58
8.79
6.57
4.13
1.70
-0.46
-2.12
-3.10
-3.37
-3.04
-2.37
-1.64
-1.11
-0.89
-0.95
-1.22
-1.63
-2.25
-3.24
-4.85
-7.26
-10.51
-14.37
-18.37
-21.81
-23.93
-24.05
-21.81
-17.29
-11.02
-3.90
3.07
9.02
13.46
16.20
17.38
17.24
16.00
13.86
11.03
7.80
4.55
1.72
-0.29
-1.23
-1.13
-0.20
1.13
2.42
3.30
3.56
3.21
2.38
1.27
0.02
-1.35
-2.91
-4.78
-7.04
-9.72
-12.74
-15.90
-18.87
-21.05
-21.76
-20.36
-16.54
-10.53
-3.11
4.61
11.53
16.84
20.19
21.63
21.43
19.89
17.30
13.97
10.22
6.49
3.16
0.57
-1.16
-2.10
-2.50
-2.66
-2.84
-3.20
-3.68
-4.14
-4.39
-4.35
-4.12
-3.98
-4.37
-5.63
-7.98
-11.31
-15.24
-19.11
-22.13
-23.49
-22.60
-19.26
-13.75
-6.82
0.54
7.34
12.83
16.65
18.80
19.47
18.89
17.24
14.68
11.43
7.83
4.31
1.31
-0.91
-2.29
-2.97
-3.24
-3.38
-3.55
-3.81
-4.13
-4.45
-4.75
-5.07
-5.50
-6.23
-7.48
-9.41
-12.09
-15.32
-18.64
-21.34
-22.64
-21.88
-18.75
-13.41
-6.49
1.12
8.41
14.56
19.03
21.62
22.44
21.76
19.88
17.11
13.76
10.15
6.63
3.58
1.23
-0.35
-1.26
-1.78
-2.18
-2.63
-3.17
-3.71
-4.21
-4.66
-5.19
-5.99
-7.25
-9.12
-11.68
-14.89
-18.59
-22.41
-25.77
-27.97
-28.25
-26.09
-21.38
-14.56
-6.50
1.70
9.04
14.81
18.72
20.77
21.09
19.86
17.30
13.74
9.66
5.68
2.34
-0.01
-1.32
-1.81
-1.84
-1.75
-1.72
-1.78
-1.84
-1.80
-1.69
-1.62
-1.83
-2.61
-4.20
-6.72
-10.10
-14.13
-18.38
-22.25
-24.97
-25.73
-23.89
-19.22
-12.09
-3.38
5.69
13.96
20.63
25.31
27.97
28.76
27.81
25.28
21.45
16.77
11.89
7.47
4.01
1.65
0.23
-0.58
-1.11
-1.57
-2.06
-2.62
-3.24
-3.95
-4.76
-5.72
-6.92
-8.57
-10.91
-14.11
-18.14
-22.55
-26.53
-29.05
-29.16
-26.34
-20.63
-12.66
-3.41
6.02
14.68
21.92
27.30
30.59
31.63
30.41
27.09
22.15
16.31
10.46
5.43
1.71
-0.55
-1.63
-1.96
-1.99
-2.02
-2.12
-2.22
-2.26
-2.28
-2.42
-2.94
-4.15
-6.34
-9.65
-13.98
-18.98
-23.92
-27.82
-29.66
-28.60
-24.31
-17.10
-7.85
2.21
11.80
19.91
25.89
29.51
30.81
30.01
27.42
23.41
18.43
13.03
7.87
3.50
0.37
-1.45
-2.17
-2.27
-2.26
-2.47
-2.97
-3.56
-3.99
-4.17
-4.20
-4.48
-5.52
-7.81
-11.52
-16.46
-21.95
-26.98
-30.39
-31.17
-28.72
-23.01
-14.55
-4.30
6.56
16.81
25.42
31.66
35.18
35.97
34.33
30.73
25.74
19.96
14.03
8.61
4.32
1.57
0.39
0.45
1.10
1.68
1.78
1.38
0.74
0.13
-0.35
-0.90
-1.99
-4.07
-7.41
-11.98
-17.40
-22.99
-27.85
-30.93
-31.27
-28.17
-21.56
-12.03
-0.81
10.63
20.88
28.93
34.30
36.91
36.98
34.81
30.82
25.49
19.46
13.44
8.13
4.10
1.61
0.57
0.56
1.03
1.45
1.51
1.19
0.64
0.04
-0.61
-1.47
-2.85
-5.07
-8.33
-12.70
-17.98
-23.75
-29.20
-33.28
-34.75
-32.65
-26.62
-17.17
-5.58
6.43
17.27
25.91
31.93
35.39
36.49
35.40
32.21
27.17
20.82
14.05
7.93
3.33
0.67
-0.18
0.24
1.21
2.17
2.79
3.02
2.93
2.63
2.11
1.19
-0.37
-2.85
-6.43
-11.15
-16.83
-22.99
-28.82
-33.29
-35.27
-33.84
-28.61
-19.87
-8.67
3.49
15.03
24.64
31.60
35.65
36.97
35.88
32.76
28.06
22.33
16.25
10.61
6.14
3.28
2.06
2.09
2.75
3.39
3.62
3.35
2.78
2.15
1.57
0.95
-0.01
-1.65
-4.27
-8.00
-12.80
-18.45
-24.44
-29.95
-33.92
-35.16
-32.79
-26.56
-17.02
-5.48
6.42
17.12
25.55
31.25
34.22
34.74
33.14
29.75
24.99
19.40
13.71
8.63
4.80
2.51
1.71
2.02
2.87
3.73
4.19
4.15
3.65
2.90
2.02
0.99
-0.30
-2.12
-4.72
-8.32
-12.98
-18.58
-24.62
-30.27
-34.37
-35.72
-33.41
-27.21
-17.69
-6.15
5.75
16.42
24.74
30.17
32.75
32.85
30.97
27.64
23.39
18.72
14.15
10.15
7.06
4.98
3.78
3.13
2.67
2.12
1.38
0.50
-0.41
-1.30
-2.25
-3.43
-5.01
-7.08
-9.63
-12.59
-15.89
-19.50
-23.32
-26.99
-29.86
-31.03
-29.60
-25.03
-17.45
-7.69
2.96
13.11
21.63
27.92
31.86
33.68
33.75
32.40
29.95
26.65
22.78
18.72
14.89
11.72
9.53
8.42
8.25
8.65
9.19
9.49
9.37
8.85
8.06
7.14
6.14
4.95
3.42
1.35
-1.45
-5.12
-9.70
-15.01
-20.53
-25.40
-28.49
-28.75
-25.57
-19.04
-10.05
0.02
9.65
17.66
23.37
26.61
27.58
26.63
24.16
20.54
16.22
11.62
7.19
3.31
0.22
-1.95
-3.26
-3.91
-4.18
-4.45
-5.03
-6.14
-7.80
-9.86
-12.00
-13.94
-15.51
-16.73
-17.84
-19.13
-20.86
-23.12
-25.74
-28.29
-30.14
-30.57
-28.92
-24.82
-18.35
-10.09
-1.07
7.54
14.73
19.84
22.71
23.55
22.77
20.82
18.10
14.96
11.76
8.79
6.32
4.50
3.36
2.85
2.82
3.13
3.64
4.18
4.60
4.76
4.55
3.86
2.67
0.98
-1.17
-3.70
-6.60
-9.86
-13.49
-17.32
-20.92
-23.57
-24.37
-22.54
-17.80
-10.53
-1.77
7.11
14.82
20.53
23.99
25.35
25.00
23.37
20.79
17.61
14.17
10.87
8.05
5.94
4.58
3.90
3.78
4.07
4.63
5.31
5.96
6.39
6.46
6.09
5.28
4.06
2.50
0.63
-1.56
-4.14
-7.24
-10.95
-15.25
-19.88
-24.23
-27.44
-28.59
-26.95
-22.24
-14.76
-5.32
4.94
14.80
23.21
29.40
33.02
33.99
32.52
28.96
23.87
17.87
11.70
6.09
1.64
-1.28
-2.60
-2.57
-1.61
-0.26
1.00
1.80
1.92
1.27
-0.08
-1.92
-4.00
-6.12
-8.23
-10.45
-12.96
-15.89
-19.20
-22.63
-25.68
-27.72
-28.15
-26.52
-22.64
-16.69
-9.21
-1.05
6.84
13.57
18.55
21.52
22.60
22.08
20.36
17.78
14.63
11.18
7.71
4.55
2.05
0.53
0.15
0.86
2.36
4.26
6.12
7.61
8.51
8.77
8.39
7.46
6.05
4.24
2.06
-0.50
-3.46
-6.83
-10.49
-14.13
-17.19
-18.99
-18.93
-16.72
-12.48
-6.76
-0.34
5.93
11.35
15.50
18.19
19.43
19.35
18.13
16.02
13.31
10.36
7.49
4.96
2.91
1.35
0.25
-0.50
-0.96
-1.14
-1.11
-0.94
-0.80
-0.86
-1.23
-1.93
-2.89
-4.03
-5.39
-7.12
-9.43
-12.44
-16.02
-19.72
-22.86
-24.66
-24.47
-21.98
-17.31
-10.97
-3.77
3.42
9.78
14.70
17.84
19.17
18.85
17.20
14.57
11.35
7.83
4.32
1.10
-1.57
-3.48
-4.51
-4.75
-4.41
-3.80
-3.20
-2.82
-2.70
-2.84
-3.25
-3.96
-5.06
-6.60
-8.55
-10.86
-13.43
-16.21
-19.09
-21.88
-24.14
-25.23
-24.49
-21.52
-16.35
-9.53
-1.98
5.33
11.60
16.36
19.49
21.05
21.23
20.19
18.13
15.23
11.75
8.03
4.46
1.44
-0.75
-1.96
-2.31
-2.10
-1.70
-1.45
-1.56
-2.03
-2.75
-3.61
-4.53
-5.53
-6.71
-8.18
-10.04
-12.31
-14.97
-17.86
-20.69
-22.99
-24.13
-23.53
-20.74
-15.74
-8.97
-1.28
6.28
12.75
17.52
20.36
21.40
20.93
19.23
16.55
13.10
9.14
5.07
1.36
-1.60
-3.59
-4.62
-4.89
-4.72
-4.37
-4.02
-3.72
-3.47
-3.28
-3.23
-3.42
-3.98
-5.01
-6.58
-8.76
-11.53
-14.78
-18.25
-21.47
-23.83
-24.68
-23.49
-20.06
-14.59
-7.70
-0.26
6.76
12.55
16.58
18.68
19.01
17.93
15.89
13.28
10.38
7.37
4.42
1.70
-0.57
-2.20
-3.08
-3.27
-2.99
-2.56
-2.27
-2.28
-2.63
-3.27
-4.09
-5.05
-6.17
-7.55
-9.35
-11.73
-14.76
-18.30
-21.92
-24.93
-26.54
-26.07
-23.17
-17.97
-11.05
-3.30
4.32
11.01
16.21
19.66
21.30
21.28
19.84
17.26
13.86
9.99
6.01
2.28
-0.83
-3.06
-4.28
-4.58
-4.20
-3.50
-2.85
-2.48
-2.52
-2.93
-3.60
-4.46
-5.51
-6.86
-8.68
-11.14
-14.29
-18.00
-21.88
-25.31
-27.54
-27.86
-25.79
-21.29
-14.75
-6.98
1.07
8.49
14.61
19.07
21.71
22.58
21.81
19.63
16.38
12.50
8.52
4.89
2.01
0.05
-0.97
-1.26
-1.08
-0.80
-0.69
-0.94
-1.58
-2.51
-3.58
-4.70
-5.89
-7.28
-9.12
-11.63
-14.90
-18.85
-23.15
-27.25
-30.40
-31.82
-30.85
-27.09
-20.69
-12.28
-2.91
6.23
14.08
19.99
23.72
25.40
25.33
23.83
21.14
17.50
13.23
8.77
4.72
1.60
-0.24
-0.80
-0.43
0.32
0.88
0.95
0.48
-0.31
-1.17
-1.96
-2.79
-3.93
-5.67
-8.25
-11.72
-16.01
-20.83
-25.74
-30.04
-32.84
-33.20
-30.43
-24.39
-15.63
-5.32
5.11
14.34
21.50
26.26
28.71
29.18
28.04
25.56
21.99
17.65
12.98
8.56
4.97
2.63
1.68
1.90
2.83
3.90
4.61
4.66
4.04
2.88
1.38
-0.32
-2.21
-4.41
-7.10
-10.45
-14.55
-19.31
-24.38
-29.18
-32.82
-34.36
-33.00
-28.37
-20.70
-10.84
-0.04
10.38
19.32
26.08
30.39
32.33
32.16
30.25
27.04
22.97
18.54
14.20
10.39
7.45
5.55
4.71
4.68
5.12
5.61
5.86
5.71
5.18
4.31
3.12
1.55
-0.51
-3.14
-6.36
-10.17
-14.55
-19.47
-24.66
-29.56
-33.25
-34.58
-32.60
-26.91
-17.93
-6.83
4.78
15.43
24.03
30.13
33.75
35.16
34.67
32.54
29.06
24.60
19.72
15.05
11.21
8.61
7.33
7.17
7.67
8.29
8.61
8.37
7.55
6.30
4.82
3.25
1.60
-0.21
-2.38
-5.10
-8.56
-12.85
-17.88
-23.28
-28.37
-32.16
-33.62
-31.90
-26.67
-18.25
-7.60
3.95
14.97
24.25
30.98
34.80
35.80
34.43
31.37
27.44
23.37
19.65
16.54
14.08
12.21
10.88
10.10
9.83
9.93
10.12
10.06
9.53
8.49
7.12
5.64
4.23
2.86
1.37
-0.49
-2.94
-6.17
-10.28
-15.30
-21.06
-27.04
-32.26
-35.47
-35.38
-31.19
-22.94
-11.60
1.16
13.45
23.64
30.74
34.46
35.09
33.30
29.83
25.44
20.73
16.24
12.35
9.38
7.43
6.50
6.40
6.84
7.51
8.08
8.32
8.08
7.32
6.07
4.43
2.51
0.37
-1.98
-4.54
-7.36
-10.50
-14.06
-18.10
-22.60
-27.23
-31.31
-33.79
-33.55
-29.83
-22.52
-12.43
-0.96
10.20
19.69
26.67
30.95
32.73
32.42
30.43
27.17
23.07
18.62
14.37
10.76
8.13
6.57
5.97
6.09
6.63
7.32
7.95
8.34
8.32
7.78
6.58
4.72
2.28
-0.50
-3.39
-6.22
-8.97
-11.80
-14.99
-18.70
-22.87
-27.08
-30.53
-32.28
-31.47
-27.62
-20.86
-11.88
-1.80
8.08
16.62
23.04
26.98
28.52
28.06
26.14
23.32
20.15
16.99
14.07
11.46
9.20
7.32
5.87
4.95
4.62
4.86
5.55
6.47
7.30
7.71
7.41
6.23
4.16
1.36
-1.85
-5.12
-8.15
-10.84
-13.32
-15.92
-18.94
-22.47
-26.19
-29.34
-30.95
-30.09
-26.26
-19.62
-10.92
-1.32
7.95
15.92
22.01
26.00
27.97
28.14
26.79
24.28
21.01
17.42
13.95
10.89
8.40
6.54
5.26
4.49
4.22
4.38
4.86
5.47
5.93
5.95
5.32
3.98
1.99
-0.44
-3.08
-5.75
-8.33
-10.83
-13.38
-16.14
-19.23
-22.59
-25.83
-28.30
-29.19
-27.73
-23.54
-16.77
-8.15
1.19
10.00
17.22
22.15
24.63
24.86
23.35
20.66
17.33
13.72
10.06
6.49
3.16
0.32
-1.78
-2.92
-3.07
-2.38
-1.20
0.05
1.03
1.50
1.43
0.86
-0.06
-1.17
-2.34
-3.56
-4.92
-6.63
-8.95
-12.02
-15.77
-19.82
-23.54
-26.13
-26.83
-25.12
-20.89
-14.50
-6.75
1.36
8.80
14.76
18.81
20.89
21.27
20.34
18.54
16.17
13.44
10.46
7.37
4.32
1.59
-0.54
-1.87
-2.39
-2.26
-1.79
-1.29
-1.03
-1.15
-1.68
-2.64
-4.01
-5.73
-7.72
-9.88
-12.11
-14.41
-16.84
-19.44
-22.13
-24.57
-26.22
-26.40
-24.55
-20.38
-14.13
-6.45
1.69
9.22
15.32
19.51
21.74
22.27
21.47
19.68
17.10
13.87
10.15
6.24
2.55
-0.47
-2.47
-3.34
-3.20
-2.38
-1.26
-0.23
0.45
0.65
0.35
-0.37
-1.40
-2.68
-4.21
-6.08
-8.42
-11.30
-14.67
-18.35
-21.97
-25.04
-26.97
-27.15
-25.13
-20.76
-14.28
-6.40
1.86
9.41
15.41
19.41
21.40
21.72
20.78
19.00
16.67
13.99
11.13
8.27
5.61
3.33
1.53
0.27
-0.49
-0.79
-0.72
-0.43
-0.08
0.15
0.14
-0.16
-0.75
-1.59
-2.69
-4.10
-5.92
-8.29
-11.29
-14.85
-18.70
-22.36
-25.16
-26.40
-25.46
-22.06
-16.39
-9.04
-0.96
6.85
13.50
18.42
21.41
22.54
22.03
20.19
17.30
13.64
9.60
5.60
2.07
-0.59
-2.23
-2.89
-2.83
-2.39
-1.90
-1.59
-1.57
-1.90
-2.57
-3.55
-4.81
-6.31
-8.02
-10.01
-12.36
-15.18
-18.50
-22.17
-25.84
-28.92
-30.70
-30.51
-27.90
-22.84
-15.74
-7.42
1.07
8.75
14.84
18.97
21.12
21.52
20.51
18.41
15.52
12.12
8.48
5.00
2.06
0.01
-0.97
-0.92
-0.11
1.05
2.16
2.95
3.32
3.31
2.99
2.40
1.56
0.40
-1.14
-3.12
-5.55
-8.43
-11.66
-15.06
-18.28
-20.85
-22.19
-21.75
-19.17
-14.46
-8.05
-0.69
6.67
13.16
18.17
21.45
22.99
22.98
21.58
18.98
15.41
11.21
6.86
2.92
-0.10
-1.88
-2.41
-1.91
-0.78
0.56
1.73
2.50
2.77
2.52
1.79
0.64
-0.87
-2.67
-4.74
-7.11
-9.87
-13.14
-16.90
-20.93
-24.66
-27.26
-27.87
-25.86
-21.12
-14.15
-5.96
2.28
9.47
14.96
18.48
20.16
20.36
19.49
17.95
16.05
14.01
11.96
9.98
8.17
6.64
5.50
4.85
4.66
4.77
4.94
4.93
4.60
3.97
3.12
2.15
1.04
-0.30
-2.04
-4.29
-7.06
-10.32
