1564589438.00
64.000000
-0.00
-0.00
-0.00
-0.00
-0.00
-0.00
-0.00
-0.00
-0.00
-0.00
0.00
0.01
0.01
-0.00
-0.03
-0.05
-0.05
0.00
0.13
0.36
0.66
1.01
1.37
1.72
2.06
2.40
2.79
3.24
3.80
4.43
5.08
5.70
6.27
6.80
7.35
8.01
8.81
9.87
11.10
12.39
13.62
14.75
15.82
16.99
18.47
20.42
23.04
26.16
29.50
32.77
35.80
38.69
41.75
45.43
50.04
55.99
62.92
70.32
77.62
84.47
90.98
97.65
105.21
114.22
125.22
137.72
150.93
163.98
176.33
188.05
199.80
212.95
226.25
241.98
260.75
282.65
306.49
329.37
347.01
354.78
349.38
329.95
298.90
260.04
217.66
174.94
133.43
93.42
54.80
17.86
-16.61
-47.34
-73.81
-96.18
-115.05
-130.95
-144.01
-154.01
-160.45
-163.15
-162.26
-158.78
-154.06
-149.43
-145.82
-143.20
-141.08
-138.74
-135.65
-131.64
-127.14
-122.86
-119.45
-117.18
-115.84
-114.87
-113.62
-111.73
-109.28
-106.88
-105.33
-105.21
-106.62
-109.03
-111.61
-113.59
-114.69
-115.35
-116.56
-119.41
-124.54
-131.78
-140.18
-148.51
-155.77
-161.81
-167.34
-173.57
-181.70
-192.45
-205.95
-221.97
-239.88
-258.52
-275.78
-288.59
-293.48
-288.00
-271.82
-247.38
-219.14
-191.85
-168.52
-149.53
-133.04
-116.60
-99.01
-80.97
-64.66
-52.07
-43.53
-37.28
-30.51
-20.98
-8.53
4.59
15.05
20.23
19.98
16.85
14.80
17.08
24.41
34.51
43.24
46.94
44.46
37.93
31.68
29.81
34.07
42.77
51.77
56.80
55.91
50.34
43.78
40.05
40.79
44.72
48.47
48.68
44.13
36.43
28.91
24.73
25.00
28.19
31.03
30.42
25.24
16.97
8.90
4.32
4.61
8.63
13.21
14.97
12.20
5.81
-1.35
-6.11
-6.84
-4.43
-1.69
-1.69
-5.93
-13.38
-21.05
-25.71
-25.76
-22.09
-17.62
-15.52
-17.44
-22.52
-27.87
-30.25
-27.90
-21.59
-14.07
-8.55
-6.78
-8.10
-9.93
-9.39
-5.30
1.14
6.79
8.53
5.20
-1.60
-8.30
-11.26
-8.79
-2.14
5.32
9.97
9.89
5.88
0.94
-1.54
0.38
6.15
12.90
17.26
17.15
13.06
7.82
5.08
7.19
13.84
22.25
28.70
30.68
28.31
24.27
22.14
24.37
30.95
39.39
46.30
49.29
48.38
45.88
45.08
48.17
54.91
62.65
67.86
68.26
64.19
58.53
54.96
55.87
60.91
67.12
70.82
69.66
64.00
56.71
51.47
50.61
53.80
58.33
60.63
58.46
51.99
43.80
37.24
34.60
35.82
38.58
39.72
37.12
31.09
24.04
19.16
18.48
21.56
25.71
27.60
25.15
18.69
10.94
5.17
3.52
5.79
9.67
12.13
11.35
7.63
3.19
0.72
1.74
5.64
9.95
11.79
9.57
3.82
-2.88
-7.34
-7.52
-3.53
2.36
6.87
7.59
4.28
-1.07
-5.38
-6.17
-3.09
1.86
5.56
5.54
1.42
-4.60
-9.14
-9.54
-5.40
1.11
6.48
8.00
5.26
0.39
-3.23
-3.07
1.06
6.92
11.11
11.08
6.61
-0.04
-5.41
-6.79
-3.69
1.81
6.25
6.81
2.90
-3.42
-8.61
-9.61
-5.70
1.05
6.99
8.92
5.96
0.07
-5.20
-6.91
-4.34
0.53
4.40
4.73
1.27
-3.80
-7.18
-6.44
-1.49
5.38
10.84
12.22
9.07
3.19
-2.37
-4.95
-3.72
-0.07
3.28
3.91
0.98
-4.05
-8.28
-9.09
-5.78
0.01
5.01
6.29
3.03
-3.00
-8.40
-10.13
-7.30
-1.68
3.51
5.42
3.35
-0.99
-4.64
-5.14
-2.02
2.97
6.88
7.33
3.86
-1.73
-6.40
-7.47
-4.13
2.03
7.84
10.31
8.17
2.66
-3.20
-6.29
-5.25
-1.23
2.81
3.88
0.89
-4.65
-9.49
-10.56
-6.84
-0.09
6.17
8.65
6.32
0.94
-3.96
-5.09
-1.37
5.43
11.78
14.32
11.79
5.75
-0.39
-3.40
-2.05
2.21
6.10
6.64
2.90
-3.34
-8.58
-9.67
-5.67
1.48
8.13
10.83
8.32
2.10
-4.50
-8.21
-7.57
-3.65
0.66
2.47
0.54
-4.04
-8.45
-9.81
-7.03
-1.46
3.84
5.74
3.07
-2.70
-8.19
-10.11
-7.08
-0.62
5.86
9.00
7.41
2.46
-2.55
-4.43
-1.95
3.54
8.86
10.88
8.43
2.90
-2.63
-5.09
-3.26
1.55
6.33
8.18
5.95
0.93
-3.89
-5.60
-3.08
2.38
7.68
9.71
7.15
1.23
-4.93
-8.03
-6.58
-1.72
3.42
5.52
3.09
-2.68
-8.53
-11.13
-9.07
-3.65
1.83
4.09
1.87
-3.34
-8.29
-9.78
-6.63
-0.30
5.95
8.90
7.06
1.52
-4.71
-8.42
-7.81
-3.38
2.33
6.22
6.33
2.79
-2.23
-5.73
-5.78
-2.43
2.23
5.30
4.86
1.12
-3.71
-6.78
-6.35
-2.86
1.24
3.01
0.80
-4.61
-10.37
-13.22
-11.49
-6.08
-0.19
2.55
0.10
-6.80
-14.99
-20.72
-21.64
-18.17
-13.12
-10.10
-11.46
-17.05
-24.40
-30.21
-32.29
-30.84
-28.26
-27.75
-31.28
-38.51
-46.83
-52.88
-54.49
-52.02
-48.37
-47.27
-51.24
-59.98
-70.58
-79.13
-83.04
-82.34
-79.65
-78.27
-79.67
-81.92
-80.19
-69.08
-45.87
-12.14
26.83
64.43
95.64
118.80
134.70
144.33
147.68
142.53
125.84
96.96
59.24
19.10
-16.68
-44.11
-63.69
-79.69
-97.54
-120.89
-150.19
-182.81
-215.09
-243.48
-264.97
-276.85
-276.72
-263.21
-236.98
-201.14
-160.79
-121.41
-86.85
-57.86
-32.53
-7.19
21.86
57.05
99.37
147.12
195.81
237.99
264.37
267.01
243.61
200.63
152.96
119.15
113.11
138.44
187.01
243.54
293.26
328.60
351.16
367.64
385.61
408.27
433.91
457.68
474.71
481.76
477.66
461.53
431.51
387.89
328.19
250.54
156.69
54.29
-43.13
-119.71
-163.02
-169.27
-145.33
-107.23
-72.82
-54.76
-55.89
-69.62
-84.49
-90.49
-83.55
-65.58
-42.45
-20.21
-2.86
8.07
11.71
6.46
-10.67
-42.40
-88.27
-143.26
-197.99
-242.38
-270.31
-282.92
-287.12
-292.86
-307.30
-330.68
-356.76
-376.85
-385.20
-382.13
-373.01
-364.21
-359.40
-357.71
-355.13
-347.45
-332.48
-310.76
-284.33
-255.89
-225.69
-191.69
-149.75
-94.67
-22.36
68.04
171.88
278.55
373.51
442.28
474.55
467.34
425.39
359.03
280.84
202.36
131.75
73.86
30.22
-0.36
-20.60
-33.33
-40.15
-40.55
-32.40
-13.01
18.68
60.31
105.91
147.38
176.72
188.34
181.05
158.56
128.49
99.92
79.72
69.93
66.49
61.05
45.24
15.23
-25.74
-67.70
-97.98
-107.00
-92.70
-61.47
-24.92
6.20
26.57
37.18
42.46
45.27
43.41
29.76
-3.97
-61.34
-137.72
-220.55
-293.70
-343.82
-364.77
-358.60
-332.14
-292.59
-244.47
-189.89
-131.30
-74.48
-29.30
-7.33
-16.48
-55.85
-114.46
-174.09
-215.97
-227.82
-207.93
-164.45
-111.41
-62.61
-27.02
-6.87
1.69
6.38
16.07
38.47
77.80
133.56
199.92
266.86
322.78
358.10
367.91
352.90
319.17
276.46
235.98
208.11
199.38
209.68
230.97
249.24
249.51
222.25
167.59
95.12
19.22
-47.49
-98.67
-134.49
-158.53
-173.48
-178.91
-172.24
-151.28
-116.67
-72.32
-23.72
24.45
69.82
111.97
151.66
188.80
221.84
248.10
264.63
269.84
264.27
250.46
232.00
212.42
193.98
177.13
160.77
143.16
122.90
99.68
75.15
50.68
27.52
6.30
-13.10
-31.42
-49.50
-68.04
-87.19
-106.40
-124.76
-141.01
-153.89
-162.34
-165.60
-162.84
-153.81
-138.61
-117.57
-91.47
-61.26
-28.06
6.96
42.49
78.75
115.09
150.62
184.39
215.47
243.20
267.14
287.08
302.54
313.78
319.94
319.46
310.38
290.68
258.77
213.85
156.05
85.89
8.38
-71.21
-147.40
-215.13
-270.24
-309.80
-332.08
-336.33
-330.47
-317.75
-300.36
-280.16
-259.24
-239.91
-224.27
-213.92
-206.20
-199.90
-193.10
-185.65
-178.96
-175.32
-176.91
-184.81
-198.31
-214.82
-231.50
-244.47
-251.36
-251.59
-246.22
-236.92
-225.34
-212.92
-201.29
-193.36
-190.70
-193.56
-200.37
-208.53
-215.80
-222.30
-231.19
-247.14
-274.25
-311.69
-353.46
-390.30
-413.50
-417.59
-401.65
-368.11
-315.45
-243.36
-151.42
-40.74
84.25
215.47
343.33
458.62
554.89
629.01
679.61
706.72
710.35
691.76
650.26
585.48
499.39
397.91
290.52
187.67
99.68
33.41
-11.30
-41.32
-66.04
-92.88
-124.47
-158.74
-191.85
-220.62
-244.22
-264.33
-283.15
-300.85
-315.15
-322.39
-319.31
-304.81
-281.92
-253.41
-222.04
-189.86
-157.13
-122.85
-86.07
-47.17
-8.84
24.58
48.71
60.36
58.95
47.42
31.30
16.48
7.62
7.30
16.90
37.56
70.48
116.28
174.36
241.78
311.96
377.17
429.43
464.54
483.10
488.60
484.19
471.73
452.89
430.93
412.44
405.48
415.10
438.10
465.37
480.39
469.17
428.06
365.63
298.89
244.79
212.59
200.59
198.53
193.28
173.90
137.48
87.58
30.59
-28.17
-86.16
-142.99
-198.30
-250.53
-295.84
-329.88
-350.25
-357.85
-356.65
-352.32
-349.68
-351.30
-357.23
-365.28
-372.44
-376.79
-378.35
-378.93
-381.04
-386.32
-394.86
-405.14
-414.25
-418.88
-416.48
-405.76
-386.79
-361.96
-332.69
-299.98
-264.63
-227.36
-189.16
-151.41
-115.92
-84.54
-58.82
-39.40
-26.31
-18.90
-16.09
-16.60
-19.23
-23.08
-27.48
-32.10
-36.70
-41.32
-46.13
-51.40
-57.50
-64.86
-73.83
-84.72
-97.72
-112.57
-128.94
-146.36
-164.35
-182.48
-200.66
-218.95
-237.53
-256.52
-275.76
-294.72
-312.65
-328.68
-342.07
-352.42
-359.62
-363.73
-364.67
-361.87
-354.18
-340.21
-318.85
-289.87
-254.34
-214.28
-172.32
-130.66
-90.34
-50.91
-10.83
31.65
77.29
125.38
174.13
221.39
265.79
307.72
349.54
394.64
446.17
505.81
573.18
646.76
723.32
798.19
865.69
919.94
956.70
975.71
981.92
984.37
993.28
1014.78
1047.79
1084.53
1114.56
1130.33
1131.05
1122.95
1111.34
1101.18
1092.93
1082.10
1061.51
1024.50
967.02
887.91
787.84
667.89
529.97
376.77
212.85
45.18
-117.80
-267.57
-397.73
-505.46
-591.50
-658.55
-710.18
-749.04
-776.25
-791.60
-794.66
-786.01
-767.91
-743.93
-717.47
-690.93
-664.87
-638.20
-609.33
-577.26
-542.44
-506.75
-472.52
-441.46
-414.32
-391.01
-370.82
-352.22
-332.49
-307.69
-273.50
-227.32
-170.07
-106.80
-45.37
6.72
45.44
71.63
89.38
102.66
112.01
113.92
103.15
76.74
36.99
-8.43
-49.56
-78.55
-92.73
-94.85
-90.82
-85.93
-82.46
-79.68
-75.55
-68.99
-60.95
-53.85
-50.02
-50.18
-53.05
-56.20
-57.15
-54.83
-49.88
-44.20
-39.93
-38.36
-39.42
-41.94
-44.12
-44.50
-42.45
-38.30
-33.23
-29.04
-27.70
-30.47
-36.57
-42.72
-43.59
-33.88
-11.00
23.31
63.34
101.86
132.88
153.14
161.70
158.42
142.90
115.15
77.19
34.22
-6.04
-36.10
-51.78
-54.04
-47.68
-38.87
-32.03
-28.73
-28.18
-28.94
-30.09
-31.18
-31.42
-29.36
-23.60
-13.96
-2.22
8.06
13.23
11.48
3.80
-6.43
-15.24
-20.04
-20.53
-18.35
-15.74
-14.19
-13.87
-14.09
-13.92
-12.94
-11.26
-9.35
-7.71
-7.00
-7.40
-8.84
-10.82
-12.49
-12.96
-11.69
-8.83
-5.34
-2.65
-2.05
-4.09
-8.09
-12.41
-15.00
-14.62
-11.16
-5.99
-1.25
1.32
0.76
-2.86
-8.82
-15.97
-22.39
-24.84
-19.18
-2.08
26.41
61.04
92.29
109.90
107.67
86.64
54.69
22.60
-1.01
-13.08
-16.11
-15.07
-13.87
-13.37
-12.01
-8.08
-1.56
5.52
10.45
11.35
8.51
4.13
0.99
1.34
5.65
12.70
20.36
26.68
30.74
33.05
35.13
38.64
44.49
52.30
60.49
66.87
69.46
67.20
60.14
49.31
36.20
22.27
8.72
-3.93
-15.43
-25.67
-34.41
-41.34
-46.13
-48.62
-49.15
-47.90
-45.53
-42.66
-39.77
-37.14
-34.84
-32.81
-30.97
-29.22
-27.45
-25.71
-24.02
-22.41
-20.88
-19.42
-18.02
-16.68
-15.38
-14.11
-12.87
-11.70
-10.59
-9.57
-8.65
-7.83
-7.10
-6.48
-5.95
-5.50
-5.15
-4.93
-4.85
-4.94
-5.19
-5.56
-6.03
-6.55
-7.07
-7.63
-8.23
-8.95
-9.80
-10.79
-11.88
-13.07
-14.32
-15.52
-16.74
-18.01
-19.41
-21.04
-22.90
-24.90
-27.05
-29.29
-31.56
-34.01
-36.72
-39.86
-43.53
-47.60
-51.58
-54.95
-57.46
-58.15
-56.50
-52.31
-45.40
-35.78
-23.52
-8.61
8.54
27.26
46.43
64.30
78.82
88.09
90.68
85.94
74.28
56.76
34.88
10.23
-15.36
-40.87
-65.20
-88.11
-108.15
-123.92
-134.24
-137.66
-132.49
-117.22
-90.71
-53.31
-6.44
43.77
91.22
130.49
158.67
176.08
183.81
183.83
178.01
167.63
153.60
137.14
119.42
101.72
85.12
70.26
57.64
47.79
40.96
36.79
34.60
32.97
30.12
24.47
15.41
2.96
-11.94
-27.92
-43.58
-57.71
-69.42
-78.35
-84.30
-88.04
-90.73
-93.98
-98.69
-104.34
-108.49
-107.88
-99.95
-84.54
-64.47
-44.37
-28.73
-20.07
-18.05
-20.23
-23.84
-27.18
-30.08
-33.21
-37.18
-41.81
-46.32
-49.98
-52.50
-54.26
-55.82
-57.45
-58.50
-58.18
-54.30
-45.03
-29.43
-7.72
18.67
47.52
76.20
102.35
123.85
139.28
147.71
148.57
141.66
127.31
106.27
79.03
48.04
15.52
-16.55
-46.52
-73.51
-97.25
-117.61
-134.68
-148.49
-158.85
-165.37
-168.00
-165.53
-157.16
-142.71
-122.16
-96.08
-65.52
-31.99
2.65
36.01
66.32
92.16
112.46
127.09
136.38
141.09
141.90
139.44
134.28
127.03
119.11
109.37
97.57
83.79
68.54
52.48
36.47
21.62
9.24
0.35
-4.62
-5.17
-2.34
3.89
12.57
22.47
32.36
41.25
48.52
53.56
56.70
58.40
59.38
59.96
60.36
60.62
60.49
60.67
59.65
56.87
51.73
44.07
33.77
20.96
6.21
-9.76
-25.87
-41.26
-54.68
-65.19
-72.18
-75.68
-76.19
-74.43
-71.30
-67.39
-63.28
-59.03
-54.59
-49.92
-45.26
-41.02
-37.57
-35.26
-33.75
-32.54
-30.74
-27.55
-22.48
-15.67
-7.79
0.36
8.03
15.03
21.47
27.69
33.89
40.20
46.62
53.00
58.98
63.44
64.80
60.82
49.72
31.28
7.55
-17.49
-39.31
-54.53
-62.12
-63.05
-59.68
-54.50
-49.21
-44.84
-42.01
-41.19
-42.66
-47.68
-55.72
-65.27
-74.52
-82.02
-87.23
-90.41
-92.07
-92.29
-90.64
-85.64
-75.62
-59.46
-37.03
-9.83
19.36
47.01
69.89
86.48
98.09
108.28
121.00
138.40
159.78
182.32
202.65
218.50
229.40
236.40
240.28
240.06
232.84
215.44
186.36
146.50
98.51
46.02
-6.18
-52.18
-85.76
-101.99
-99.05
-79.37
-49.96
-20.82
-3.97
-9.10
-36.98
-77.89
-117.93
-146.76
-160.52
-160.47
-150.41
-134.51
-115.95
-96.98
-79.91
-67.14
-60.90
-62.03
-69.16
-79.15
-88.13
-91.12
-84.04
-65.47
-37.55
-5.86
22.36
40.46
43.67
32.07
11.45
-9.59
-24.05
-29.29
-27.10
-21.19
-14.01
-5.36
6.85
24.71
48.39
75.19
100.12
118.35
124.53
115.91
93.96
64.84
37.82
21.82
21.20
33.42
49.85
58.54
50.88
25.60
-11.96
-52.96
-89.02
-115.07
-129.26
-131.66
-122.78
-104.99
-79.72
-51.23
-26.62
-13.69
-17.83
-39.07
-70.55
-99.67
-113.77
-104.56
-72.24
-25.04
24.43
64.53
89.19
99.30
102.49
105.73
114.55
130.33
150.33
169.20
181.42
183.54
171.91
148.66
115.99
76.63
33.71
-8.47
-43.94
-66.77
-74.03
-68.46
-57.99
-53.89
-64.01
-88.13
-118.87
-144.90
-156.82
-151.40
-132.51
-105.82
-80.21
-59.33
-41.32
-22.48
-1.09
20.09
35.50
39.86
31.97
14.41
-6.07
-20.59
-22.40
-9.64
12.69
34.33
43.73
33.48
2.84
-40.83
-84.44
-115.25
-124.01
-110.34
-80.31
-41.91
-1.17
40.41
81.49
119.70
150.64
169.31
172.37
160.37
134.24
101.01
67.90
35.25
1.92
-33.36
-70.51
-107.34
-139.13
-160.26
-165.82
-154.72
-130.23
-97.70
-63.07
-31.11
-4.67
15.34
28.20
33.98
32.91
25.56
13.88
-0.03
-14.90
-30.88
-49.00
-69.83
-91.45
-109.69
-119.50
-116.09
-97.11
-62.63
-14.70
43.24
106.40
168.66
222.60
260.92
279.13
277.52
261.64
240.53
222.96
213.78
211.78
210.33
200.36
174.54
130.65
72.63
9.59
-47.18
-87.50
-105.80
-102.97
-86.38
-67.51
-58.03
-65.68
-91.46
-129.70
-170.63
-204.42
-224.00
-226.10
-210.88
-180.81
-140.57
-97.43
-61.09
-41.74
-46.21
-73.87
-115.13
-154.41
-176.25
-171.82
-142.31
-97.69
-51.78
-16.53
3.01
10.03
13.64
24.02
47.54
84.26
128.49
171.79
206.17
227.86
238.29
242.37
244.53
245.57
242.74
232.08
210.70
177.11
131.84
77.17
16.61
-46.06
-106.53
-159.37
-198.39
-212.45
-195.31
-152.86
-101.17
-55.91
-24.89
-8.18
-1.92
-1.83
-5.04
-10.87
-18.99
-27.73
-34.18
-36.03
-33.21
-27.40
-21.13
-16.54
-15.27
-17.76
-22.59
-27.17
-29.36
-28.57
-25.64
-22.16
-19.63
-19.35
-21.70
-25.94
-30.44
-33.77
-35.40
-35.71
-35.56
-35.90
-37.56
-40.88
-45.57
-50.87
-56.01
-60.58
-64.48
-67.67
-70.09
-71.65
-71.71
-69.49
-64.25
-55.48
-43.13
-27.63
-9.75
9.54
28.61
46.40
62.13
75.19
85.24
92.14
95.98
97.00
95.60
92.32
87.81
82.66
77.34
72.16
67.28
62.65
58.10
53.48
48.83
44.34
40.31
37.00
34.52
32.74
31.29
29.69
27.61
25.41
23.22
21.56
20.98
21.73
23.55
25.73
27.38
27.83
27.09
25.76
24.92
25.67
28.53
33.24
38.84
44.22
48.54
51.72
54.29
57.39
61.60
67.22
74.15
81.83
88.97
92.92
89.97
76.19
49.26
10.38
-35.31
-80.17
-116.53
-139.35
-147.77
-144.44
-132.90
-117.60
-100.76
-83.00
-64.66
-46.73
-30.74
-18.19
-9.53
-4.22
-0.88
2.17
6.02
10.55
14.65
16.97
16.50
13.13
7.26
-0.26
-8.41
-16.72
-24.81
-33.35
-42.79
-53.73
-65.12
-75.80
-84.24
-89.02
-89.23
-84.77
-76.22
-64.57
-51.06
-35.75
-20.51
-6.44
5.82
16.00
24.15
30.41
35.22
39.14
42.78
46.39
50.23
54.02
57.24
59.31
59.35
56.62
50.69
41.37
28.72
13.48
-3.43
-20.53
-36.17
-48.85
-57.26
-60.50
-58.18
-50.68
-37.64
-21.13
-2.83
15.88
33.77
49.90
63.57
74.01
80.83
83.67
82.03
75.98
66.00
52.89
37.81
22.42
7.66
-5.91
-18.00
-28.99
-38.96
-47.74
-54.91
-59.93
-62.31
-62.24
-60.61
-58.62
-57.88
-59.31
-62.83
-67.44
-71.60
-73.77
-73.09
-70.65
-66.60
-62.10
-58.27
-56.12
-56.53
-59.90
-65.47
-69.95
-70.03
-61.73
-43.32
-16.62
13.12
39.17
56.18
62.42
59.89
52.66
44.84
38.28
32.69
26.99
20.59
14.05
8.74
5.57
4.25
3.75
2.44
-1.05
-6.95
-14.38
-22.00
-28.46
-33.07
-36.08
-38.21
-40.50
-43.45
-46.72
-48.99
-48.56
-43.88
-34.12
-19.49
-1.09
19.19
39.09
57.08
72.49
85.33
96.07
105.15
112.79
118.74
122.56
123.62
121.28
115.92
108.71
101.19
94.62
89.53
85.53
81.26
75.19
66.61
55.79
43.97
32.76
23.05
14.44
7.46
1.67
-2.75
-5.62
-7.60
-10.73
-17.81
-30.91
-49.47
-70.01
-87.41
-97.27
-98.61
-93.29
-84.27
-72.07
-55.08
-30.76
1.79
39.41
74.93
99.06
103.66
84.83
44.35
-10.94
-70.71
-124.35
-164.11
-186.58
-192.70
-186.63
-173.38
-157.53
-142.67
-131.66
-127.44
-132.67
-148.01
-170.39
-192.72
-205.44
-200.83
-176.45
-136.19
-88.97
-45.06
-12.10
7.47
15.59
16.77
14.61
9.88
2.25
-8.64
-22.27
-36.47
-47.44
-54.86
-57.98
-57.30
-55.58
-54.11
-52.88
-51.15
-47.30
-38.64
-23.65
-2.01
24.74
51.80
76.62
98.10
115.85
130.72
145.27
161.31
180.03
201.45
222.16
241.76
261.48
283.30
295.27
289.43
262.77
219.17
185.84
168.76
167.73
182.22
203.41
228.82
259.26
293.71
327.61
352.61
356.64
333.65
284.62
217.40
143.83
75.92
21.70
-15.05
-33.14
-34.08
-17.10
10.54
40.37
62.34
68.69
56.76
29.91
-4.51
-39.98
-70.78
-94.66
-111.90
-124.67
-134.46
-141.00
-141.98
-136.00
-124.03
-109.32
-97.83
-94.94
-104.43
-125.57
-153.45
-181.35
-203.96
-219.10
-226.71
-227.69
-218.70
-198.34
-167.97
-133.28
-103.59
-88.86
-95.06
-118.89
-150.00
-173.60
-178.89
-163.74
-134.38
-99.78
-66.25
-35.48
-6.01
22.21
49.09
70.88
82.78
81.13
64.79
35.19
-4.44
-48.27
-88.01
-114.51
-121.50
-107.66
-77.41
-39.24
-2.50
26.05
44.35
54.17
58.77
59.78
56.59
47.53
31.98
11.83
-8.63
-24.47
-32.59
-32.65
-26.99
-18.57
-8.74
3.56
20.51
42.28
65.50
84.41
93.99
93.11
85.45
77.69
75.69
81.42
92.62
105.37
117.04
127.30
136.57
143.34
143.06
129.92
100.59
57.36
8.55
-34.78
-64.00
-76.27
-75.05
-67.77
-61.75
-60.91
-64.49
-68.03
-66.07
-55.50
-37.22
-16.09
1.23
9.45
7.01
-3.34
-16.47
-27.31
-33.01
-33.20
-29.14
-22.16
-12.62
-0.47
14.09
29.11
41.17
46.29
41.79
27.48
6.27
-16.35
-34.25
-42.53
-39.56
-27.45
-11.28
3.19
11.93
14.22
12.55
10.75
11.95
17.04
24.32
30.71
33.58
32.05
27.24
21.42
16.27
12.09
7.87
2.36
-4.38
-10.43
-12.76
-9.17
0.36
13.09
24.96
32.81
36.05
37.13
40.19
48.95
64.83
86.45
110.55
133.66
153.26
167.91
176.94
179.97
176.54
166.37
149.69
127.47
101.26
75.08
53.28
39.43
35.02
38.99
48.22
58.90
68.07
74.47
78.50
80.75
81.13
78.60
71.94
60.75
46.14
30.33
15.50
2.86
-7.88
-18.16
-29.41
-42.08
-55.02
-65.66
-71.14
-69.79
-62.40
-52.61
-45.90
-47.33
-59.39
-80.88
-107.67
-134.94
-159.58
-181.43
-203.10
-228.11
-258.81
-294.74
-332.06
-364.09
-383.03
-381.92
-356.87
-308.36
-241.28
-163.52
-83.73
-9.12
55.95
110.13
154.52
191.28
222.64
250.02
273.89
293.96
309.51
319.79
323.90
320.69
308.55
286.10
253.02
210.93
163.66
116.26
73.54
38.51
11.82
-7.79
-22.11
-32.51
-39.45
-42.89
-43.17
-41.54
-40.45
-43.39
-54.46
-77.23
-113.26
-160.46
-212.32
-258.83
-289.06
-294.71
-272.93
-226.98
-164.41
-94.02
-23.07
43.75
103.58
153.95
192.09
215.21
221.68
212.12
189.41
157.84
121.88
85.17
50.25
18.55
-9.31
-33.45
-54.66
-74.34
-94.32
-116.38
-141.93
-171.31
-203.50
-236.22
-266.31
-290.42
-305.65
-309.99
-302.57
-283.76
-255.23
-219.88
-181.63
-144.66
-112.51
-87.19
-69.13
-57.36
-50.36
-45.98
-41.36
-32.86
-16.87
8.50
41.80
77.75
108.93
128.36
132.40
121.84
100.90
74.71
46.66
17.53
-13.90
-48.91
-87.13
-125.73
-159.67
-182.99
-190.50
-179.62
-151.65
-111.77
-67.58
-26.50
6.41
29.61
44.35
53.03
57.40
57.83
53.62
44.02
28.97
9.23
-14.01
-39.54
-65.92
-91.29
-112.87
-127.13
-130.37
-119.88
-95.28
-59.09
-17.10
22.67
51.68
63.22
54.73
28.76
-7.58
-44.86
-73.97
-88.30
-84.78
-63.89
-29.12
13.51
56.26
91.17
112.19
117.26
109.30
95.42
84.15
82.08
91.39
109.51
130.70
148.74
159.27
160.79
154.40
142.35
126.21
105.76
78.94
43.41
-1.19
-51.51
-100.40
-139.08
-160.58
-162.70
-148.69
-125.62
-100.97
-79.64
-63.03
-49.98
-38.99
-29.75
-23.35
-21.28
-24.24
-31.38
-40.58
-49.61
-57.17
-63.33
-69.17
-75.93
-83.97
-92.56
-100.13
-104.86
-105.54
-101.94
-94.78
-85.03
-73.14
-58.74
-40.96
-18.73
8.79
41.66
78.78
117.79
155.76
190.01
218.81
241.30
258.31
272.55
287.59
305.88
326.94
347.10
360.81
362.83
349.35
320.12
278.95
232.15
185.59
142.64
104.02
69.30
37.86
8.00
-22.39
-54.87
-89.79
-126.24
-162.08
-193.53
-215.69
-215.95
-187.25
-135.14
-76.84
-29.73
-2.14
7.40
6.06
2.08
1.43
5.31
12.20
20.37
30.08
42.75
59.23
79.21
101.08
122.20
139.24
149.07
149.92
142.65
129.10
110.32
86.94
59.56
29.20
-2.88
-34.38
-62.48
-83.15
-93.02
-91.62
-80.05
-60.82
-37.72
-15.67
5.43
22.38
32.19
32.31
19.63
-6.73
-45.80
-96.01
-155.56
-221.60
-289.96
-353.65
-404.23
-435.29
-441.19
-419.44
-372.26
-305.72
-227.20
-144.01
-61.45
24.43
104.67
166.45
202.29
213.58
207.51
192.52
174.71
157.67
142.24
126.39
109.46
92.05
75.03
59.46
47.30
39.83
38.33
42.89
51.36
62.35
74.50
86.21
96.08
104.65
113.46
124.57
139.05
155.63
171.81
182.88
182.79
162.81
119.67
55.80
-21.56
-103.03
-179.99
-239.38
-269.17
-265.62
-235.73
-190.95
-140.94
-91.20
-44.99
-4.96
26.89
48.77
61.02
64.75
62.69
57.38
50.03
39.63
24.67
5.27
-16.12
-33.97
-42.05
-35.95
-15.44
15.92
51.66
85.01
110.34
123.42
120.85
99.73
59.69
3.03
-57.98
-105.51
-126.20
-118.95
-92.43
-57.95
-24.30
5.17
31.36
56.64
81.23
103.62
120.11
127.91
126.58
117.43
102.77
84.40
63.05
36.43
5.11
-29.67
-65.76
-100.60
-131.99
-157.94
-176.31
-184.21
-178.58
-157.77
-123.41
-80.30
-35.55
3.43
31.64
47.84
53.98
53.55
49.15
41.32
29.97
15.98
1.91
-8.65
-13.51
-14.42
-15.90
-23.87
-42.51
-71.25
-104.48
-133.37
-148.92
-145.17
-120.57
-77.66
-22.19
38.10
94.76
139.98
165.82
169.45
153.39
123.90
88.48
53.17
21.49
-5.18
-26.49
-41.98
-51.25
-54.79
-54.33
-51.36
-47.01
-41.55
-34.43
-24.45
-10.12
9.09
32.21
57.04
80.96
101.55
117.18
127.21
129.10
123.97
113.45
98.84
80.97
60.75
39.41
18.67
0.28
-14.34
-24.37
-30.56
-34.64
-38.89
-45.13
-54.09
-65.06
-76.41
-85.96
-91.81
-92.48
-87.09
-76.17
-61.38
-45.12
-29.76
-16.74
-6.02
4.09
15.56
29.67
45.66
61.07
72.73
77.82
74.83
64.04
47.43
26.76
6.17
-11.07
-23.38
-30.58
-33.42
-32.38
-27.23
-17.31
-2.50
15.81
34.10
47.78
53.50
50.49
40.91
28.50
16.55
6.33
-3.09
-14.05
-28.58
-46.21
-64.23
-78.74
-86.42
-85.84
-77.85
-64.95
-50.31
-37.05
-27.16
-21.56
-19.95
-21.09
-23.13
-24.17
-22.86
-19.01
-14.15
-10.59
-10.50
-14.85
-23.03
-33.59
-45.02
-56.63
-68.13
-79.48
-89.42
-95.80
-96.65
-91.29
-80.79
-67.45
-53.78
-40.24
-26.96
-13.63
0.15
15.01
32.05
52.81
79.33
110.21
144.28
179.17
211.54
237.58
253.87
258.62
252.20
237.07
216.74
195.00
174.09
154.55
135.61
115.99
94.88
72.49
49.98
29.02
11.28
-2.60
-12.75
-19.81
-24.32
-26.23
-25.29
-21.21
-14.01
-4.04
7.68
20.10
32.22
42.97
51.49
56.75
57.95
55.00
48.42
38.88
27.56
15.87
5.30
-2.33
-6.11
-6.46
-3.65
0.16
1.31
-2.57
-11.41
-26.35
-46.26
-70.55
-99.34
-133.08
-167.61
-198.86
-222.42
-234.88
-235.10
-223.75
-203.50
-177.64
-149.09
-120.09
-92.49
-67.28
-45.07
-26.39
-11.42
-0.52
6.13
8.87
8.57
6.34
3.65
1.69
0.90
1.14
1.76
2.50
4.16
8.51
17.27
31.12
48.50
65.48
76.90
77.98
66.31
42.82
11.42
-22.34
-52.98
-76.57
-91.19
-96.73
-94.20
-85.24
-71.94
-56.97
-43.34
-33.70
-29.44
-30.04
-33.36
-36.89
-39.36
-41.43
-45.03
-51.41
-59.32
-64.88
-63.50
-52.82
-34.77
-15.00
-0.07
6.18
4.46
-0.90
-4.74
-4.06
1.03
8.54
16.99
26.58
38.81
54.77
73.67
92.79
108.64
118.64
121.83
118.90
111.43
101.34
90.82
82.22
77.68
78.20
83.10
89.87
95.30
96.88
94.30
89.48
85.03
82.65
81.62
79.18
72.26
59.77
43.91
29.48
21.28
21.28
27.55
35.28
39.54
37.88
31.30
22.93
16.03
12.11
10.62
10.05
9.25
7.95
6.52
5.34
4.17
2.35
-0.77
-5.59
-12.01
-19.74
-28.26
-36.59
-43.42
-47.32
-47.47
-44.11
-38.77
-33.60
-30.62
-30.72
-33.14
-35.84
-36.22
-32.27
-23.59
-11.70
0.45
9.33
12.17
7.77
-3.24
-18.81
-36.24
-53.12
-68.01
-80.44
-90.94
-100.23
-108.39
-114.18
-114.87
-107.11
-88.69
-60.47
-27.10
3.77
24.11
28.52
16.44
-7.58
-35.31
-57.48
-66.81
-60.15
-39.44
-11.13
15.87
33.11
35.48
23.04
0.95
-22.55
-39.04
-42.98
-33.44
-14.24
7.63
24.93
32.46
28.67
15.73
-1.88
-19.30
-33.00
-41.46
-44.69
-42.98
-36.56
-25.79
-11.87
2.61
14.25
19.92
18.40
11.03
1.76
-4.51
-3.81
5.68
23.09
45.36
68.40
88.41
102.90
111.61
115.55
115.72
112.72
106.45
96.52
82.86
65.75
45.79
24.83
4.36
-15.31
-34.00
-51.18
-65.82
-76.76
-84.29
-90.10
-94.72
-97.73
-97.71
-90.89
-72.51
-39.36
7.82
62.44
113.77
152.54
172.21
169.52
146.29
107.94
61.26
18.22
-10.23
-30.88
-51.55
-72.54
-95.35
-120.37
-146.21
-169.80
-186.93
-194.50
-191.31
-176.27
-150.88
-120.14
-89.88
-64.98
-47.86
-37.49
-30.81
-23.92
-12.49
4.79
24.50
41.02
49.01
45.90
32.87
13.62
-7.49
-26.25
-40.45
-50.10
-55.46
-56.14
-51.28
-40.53
-25.31
-8.95
5.13
14.75
20.08
23.87
29.92
40.66
55.33
69.87
78.70
78.00
67.52
50.97
34.38
23.47
21.36
27.82
40.17
54.82
68.66
79.31
85.17
85.29
79.95
71.06
62.06
56.80
57.54
63.56
70.92
74.27
69.63
56.65
38.75
21.32
8.89
2.87
1.44
1.27
-0.23
-3.42
-6.68
-8.02
-6.63
-3.50
-0.83
-0.41
-2.49
-5.82
-8.56
-9.45
-8.33
-6.12
-3.86
-2.27
-1.42
-0.93
-0.48
-0.04
0.09
-0.59
-2.62
-6.20
-10.96
-15.77
-18.82
-18.58
-14.48
-7.65
-0.71
3.30
2.49
-3.04
-11.12
-18.59
-22.92
-23.04
-19.57
-14.08
-8.21
-3.10
0.56
2.40
2.24
0.11
-3.40
-7.23
-10.16
-11.32
-10.51
-8.44
-6.28
-5.07
-5.31
-6.61
-7.84
-7.83
-5.67
-1.30
4.44
10.16
14.53
16.68
16.60
15.07
13.26
12.34
13.10
15.69
19.66
24.15
28.15
30.87
31.88
31.15
28.88
25.16
20.00
13.63
6.78
0.69
-3.22
-4.23
-2.60
0.41
3.25
4.81
4.94
4.02
2.44
0.27
-2.50
-5.35
-6.74
-4.70
2.05
13.02
25.73
36.82
43.78
46.17
45.47
43.91
42.77
41.59
38.64
32.26
22.19
9.93
-2.04
-11.46
-17.25
-19.69
-19.94
-19.28
-18.65
-18.62
-19.45
-21.39
-24.48
-28.42
-32.57
-36.11
-38.29
-38.74
-37.52
-35.00
-31.78
-28.55
-25.97
-24.62
-24.88
-26.77
-29.72
-32.61
-33.92
-32.45
-27.87
-20.90
-13.14
-6.48
-2.34
-1.11
-2.05
-3.53
-3.84
-2.15
1.36
5.44
8.57
9.68
8.65
6.29
3.89
2.43
1.69
0.89
-0.76
-3.44
-6.75
-10.19
-13.54
-16.90
-20.42
-25.00
-31.12
-38.73
-47.28
-56.11
-64.63
-72.37
-78.75
-83.08
-86.40
-89.71
-93.39
-96.82
-98.83
-98.68
-96.73
-94.33
-92.67
-94.57
-101.37
-112.59
-126.33
-140.54
-154.10
-167.08
-180.10
-182.25
-166.12
-128.91
-74.54
-11.22
52.94
112.60
164.94
206.32
238.29
259.76
269.46
267.47
256.32
240.59
225.55
215.85
214.56
222.60
236.73
252.96
268.35
281.72
292.89
301.25
304.76
300.54
286.61
261.43
225.81
182.42
134.46
84.46
33.86
-16.73
-66.80
-114.93
-159.81
-199.76
-233.00
-257.78
-272.57
-276.32
-268.81
-251.09
-225.51
-196.00
-166.92
-141.88
-122.84
-109.57
-100.03
-91.40
-80.95
-66.88
-49.49
-31.59
-18.11
-14.81
-25.62
-50.03
-82.27
-112.36
-129.40
-125.62
-99.26
-55.00
-2.44
46.96
82.95
98.70
92.38
67.28
30.91
-7.07
-37.68
-55.26
-58.51
-49.94
-33.83
-14.23
6.00
24.84
40.47
50.89
54.40
50.89
42.24
31.96
23.73
19.57
18.95
19.20
16.85
9.18
-4.57
-23.22
-44.09
-63.60
-77.81
-83.16
-77.52
-61.74
-40.33
-20.71
-10.54
-14.26
-30.76
-53.80
-75.00
-87.92
-90.78
-86.28
-79.03
-72.35
-66.45
-58.95
-47.06
-29.61
-7.79
15.55
37.55
56.54
72.71
87.65
103.27
120.63
139.17
156.75
170.39
177.70
177.79
171.60
161.29
149.05
136.32
123.50
110.37
96.35
80.76
62.81
41.55
16.32
-12.71
-44.02
-75.03
-102.69
-124.49
-139.07
-146.42
-147.62
-144.44
-139.10
-134.05
-131.82
-134.49
-142.95
-156.49
-173.04
-189.98
-205.27
-217.79
-227.06
-232.39
-232.58
-226.57
-214.88
-200.64
-189.04
-185.03
-190.44
-202.35
-213.90
-217.71
-209.79
-191.46
-168.33
-146.86
-130.74
-119.08
-107.27
-89.69
-62.57
-25.47
19.14
67.40
115.93
162.59
206.54
247.40
284.42
316.04
340.14
354.93
359.64
355.14
343.79
328.66
312.46
296.70
281.38
265.39
247.41
226.92
204.75
182.99
164.30
150.96
144.01
143.07
146.53
152.23
158.10
162.74
165.58
166.54
165.72
163.03
158.24
151.27
142.46
132.85
123.93
117.32
114.15
114.84
119.17
126.52
136.00
146.33
155.84
162.45
164.41
160.70
151.52
138.00
121.44
102.45
80.42
54.16
22.83
-13.17
-51.98
-90.73
-126.40
-156.74
-180.62
-198.34
-210.88
-219.52
-225.48
-229.66
-232.40
-233.52
-232.83
-230.34
-226.66
-221.59
-213.83
-201.26
-181.94
-155.61
-124.33
-92.97
-67.75
-55.43
-59.81
-81.28
-117.58
-165.09
-219.80
-277.20
-332.21
-378.79
-411.77
-425.88
-417.54
-386.43
-336.17
-273.54
-206.50
-142.76
-80.34
-22.20
26.81
62.37
83.11
91.11
89.28
82.66
75.23
69.85
67.14
67.68
72.33
80.92
92.03
103.10
111.43
114.70
111.89
102.61
88.22
70.97
52.85
34.99
17.79
1.84
-11.93
-22.11
-28.19
-30.20
-28.70
-24.45
-17.65
-7.79
6.06
24.25
45.78
68.13
88.79
106.28
120.80
134.01
148.16
164.92
184.55
205.70
225.73
241.89
252.15
255.77
253.50
247.25
239.20
230.77
222.08
211.89
198.18
178.84
152.46
118.79
79.01
35.65
-7.84
-47.75
-80.99
-105.93
-123.08
-134.50
-142.80
-149.79
-155.26
-156.93
-151.79
-137.97
-116.22
-90.17
-64.94
-44.88
-32.04
-25.59
-23.09
-22.34
-22.79
-25.79
-33.26
-45.92
-62.06
-77.87
-88.85
-92.05
-87.58
-78.67
-70.24
-66.69
-69.98
-79.13
-91.07
-102.01
-109.12
-111.13
-107.89
-99.84
-87.64
-72.38
-56.21
-42.37
-34.27
-33.97
-40.89
-51.58
-61.16
-65.48
-63.09
-55.75
-47.33
-41.78
-41.25
-45.29
-51.53
-57.09
-60.02
-59.93
-57.78
-54.95
-52.09
-48.70
-43.19
-33.97
-20.49
-3.79
13.80
29.74
42.38
51.53
58.02
62.79
66.03
67.17
65.52
61.22
55.63
50.97
49.41
52.24
59.48
70.01
82.23
94.56
105.74
115.15
122.64
128.61
133.73
138.66
143.67
148.32
151.53
151.77
147.91
139.75
128.38
115.85
104.30
94.75
86.45
77.06
63.91
45.54
22.75
-1.52
-23.48
-40.17
-50.57
-55.73
-57.82
-58.98
-60.49
-62.74
-65.65
-69.03
-72.57
-75.67
-77.20
-75.80
-70.57
-61.54
-49.88
-37.45
-25.94
-16.18
-8.13
-1.12
5.52
12.02
18.19
23.76
28.60
32.96
37.31
42.03
47.28
52.87
58.29
62.92
66.08
67.24
66.21
63.23
58.94
54.15
49.39
44.65
39.23
32.00
21.68
7.30
-11.58
-34.56
-60.25
-86.29
-109.73
-127.73
-138.45
-141.79
-139.35
-133.89
-128.29
-124.54
-123.21
-123.47
-123.55
-121.48
-115.73
-105.46
-90.75
-72.44
-51.90
-30.75
-10.43
8.01
23.92
37.06
47.48
55.51
61.66
66.57
70.83
74.68
77.92
79.88
79.73
76.82
71.06
62.98
53.56
43.80
34.28
24.98
15.59
5.95
-3.53
-11.80
-17.46
-19.32
-16.84
-10.25
-0.39
11.45
23.81
35.17
44.04
49.21
49.96
46.22
38.64
28.44
16.93
5.30
-5.62
-15.35
-23.53
-29.82
-33.86
-35.37
-34.28
-30.91
-25.94
-20.33
-14.99
-10.52
-6.97
-3.88
-0.71
2.98
7.01
10.68
13.09
13.50
11.90
8.99
5.95
3.94
3.94
6.41
11.39
18.47
26.75
34.90
41.55
46.08
49.31
53.66
62.19
77.01
97.95
122.32
146.22
166.31
181.31
191.99
199.94
205.75
208.09
204.31
191.84
169.97
140.30
106.10
70.98
37.78
8.26
-16.82
-37.30
-53.80
-67.70
-80.96
-94.97
-109.22
-120.67
-124.63
-117.45
-99.29
-75.42
-54.48
-44.66
-49.39
-65.54
-85.04
-98.99
-102.07
-94.54
-81.06
-67.09
-55.45
-45.16
-32.75
-15.28
7.15
30.98
50.65
61.33
61.02
51.10
34.96
16.18
-2.98
-21.72
-39.61
-55.60
-67.52
-73.04
-70.98
-62.36
-50.12
-38.01
-28.99
-24.39
-24.04
-26.98
-32.16
-38.72
-45.66
-51.66
-55.25
-55.25
-50.97
-42.19
-28.88
-11.08
10.82
35.61
60.90
83.51
100.29
109.17
109.48
101.84
87.43
67.57
43.67
17.38
-9.20
-33.78
-54.36
-69.95
-80.74
-87.93
-93.13
-97.67
-102.11
-106.10
-108.55
-108.11
-103.79
-95.34
-83.41
-69.38
-54.90
-41.41
-29.93
-20.92
-14.50
-10.41
-8.04
-6.34
-4.06
-0.11
6.05
14.05
22.77
30.68
36.46
39.47
40.04
39.37
39.12
40.86
45.48
52.81
61.67
70.17
76.36
78.84
77.10
71.53
63.09
52.97
42.39
32.46
24.12
17.98
14.15
12.31
11.92
12.59
14.36
17.65
23.04
30.73
40.29
50.79
61.28
71.17
80.32
88.94
96.99
104.06
109.26
111.65
110.66
106.29
99.26
90.53
81.13
71.82
63.19
55.51
48.75
42.67
36.66
29.99
21.81
11.32
-2.15
-18.83
-38.56
-60.56
-83.53
-105.98
-126.35
-143.51
-156.89
-166.48
-172.53
-175.26
-174.67
-170.60
-163.15
-152.68
-139.95
-125.88
-111.31
-96.91
-83.06
-70.00
-57.92
-47.07
-37.48
-28.94
-20.99
-12.99
-4.50
4.58
13.99
23.14
31.39
38.33
43.81
47.96
51.20
54.06
56.98
60.21
63.66
66.91
69.33
70.09
68.09
62.11
50.82
33.54
10.87
-14.86
-40.02
-60.75
-74.03
-78.80
-75.76
-66.79
-53.85
-38.52
-22.11
-5.99
8.46
20.28
29.14
35.27
39.17
41.06
40.48
36.22
26.53
9.71
-15.44
-48.83
-88.65
-131.35
-172.32
-207.13
-232.96
-249.14
-256.85
-258.02
-254.19
-245.85
-233.11
-216.49
-197.15
-176.57
-155.65
-134.35
-111.75
-86.70
-58.45
-27.12
6.27
40.16
72.91
102.90
128.87
149.98
165.93
177.06
184.21
188.54
191.13
192.70
193.61
194.01
194.11
194.18
194.59
195.53
197.00
198.68
200.01
200.34
199.15
196.19
191.41
185.03
177.14
167.65
155.95
141.06
122.00
98.36
70.80
40.96
11.13
-16.68
-41.28
-62.48
-80.81
-96.91
-111.07
-122.97
-132.09
-137.96
-140.69
-140.98
-139.79
-138.01
-136.24
-134.75
-133.55
-132.61
-131.90
-131.47
-131.35
-131.53
-131.67
-131.14
-129.02
-124.18
-115.56
-102.36
-84.23
-61.44
-34.90
-6.02
23.31
50.91
74.64
92.74
104.27
109.34
108.93
104.57
97.90
90.15
82.09
74.07
66.13
58.31
50.63
43.24
36.38
30.41
25.64
22.29
20.47
20.11
21.17
23.65
27.67
33.30
40.48
48.94
58.29
68.15
78.29
88.50
98.58
108.19
116.80
123.77
128.33
129.84
128.05
123.28
116.52
109.24
102.82
97.94
94.46
91.33
87.23
81.17
72.90
63.01
52.56
42.60
33.68
25.83
18.56
11.03
2.09
-9.33
-24.06
-42.06
-62.20
-82.26
-99.52
-111.96
-119.20
-122.93
-126.30
-132.62
-143.82
-159.52
-177.50
-194.92
-209.91
-222.16
-232.47
-241.74
-249.90
-255.91
-258.16
-255.41
-247.14
-233.30
-213.77
-188.18
-156.26
-118.86
-78.41
-38.67
-3.71
23.64
42.59
54.41
61.29
65.15
66.66
64.99
58.49
45.68
26.52
2.87
-21.75
-43.28
-58.53
-66.33
-67.86
-65.73
-62.63
-59.85
-56.87
-51.98
-43.57
-31.37
-16.61
-1.38
12.78
25.67
38.80
54.47
74.65
99.89
128.83
158.74
186.40
209.20
225.49
234.72
236.86
231.92
219.52
198.95
169.93
133.20
91.17
47.82
7.95
-23.98
-45.10
-54.78
-54.59
-47.43
-36.43
-24.05
-11.73
-0.14
10.33
19.16
25.69
29.18
29.26
25.99
20.00
12.36
4.29
-3.18
-9.49
-14.45
-18.29
-21.33
-23.72
-25.29
-25.63
-24.34
-21.46
-17.74
-14.58
-13.53
-15.74
-21.49
-30.02
-39.82
-49.01
-55.78
-58.73
-56.97
-50.22
-38.81
-23.69
-6.23
12.03
29.69
45.87
60.24
73.03
84.63
95.39
105.44
114.54
122.25
128.12
131.77
132.96
131.40
126.55
117.64
104.03
85.62
63.27
38.76
14.28
-8.13
-27.06
-41.96
-52.81
-59.93
-63.69
-64.46
-62.63
-58.61
-52.88
-45.95
-38.35
-30.70
-23.59
-17.59
-13.05
-10.10
-8.64
-8.58
-9.77
-11.90
-14.36
-16.45
-17.93
-19.60
-23.46
-31.98
-46.86
-67.83
-92.19
-115.69
-134.07
-144.58
-146.55
-141.08
-129.82
-114.14
-94.89
-72.82
-49.25
-26.14
-5.75
10.27
21.55
29.26
35.63
42.95
52.48
63.66
74.18
80.79
80.57
72.17
56.24
35.19
12.00
-10.70
-31.34
-49.35
-64.80
-78.09
-89.75
-100.39
-110.40
-119.69
-127.36
-131.76
-130.96
-123.60
-109.52
-89.98
-67.26
-43.87
-21.79
-1.93
15.87
32.52
49.23
67.01
86.43
107.52
129.91
152.80
175.21
196.01
214.18
228.89
239.62
246.21
248.70
247.21
241.72
232.17
218.55
201.03
180.15
156.72
131.71
105.98
80.22
54.95
30.57
7.55
-13.64
-32.51
-48.72
-62.16
-73.02
-81.59
-88.19
-93.07
-96.34
-98.19
-98.85
-98.74
-98.38
-98.19
-98.31
-98.55
-98.48
-97.70
-96.14
-94.11
-92.30
-91.44
-91.93
-93.54
-95.42
-96.40
-95.43
-91.98
-86.36
-79.44
-72.41
-66.29
-61.60
-58.20
-55.54
-52.90
-49.74
-45.88
-41.52
-37.07
-32.95
-29.41
-26.55
-24.32
-22.75
-21.83
-21.60
-21.97
-22.74
-23.73
-25.01
-27.01
-30.27
-34.98
-40.43
-44.93
-46.27
-42.73
-34.08
-21.85
-8.81
2.09
8.99
11.57
10.74
7.65
2.84
-4.11
-13.90
-26.59
-40.72
-53.45
-61.60
-62.98
-57.13
-44.86
-27.56
-6.33
17.87
43.45
67.38
85.56
94.17
91.81
80.65
65.92
53.70
48.18
50.00
56.42
63.11
66.41
64.83
59.10
51.16
42.95
35.52
28.93
22.69
16.67
11.32
7.65
6.62
8.47
12.41
16.74
19.59
19.69
17.02
12.61
8.11
4.89
3.55
3.82
4.70
5.26
4.90
3.74
2.40
1.57
1.73
2.84
4.43
5.91
6.80
6.95
6.61
6.26
6.33
7.13
8.70
10.80
13.01
14.86
15.95
16.17
15.72
14.96
14.28
13.83
13.51
13.04
12.10
10.43
7.98
4.80
1.02
-3.18
-7.57
-11.95
-16.16
-20.11
-23.83
-27.47
-31.23
-35.31
-39.84
-44.72
-49.65
-53.96
-56.84
-57.48
-55.39
-50.54
-43.43
-34.96
-26.03
-17.48
-9.85
-3.55
1.17
4.18
5.62
5.92
5.68
5.54
5.90
6.81
8.02
9.17
9.97
10.34
10.45
10.48
10.71
11.27
12.25
13.69
15.52
17.61
19.75
21.76
23.42
24.66
25.42
25.78
25.87
25.75
25.50
25.08
24.41
23.42
22.04
20.24
18.06
15.55
12.69
9.57
6.25
2.85
-0.51
-3.73
-6.83
-9.88
-12.93
-15.92
-18.57
-20.50
-21.24
-20.44
-17.90
-13.67
-8.00
-1.29
5.83
12.61
18.15
21.56
22.24
19.92
14.87
7.72
-0.65
-9.36
-17.60
-24.74
-30.18
-33.33
-33.72
-31.06
-25.52
-17.75
-8.81
-0.04
7.16
11.59
12.51
9.82
4.17
-3.08
-10.30
-15.97
-19.18
-19.88
-18.73
-16.68
-14.56
-12.83
-11.51
-10.45
-9.46
-8.47
-7.51
-6.71
-6.16
-5.96
-6.17
-6.84
-8.01
-9.62
-11.39
-12.80
-13.16
-11.76
-8.20
-2.52
4.79
12.92
21.13
28.92
36.06
42.47
48.09
52.75
56.17
58.06
58.07
55.96
51.82
46.10
39.72
33.79
29.27
26.54
25.24
24.37
22.83
19.85
15.17
9.02
1.91
-5.73
-13.41
-20.53
-26.27
-29.74
-30.26
-27.73
-22.71
-16.28
-9.70
-3.96
0.48
3.61
5.73
7.33
8.95
11.16
14.50
19.35
25.82
33.61
42.15
50.80
59.16
67.24
75.44
84.31
94.18
104.98
116.23
127.23
137.47
146.75
155.23
163.17
170.66
177.40
182.55
184.92
182.88
174.72
158.78
133.91
99.98
58.16
10.89
-38.49
-86.42
-129.86
-166.59
-195.35
-215.69
-227.65
-231.73
-228.81
-220.21
-207.71
-193.31
-178.81
-165.48
-153.79
-143.31
-133.08
-122.09
-109.81
-96.61
-83.72
-72.83
-65.51
-62.62
-63.95
-68.23
-73.50
-77.65
-79.07
-77.09
-71.91
-64.57
-56.29
-48.20
-40.99
-34.92
-29.90
-25.76
-22.25
-19.15
-16.27
-13.34
-10.37
-7.53
-5.14
-3.46
-2.43
-1.59
-0.16
2.54
6.94
12.92
20.00
27.50
34.87
41.84
48.30
54.16
59.22
63.10
65.49
66.22
65.46
63.56
61.03
58.19
55.14
51.74
47.81
43.34
38.60
33.98
29.84
26.27
22.95
19.34
14.89
9.39
3.06
-3.49
-9.58
-14.75
-18.98
-22.66
-26.41
-30.83
-36.29
-42.81
-50.17
-57.98
-65.71
-72.78
-78.50
-82.14
-83.29
-82.09
-79.25
-75.78
-72.62
-70.09
-67.96
-65.46
-61.74
-56.22
-48.61
-38.77
-26.63
-12.21
4.05
21.17
37.67
52.08
63.27
70.95
75.55
77.99
79.31
80.42
82.02
84.42
87.43
90.30
91.96
91.42
88.27
82.87
76.12
68.76
61.01
52.50
42.69
31.59
19.83
8.51
-1.39
-9.47
-15.88
-20.99
-24.92
-27.50
-28.39
-27.67
-26.01
-24.52
-24.16
-25.30
-27.63
-30.48
-33.37
-36.37
-39.91
-44.34
-49.30
-53.66
-55.86
-54.68
-49.78
-42.04
-32.90
-23.73
-15.26
-7.37
0.33
8.12
15.98
23.72
31.27
38.81
46.48
54.10
61.01
66.31
69.66
71.72
73.93
77.48
82.28
86.53
87.60
83.58
74.76
63.97
55.50
53.12
58.46
70.57
86.68
103.65
119.22
132.36
142.88
150.65
155.01
154.66
148.16
134.35
112.93
84.81
52.28
18.80
-11.53
-34.72
-47.88
-49.84
-41.49
-25.46
-5.43
14.71
31.66
43.34
49.19
49.93
46.94
41.48
33.98
23.78
9.62
-9.57
-33.68
-60.90
-88.09
-111.77
-129.26
-139.51
-143.22
-142.33
-139.25
-136.02
-133.70
-132.17
-130.29
-126.29
-118.51
-105.98
-88.92
-68.69
-47.35
-26.96
-8.91
6.28
18.78
28.93
36.91
42.47
45.13
44.52
40.63
34.05
25.84
17.28
9.48
3.11
-1.74
-5.57
-9.27
-13.83
-19.83
-26.93
-33.90
-38.86
-40.06
-36.36
-27.66
-14.85
0.56
16.80
32.20
45.23
54.70
59.87
60.70
57.90
52.70
46.46
40.21
34.50
29.54
25.35
21.79
18.38
14.14
7.65
-2.38
-16.43
-33.68
-52.07
-69.02
-82.37
-91.12
-95.56
-96.82
-96.18
-94.58
-92.49
-90.01
-87.19
-84.08
-80.75
-76.94
-72.19
-65.92
-57.79
-47.79
-36.22
-23.58
-10.37
2.84
15.48
26.83
36.19
43.18
47.99
51.37
54.29
57.53
61.29
65.24
68.69
71.00
71.75
70.88
68.61
65.28
61.34
56.99
52.23
46.74
40.01
31.69
21.81
10.89
-0.20
-10.56
-19.64
-27.30
-33.79
-39.58
-45.15
-50.84
-56.74
-62.70
-68.20
-72.46
-74.57
-73.77
-69.69
-62.51
-52.96
-42.15
-31.42
-22.01
-14.82
-10.21
-7.78
-6.53
-5.09
-2.22
2.78
9.95
18.63
27.83
36.45
43.55
48.43
50.67
50.31
47.89
44.40
41.04
38.80
38.10
38.59
39.29
38.93
36.46
31.46
24.30
16.00
7.86
1.06
-3.78
-6.75
-8.52
-10.01
-12.05
-15.11
-19.15
-23.80
-28.55
-32.80
-36.11
-38.21
-39.03
-38.90
-38.42
-38.25
-38.88
-40.32
-42.07
-43.19
-42.68
-39.82
-34.37
-26.63
-17.04
-6.01
6.24
19.72
34.50
50.53
67.38
84.17
99.53
111.78
119.11
120.03
113.84
100.86
82.62
61.55
40.41
21.70
7.05
-2.99
-8.85
-11.51
-12.13
-11.68
-10.69
-9.19
-6.86
-3.34
1.44
6.89
11.80
14.48
13.49
8.23
-0.62
-11.22
-21.18
-28.48
-32.26
-32.99
-32.18
-31.59
-32.50
-35.20
-39.26
-43.81
-48.24
-52.35
-56.24
-60.08
-63.79
-67.13
-69.81
-71.63
-72.44
-71.98
-69.74
-65.13
-57.99
-48.86
-38.98
-29.74
-22.18
-16.43
-12.01
-8.24
-4.70
-1.40
1.71
5.05
9.44
15.58
23.49
32.15
39.85
44.95
46.63
45.31
42.46
39.81
38.70
39.54
41.83
44.41
46.06
45.83
43.49
39.53
34.91
30.76
27.82
26.23
25.56
25.06
23.93
21.64
18.07
13.44
8.22
2.96
-1.87
-5.98
-9.22
-11.72
-13.64
-15.15
-16.40
-17.45
-18.39
-19.36
-20.54
-21.87
-23.12
-23.91
-23.89
-23.15
-22.07
-21.20
-20.87
-20.95
-20.85
-19.80
-17.28
-13.35
-8.62
-3.86
0.51
4.52
8.66
13.52
19.48
26.61
34.80
43.80
53.41
63.11
71.80
77.84
79.49
75.68
66.65
54.11
40.54
28.27
18.51
11.14
5.12
-0.76
-7.14
-13.93
-20.47
-25.98
-29.85
-31.74
-31.67
-29.97
-27.32
-24.56
-22.38
-21.00
-20.27
-19.85
-19.65
-20.00
-21.40
-24.20
-28.18
-32.55
-36.33
-38.78
-39.65
-39.05
-37.16
-34.03
-29.70
-24.57
-19.62
-16.31
-16.01
-19.34
-25.64
-33.05
-39.14
-41.67
-39.41
-32.35
-21.60
-8.79
4.42
16.76
27.38
35.78
41.70
45.01
45.76
44.25
41.05
36.85
32.21
27.46
22.61
17.44
11.73
5.45
-1.07
-7.21
-12.24
-15.57
-16.99
-16.68
-15.17
-13.28
-11.88
-11.69
-13.18
-16.24
-20.31
-24.50
-27.89
-29.83
-30.19
-29.20
-27.26
-24.75
-21.80
-18.44
-14.75
-10.98
-7.49
-4.62
-2.63
-1.53
-1.31
-1.89
-3.18
-5.02
-7.16
-9.29
-11.15
-12.57
-13.49
-13.92
-13.67
-12.41
-9.65
-4.99
1.65
9.95
19.32
29.12
38.62
47.23
54.38
59.54
62.36
62.76
61.03
57.87
54.16
50.70
47.95
46.01
44.68
43.71
42.94
42.36
42.05
42.02
42.18
42.31
42.13
41.44
40.21
38.54
36.62
34.58
32.35
29.76
26.56
22.57
17.78
12.31
6.41
0.29
-5.93
-12.25
-18.76
-25.46
-32.28
-39.07
-45.54
-51.32
-56.00
-59.23
-60.82
-60.81
-59.55
-57.64
-55.72
-54.33
-53.59
-53.14
-52.21
-49.88
-45.41
-38.55
-29.60
-19.35
-8.89
0.71
8.63
14.36
17.74
18.87
18.06
15.75
12.48
8.83
5.33
2.36
0.21
-1.04
-1.34
-0.78
0.49
2.26
4.29
6.34
8.20
9.76
10.94
11.72
12.09
12.03
11.54
10.72
9.76
8.93
8.44
8.28
8.14
7.53
5.94
3.06
-1.09
-6.11
-11.31
-16.04
-19.90
-22.94
-25.57
-28.43
-32.01
-36.41
-41.17
-45.36
-47.87
-47.80
-44.78
-39.09
-31.52
-23.03
-14.55
-6.75
0.04
5.75
10.46
14.34
17.58
20.35
22.80
25.00
26.91
28.45
29.48
29.87
29.56
28.59
27.09
25.28
23.48
21.99
21.03
20.60
20.52
20.41
19.91
18.75
16.85
14.39
11.68
9.05
6.72
4.80
3.24
1.87
0.47
-1.21
-3.35
-5.98
-8.99
-12.15
-15.18
-17.90
-20.35
-22.65
-25.01
-27.56
-30.45
-33.72
-37.35
-41.11
-44.46
-46.65
-46.72
-44.02
-38.38
-30.36
-20.99
-11.47
-2.83
4.41
10.17
14.72
18.47
21.77
24.88
27.86
30.63
33.05
34.97
36.30
37.07
37.37
37.28
36.84
36.00
34.77
33.22
31.52
29.85
28.35
27.01
25.65
24.14
22.34
20.20
17.87
15.49
13.17
10.99
8.90
6.81
4.66
2.45
0.19
-2.04
-4.19
-6.31
-8.42
-10.60
-12.93
-15.46
-18.15
-20.99
-23.85
-26.56
-28.97
-30.94
-32.55
-34.04
-35.82
-38.19
-41.32
-44.92
-48.34
-50.63
-50.83
-48.36
-43.18
-35.87
-27.41
-18.85
-10.96
-4.12
1.62
6.52
10.72
14.39
17.60
20.46
23.06
25.48
27.80
29.91
31.73
33.11
34.01
34.40
34.35
33.96
33.39
32.92
32.71
32.90
33.45
34.07
34.40
34.08
32.96
31.09
28.75
26.13
23.36
20.39
17.05
13.21
8.91
4.33
-0.26
-4.61
-8.60
-12.19
-15.40
-18.31
-21.00
-23.61
-26.42
-29.69
-33.54
-37.76
-41.76
-44.61
-45.37
-43.38
-38.56
-31.48
-23.07
-14.39
-6.35
0.55
6.08
10.24
13.15
14.97
15.92
16.29
16.49
16.78
17.36
18.21
19.20
20.14
20.87
21.39
21.77
22.11
22.45
22.68
22.68
22.28
21.44
20.27
18.88
17.40
15.85
14.18
12.29
10.21
8.01
5.91
4.07
2.55
1.24
-0.11
-1.80
-4.05
-6.97
-10.51
-14.49
-18.69
-22.86
-26.82
-30.47
-33.82
-37.02
-40.31
-43.94
-47.98
-52.12
-55.71
-57.82
-57.59
-54.49
-48.57
-40.42
-31.01
-21.33
-12.15
-3.94
3.17
9.23
14.37
18.76
22.56
25.89
28.80
31.29
33.29
34.73
35.57
35.82
35.53
34.79
33.69
32.32
30.86
29.45
28.22
27.18
26.19
25.02
23.49
21.53
19.16
16.62
14.18
12.10
10.50
9.30
8.29
7.15
5.69
3.79
1.54
-0.85
-3.11
-5.06
-6.72
-8.29
-10.04
-12.23
-14.93
-18.03
-21.28
-24.43
-27.35
-30.15
-33.09
-36.44
-40.35
-44.77
-49.44
-53.94
-57.70
-60.00
-60.14
-57.55
-52.05
-43.89
-33.85
-23.03
-12.58
-3.42
3.97
9.59
13.75
16.90
19.47
21.77
23.98
26.21
28.45
30.61
32.56
34.02
34.79
34.77
34.05
32.90
31.64
30.59
29.85
29.32
28.71
27.71
26.12
23.90
21.18
18.22
15.33
12.70
10.41
8.35
6.34
4.22
1.87
-0.65
-3.13
-5.34
-7.15
-8.62
-9.97
-11.50
-13.45
-15.92
-18.82
-21.90
-24.89
-27.57
-29.82
-31.65
-33.19
-34.69
-36.43
-38.66
-41.45
-44.61
-47.60
-49.54
-49.54
-46.91
-41.45
-33.51
-23.90
-13.68
-3.95
4.51
11.35
16.53
20.27
22.94
24.86
26.30
27.44
28.37
29.12
29.72
30.15
30.34
30.24
29.78
28.99
27.96
26.81
25.63
24.45
23.18
21.69
19.86
17.65
15.10
12.34
9.57
7.00
4.77
2.88
1.20
-0.54
-2.63
-5.25
-8.38
-11.73
-14.92
-17.56
-19.47
-20.75
-21.76
-22.99
-24.90
-27.67
-31.15
-34.71
-37.42
-38.24
-36.32
-31.24
-23.25
-13.13
-2.07
8.60
17.77
24.73
29.33
31.83
32.78
32.72
32.13
31.26
30.19
28.93
27.56
26.34
25.50
25.25
25.66
26.64
27.97
29.40
30.70
31.63
32.07
31.86
30.87
28.99
26.17
22.44
17.96
13.07
8.15
3.70
-0.01
-3.02
-5.64
-8.39
-11.71
-15.80
-20.50
-25.44
-30.14
-34.28
-37.77
-40.69
-43.31
-45.89
-48.66
-51.78
-55.34
-59.14
-62.69
-65.21
-65.67
-63.21
-57.37
-48.31
-36.92
-24.50
-12.45
-1.89
6.52
12.76
17.14
20.22
22.55
24.48
26.18
27.71
29.00
30.02
30.79
31.30
31.61
31.76
31.72
31.54
31.28
31.01
30.87
30.85
30.79
30.42
29.47
27.79
25.40
22.49
19.32
16.14
13.11
10.23
7.48
4.82
2.29
-0.09
-2.34
-4.56
-7.00
-9.86
-13.37
-17.49
-22.01
-26.56
-30.76
-34.39
-37.48
-40.27
-43.13
-46.47
-50.49
-55.11
-59.87
-63.91
-66.16
-65.50
-61.23
-53.24
-42.20
-29.36
-16.20
-4.10
6.05
13.95
19.82
24.10
27.28
29.76
31.73
33.33
34.51
35.21
35.35
34.88
33.80
32.17
30.10
27.78
25.43
23.26
21.46
20.08
19.13
18.50
18.06
17.65
17.12
16.43
15.55
14.55
13.48
12.32
11.00
9.43
7.55
5.37
2.99
0.53
-1.95
-4.51
-7.28
-10.40
-13.85
-17.56
-21.26
-24.70
-27.67
-30.10
-32.15
-34.11
-36.36
-39.16
-42.57
-46.31
-49.58
-51.34
-50.47
-46.25
-38.61
-28.18
-16.13
-3.78
7.71
17.68
25.87
32.41
37.50
41.40
44.30
46.36
47.75
48.67
49.37
50.11
51.13
52.67
54.87
57.70
61.07
64.75
68.44
71.76
74.29
75.62
75.38
73.22
68.94
62.50
54.04
43.84
32.28
19.78
6.82
-6.13
-18.61
-30.16
-40.44
-49.30
-56.81
-63.31
-69.28
-75.20
-81.31
-87.56
-93.42
-98.01
-100.37
-99.67
-95.52
-88.11
-78.21
-66.90
-55.29
-44.22
-34.14
-25.11
-16.99
-9.58
-2.75
3.48
9.06
13.93
18.06
21.49
24.30
26.59
28.44
29.89
30.94
31.67
32.17
32.57
32.91
33.11
32.94
32.12
30.43
27.84
24.61
21.11
17.75
14.77
12.13
9.57
6.76
3.41
-0.53
-4.82
-9.09
-13.00
-16.38
-19.42
-22.58
-26.36
-31.12
-36.81
-42.87
-48.32
-51.93
-52.52
-49.37
-42.39
-32.28
-20.31
-8.07
3.09
12.34
19.57
25.23
29.98
34.38
38.65
42.69
46.16
48.73
50.15
50.39
49.55
47.80
45.33
42.37
39.14
35.89
32.92
30.46
28.67
27.60
27.07
26.81
26.47
25.81
24.71
23.26
21.66
20.11
18.76
17.55
16.31
14.83
12.98
10.79
8.46
6.18
4.07
2.15
0.26
-1.80
-4.11
-6.62
-9.19
-11.61
-13.88
-16.07
-18.37
-21.01
-24.09
-27.59
-31.37
-35.17
-38.79
-42.04
-44.85
-47.24
-49.39
-51.58
-54.19
-57.52
-61.61
-66.02
-69.86
-71.82
-70.74
-65.86
-57.19
-45.55
-32.33
-19.05
-6.94
3.24
11.32
17.58
22.47
26.59
30.37
34.10
37.78
41.25
44.15
46.22
47.27
47.34
46.67
45.57
44.36
43.24
42.28
41.45
40.68
39.92
39.04
37.87
36.23
34.01
31.25
28.24
25.30
22.74
20.62
18.79
17.00
15.06
12.99
10.97
9.24
7.85
6.68
5.43
3.76
1.49
-1.40
-4.73
-8.27
-11.81
-15.28
-18.66
-22.00
-25.33
-28.60
-31.65
-34.36
-36.66
-38.59
-40.38
-42.35
-44.82
-48.01
-51.96
-56.41
-60.78
-64.26
-65.90
-64.89
-60.80
-53.75
-44.47
-34.05
-23.67
-14.23
-6.13
0.68
6.50
11.63
16.28
20.52
24.34
27.77
30.76
33.21
34.95
35.75
35.48
34.21
32.25
30.09
28.21
26.97
26.44
26.46
26.70
26.83
26.58
25.80
24.43
22.53
20.18
17.51
14.70
11.93
9.39
7.13
5.02
2.84
0.38
-2.43
-5.45
-8.40
-11.05
-13.34
-15.39
-17.42
-19.65
-22.13
-24.80
-27.53
-30.31
-33.16
-36.04
-38.67
-40.38
-40.39
-37.97
-32.92
-25.62
-17.00
-8.19
-0.15
6.58
11.94
16.16
19.52
22.19
24.25
25.64
26.38
26.52
26.16
25.48
24.64
23.81
23.03
22.33
21.67
21.06
20.58
20.41
20.71
21.56
22.84
24.31
25.57
26.24
26.09
25.12
23.48
21.43
19.25
17.07
14.87
12.56
10.01
7.17
4.16
1.04
-2.13
-5.48
-9.26
-13.63
-18.49
-23.25
-27.04
-28.92
-28.32
-25.22
-20.18
-14.14
-8.06
-2.62
1.84
5.25
7.73
9.32
10.09
10.17
9.69
8.94
8.25
7.85
7.71
7.70
7.54
7.07
6.42
5.81
5.61
5.99
6.91
8.03
8.87
8.90
7.66
4.96
0.80
-4.59
-10.76
-17.26
-23.71
-29.83
-35.61
-41.15
-46.63
-52.23
-58.07
-64.14
-70.22
-75.85
-80.29
-82.72
-82.46
-79.14
-73.00
-64.78
-55.50
-46.25
-37.78
-30.49
-24.34
-19.09
-14.39
-9.95
-5.59
-1.30
2.80
6.55
9.83
12.68
15.29
17.97
20.91
24.17
27.57
30.88
33.83
36.33
38.39
40.03
41.18
41.73
41.50
40.45
38.65
36.23
33.31
29.95
26.16
22.03
17.85
13.97
10.75
8.33
6.64
5.34
4.09
2.67
0.98
-0.85
-2.81
-4.91
-7.28
-10.00
-13.10
-16.42
-19.76
-22.93
-25.87
-28.68
-31.53
-34.69
-38.31
-42.30
-46.30
-49.55
-51.13
-50.08
-45.81
-38.27
-28.03
-16.05
-3.37
9.10
20.74
31.12
40.01
47.30
53.05
57.58
61.36
64.82
68.18
71.33
73.84
75.25
75.17
73.50
70.39
66.20
61.34
56.20
51.10
46.24
41.68
37.33
33.03
28.67
24.20
19.72
15.34
11.21
7.41
3.94
0.72
-2.38
-5.46
-8.50
-11.42
-14.03
-16.13
-17.54
-18.26
-18.44
-18.42
-18.60
-19.30
-20.72
-22.84
-25.45
-28.27
-31.05
-33.59
-35.72
-37.47
-38.93
-40.32
-41.91
-43.99
-46.74
-50.13
-53.80
-57.08
-59.10
-58.98
-56.14
-50.36
-41.95
-31.64
-20.43
-9.33
0.76
9.24
15.96
21.10
25.09
28.49
31.71
34.91
37.94
40.46
42.10
42.72
42.36
41.26
39.72
38.02
36.40
34.95
33.74
32.76
32.00
31.41
30.90
30.34
29.53
28.37
26.81
24.93
22.85
20.71
18.57
16.44
14.29
12.11
10.01
8.10
6.47
5.09
3.79
2.33
0.55
-1.61
-4.07
-6.65
-9.19
-11.59
-13.82
-15.95
-18.03
-20.12
-22.24
-24.35
-26.37
-28.21
-29.73
-30.94
-31.95
-33.04
-34.54
-36.73
-39.67
-43.14
-46.51
-48.90
-49.37
-47.18
-42.01
-34.16
-24.48
-14.16
-4.46
3.72
9.92
14.26
17.20
19.38
21.38
23.49
25.87
28.38
30.82
32.89
34.34
34.97
34.73
33.70
32.10
30.28
28.50
27.03
25.97
25.33
24.97
24.73
24.45
24.03
23.44
22.65
21.62
20.32
18.68
16.74
14.54
12.23
9.95
7.73
5.54
3.25
0.79
-1.83
-4.50
-7.04
-9.34
-11.34
-13.08
-14.64
-16.05
-17.39
-18.80
-20.40
-22.29
-24.49
-26.86
-29.16
-31.16
-32.78
-34.19
-35.74
-37.85
-40.74
-44.24
-47.76
-50.36
-51.05
-49.08
-44.23
-36.90
-27.94
-18.41
-9.29
-1.27
5.37
10.67
14.93
18.56
21.91
25.17
28.38
31.38
33.91
35.69
36.48
36.20
34.98
33.11
31.04
29.16
27.74
26.76
26.02
25.21
24.07
22.55
20.76
18.89
17.04
15.22
13.39
11.52
9.67
7.95
6.50
5.37
4.49
3.70
2.82
1.72
0.42
-1.07
-2.63
-4.22
-5.86
-7.68
-9.82
-12.38
-15.35
-18.58
-21.83
-24.82
-27.33
-29.29
-30.76
-31.93
-33.10
-34.56
-36.58
-39.24
-42.36
-45.45
-47.74
-48.44
-46.88
-42.79
-36.34
-28.17
-19.22
-10.42
-2.55
3.94
8.89
12.43
14.73
16.11
16.85
17.28
17.72
18.41
19.46
20.86
22.46
24.05
25.48
26.69
27.66
28.47
29.09
29.51
29.67
29.57
29.27
28.81
28.18
27.29
26.08
24.43
22.43
20.24
18.10
16.13
14.35
12.58
10.58
8.21
5.40
2.30
-0.91
-4.12
-7.34
-10.62
-14.00
-17.38
-20.50
-23.12
-25.05
-26.34
-27.26
-28.18
-29.49
-31.52
-34.32
-37.78
-41.45
-44.70
-46.73
-46.90
-44.74
-40.29
-34.03
-26.75
-19.38
-12.68
-7.21
-3.16
-0.48
1.12
2.01
2.60
3.15
3.74
4.31
4.66
4.72
4.50
4.10
3.67
3.30
3.00
2.66
2.20
1.61
0.91
0.13
-0.76
-1.76
-2.81
-3.67
-4.06
-3.66
-2.39
-0.48
1.63
3.33
4.26
4.21
3.39
2.12
0.78
-0.39
-1.34
-2.15
-3.03
-4.14
-5.70
-7.84
-10.63
-13.94
-17.49
-20.74
-23.08
-23.92
-22.85
-19.81
-15.14
-9.54
-3.78
1.39
5.55
8.65
10.91
12.77
14.60
16.70
19.08
21.69
24.34
26.88
29.17
31.10
32.62
33.78
34.70
35.49
36.22
36.82
37.03
36.60
35.23
32.88
29.73
26.16
22.59
19.29
16.33
13.47
10.33
6.42
1.37
-5.06
-12.90
-22.03
-32.10
-42.59
-52.88
-62.30
-70.39
-76.90
-81.82
-85.11
-86.50
-85.40
-81.06
-72.91
-60.93
-45.94
-29.34
-12.79
2.25
14.88
24.78
32.04
36.93
39.74
40.69
40.06
38.20
35.54
32.52
29.59
27.03
24.99
23.54
22.55
21.90
21.38
20.91
20.52
20.29
20.34
20.67
21.03
21.08
20.50
19.13
17.15
14.91
12.74
10.89
9.32
7.82
6.17
4.20
1.89
-0.70
-3.54
-6.60
-9.86
-13.28
-16.71
-19.98
-22.94
-25.59
-28.09
-30.81
-34.14
-38.27
-43.06
-47.88
-51.71
-53.47
-52.32
-47.92
-40.62
-31.26
-20.91
-10.62
-1.17
7.05
13.90
19.44
23.83
27.22
29.74
31.44
32.29
32.29
31.46
29.92
28.02
26.09
24.45
23.34
22.87
23.04
23.80
25.05
26.48
27.69
28.22
27.77
26.43
24.64
23.11
22.50
23.17
25.01
27.46
29.61
30.29
28.23
22.29
11.79
-3.07
-20.99
-39.81
-57.05
-70.74
-79.78
-84.08
-84.23
-81.01
-75.15
-67.36
-58.54
-49.85
-42.51
-37.40
-34.54
-33.08
-31.66
-28.93
-24.33
-18.14
-11.37
-5.17
-0.40
2.84
5.06
7.16
9.89
13.65
18.32
23.47
28.52
33.02
36.75
39.73
42.13
44.06
45.53
46.38
46.50
45.89
44.83
43.82
43.38
43.74
44.69
45.58
45.60
44.20
41.27
37.33
33.26
30.01
28.31
28.38
29.84
31.73
32.56
30.59
24.17
12.24
-5.20
-26.81
-50.15
-72.28
-90.62
-103.76
-111.68
-115.26
-115.51
-112.83
-106.68
-96.13
-80.64
-60.82
-38.53
-16.36
3.33
19.16
30.91
39.18
44.88
48.66
50.74
51.13
49.92
47.53
44.63
41.98
40.14
39.29
39.14
39.13
38.61
37.28
35.20
32.81
30.69
29.28
28.63
28.45
28.20
27.40
25.82
23.48
20.61
17.48
14.22
10.95
7.65
4.37
1.31
-1.45
-3.82
-5.88
-7.91
-10.20
-13.00
-16.33
-20.03
-23.74
-27.20
-30.27
-33.04
-35.74
-38.64
-41.99
-45.80
-49.89
-53.69
-56.45
-57.25
-55.28
-50.24
-42.44
-32.83
-22.64
-13.11
-5.07
1.08
5.48
8.54
10.71
12.46
14.07
15.84
17.87
20.15
22.46
24.48
25.89
26.44
26.16
25.32
24.39
23.85
23.98
24.84
26.19
27.76
29.22
30.35
31.05
31.29
31.19
30.91
30.75
30.95
31.72
32.99
34.45
35.49
35.41
33.73
30.23
25.19
19.10
12.62
6.26
0.37
-4.93
-9.64
-13.78
-17.44
-20.73
-23.82
-26.88
-30.10
-33.55
-37.15
-40.75
-44.11
-47.08
-49.70
-52.22
-54.97
-58.11
-61.51
-64.43
-65.96
-65.14
-61.55
-55.42
-47.66
-39.41
-31.59
-24.57
-18.19
-12.03
-5.60
1.62
10.08
20.19
31.95
44.77
57.22
67.36
73.36
74.22
70.29
63.07
54.61
46.63
40.11
35.16
31.45
28.62
26.51
25.12
24.37
24.03
23.56
22.57
20.81
18.39
15.67
13.01
10.62
8.42
6.12
3.33
-0.18
-4.43
-9.10
-13.68
-17.64
-20.60
-22.51
-23.58
-24.25
-24.91
-25.86
-27.21
-28.87
-30.73
-32.63
-34.47
-36.24
-38.03
-39.96
-42.20
-44.88
-47.90
-51.02
-53.66
-55.10
-54.53
-51.38
-45.38
-36.83
-26.49
-15.36
-4.59
5.01
12.94
19.08
23.65
26.99
29.46
31.38
33.03
34.50
35.82
36.90
37.54
37.62
37.06
35.90
34.32
32.53
30.71
28.97
27.36
25.92
24.72
23.80
23.11
22.53
21.91
21.07
19.91
18.46
16.75
14.86
12.78
10.45
7.84
4.96
1.96
-0.88
-3.26
-4.97
-5.92
-6.20
-6.08
-5.88
-5.95
-6.52
-7.68
-9.37
-11.46
-13.80
-16.36
-19.22
-22.52
-26.33
-30.48
-34.48
-37.57
-39.03
-38.51
-36.16
-32.58
-28.56
-24.76
-21.40
-18.35
-15.16
-11.35
-6.54
-0.57
6.53
14.51
22.93
31.04
38.03
43.27
46.44
47.69
47.53
46.60
45.40
44.14
42.62
40.42
37.18
32.77
27.39
21.68
16.46
12.50
10.40
10.29
11.78
14.00
15.76
15.83
13.37
8.14
0.60
-8.26
-17.26
-25.40
-32.05
-37.03
-40.33
-42.00
-42.05
-40.48
-37.32
-32.75
-27.17
-21.09
-15.21
-10.18
-6.63
-4.95
-5.04
-6.14
-7.12
-6.94
-5.16
-2.27
0.55
1.85
0.60
-3.46
-9.74
-17.22
-24.70
-31.24
-36.11
-38.81
-39.08
-36.88
-32.51
-26.58
-19.91
-13.25
-7.13
-1.85
2.59
6.33
9.66
12.83
16.04
19.39
22.78
25.98
28.63
30.41
31.08
30.71
29.50
27.77
25.87
23.93
21.95
19.78
17.30
14.43
11.41
8.53
6.14
4.46
3.42
2.75
2.02
0.87
-0.98
-3.53
-6.70
-10.33
-14.19
-18.04
-21.61
-24.73
-27.38
-29.73
-32.10
-34.86
-38.18
-41.86
-45.33
-47.67
-47.97
-45.52
-40.16
-32.35
-23.09
-13.67
-5.22
1.50
6.40
9.93
12.83
15.80
19.21
23.05
26.99
30.58
33.41
35.31
36.32
36.59
36.30
35.49
34.24
32.57
30.61
28.47
26.30
24.18
22.10
19.98
17.71
15.25
12.65
10.00
7.39
4.90
2.49
0.11
-2.36
-4.93
-7.52
-9.97
-12.08
-13.74
-14.93
-15.82
-16.64
-17.67
-19.10
-20.98
-23.17
-25.52
-27.82
-30.05
-32.32
-34.91
-37.96
-41.35
-44.54
-46.58
-46.45
-43.42
-37.35
-28.87
-19.22
-9.88
-2.21
2.86
5.13
5.02
3.47
1.67
0.73
1.46
4.08
8.34
13.60
19.13
24.39
29.04
32.96
36.08
38.34
39.59
39.55
38.00
34.86
30.42
25.47
21.10
18.31
17.77
19.33
22.19
25.19
27.30
27.98
27.24
25.48
23.04
20.14
16.73
12.65
7.80
2.22
-3.83
-9.94
-15.71
-20.89
-25.43
-29.56
-33.65
-37.97
-42.46
-46.55
-49.33
-49.88
-47.67
-42.76
-35.78
-27.65
-19.26
-11.25
-3.96
2.50
8.18
13.10
17.35
20.99
24.15
26.85
28.98
30.40
30.92
30.51
29.27
27.55
25.74
24.21
23.12
22.41
21.97
21.61
21.24
20.80
20.24
19.39
18.07
16.11
13.54
10.56
7.51
4.72
2.40
0.57
-0.94
-2.42
-4.15
-6.35
-9.15
-12.53
-16.29
-20.12
-23.72
-26.85
-29.49
-31.77
-33.94
-36.35
-39.26
-42.77
-46.69
-50.51
-53.35
-54.19
-52.17
-46.99
-39.04
-29.35
-19.22
-9.84
-1.88
4.54
9.70
14.02
17.80
21.09
23.89
26.13
27.84
29.15
30.17
30.96
31.53
31.80
31.65
31.09
30.20
29.15
28.16
27.32
26.62
25.89
24.88
23.33
21.15
18.32
15.02
11.52
8.15
5.22
2.94
1.36
0.32
-0.48
-1.43
-2.85
-4.74
-7.00
-9.29
-11.40
-13.26
-15.08
-17.18
-19.98
-23.79
-28.57
-34.06
-39.61
-44.34
-47.28
-47.63
-44.86
-39.03
-30.70
-20.79
-10.45
-0.63
8.01
15.12
20.67
24.86
27.88
29.89
31.04
31.39
31.08
30.27
29.08
27.64
26.03
24.33
22.62
21.09
19.95
19.41
19.52
20.13
20.79
20.94
20.12
18.08
15.00
11.33
7.71
4.62
2.27
0.48
-1.19
-3.18
-5.76
-8.82
-12.05
-15.00
-17.41
-19.27
-20.89
-22.68
-25.11
-28.45
-32.68
-37.55
-42.41
-46.41
-48.55
-47.97
-44.14
-37.13
-27.70
-16.98
-6.32
3.17
10.91
16.81
21.14
24.33
26.72
28.41
29.38
29.56
29.09
28.32
27.69
27.53
27.97
28.89
29.95
30.88
31.45
31.59
31.28
30.60
29.54
28.10
26.32
24.15
21.63
18.78
15.58
12.05
8.30
4.51
0.85
-2.50
-5.47
-8.02
-10.23
-12.25
-14.29
-16.50
-19.01
-21.84
-24.93
-28.17
-31.43
-34.61
-37.79
-41.16
-44.98
-49.47
-54.58
-59.74
-64.03
-66.26
-65.45
-61.09
-53.39
-43.12
-31.49
-19.75
-8.78
0.80
8.85
15.41
20.64
24.72
27.75
29.86
31.15
31.85
32.19
32.42
32.62
32.64
32.22
31.09
29.12
26.55
23.89
21.74
20.62
20.67
21.63
22.95
23.96
23.92
22.22
18.36
12.19
4.18
-4.50
-12.17
-17.04
-17.96
-14.79
-8.41
-0.42
7.52
14.31
19.61
23.71
27.07
29.90
32.18
33.78
34.69
35.26
35.91
36.76
37.37
36.61
33.05
25.63
14.16
-0.53
-16.67
-32.19
-45.24
-54.43
-59.06
-59.09
-54.91
-47.30
-37.30
-25.85
-13.85
-1.89
9.64
20.57
30.61
39.45
46.57
51.45
53.81
53.66
51.30
47.23
41.91
35.60
28.56
21.04
13.49
6.63
1.09
-2.76
-5.04
-6.40
-7.58
-9.10
-10.99
-12.87
-14.14
-14.55
-14.28
-13.87
-13.95
-14.73
-15.85
-16.43
-15.49
-12.29
-6.65
0.86
9.04
16.21
20.55
20.42
14.68
3.13
-13.36
-32.81
-52.58
-69.87
-82.45
-89.16
-90.10
-86.42
-79.80
-71.93
-64.02
-56.64
-49.83
-43.43
-37.27
-31.40
-26.00
-21.35
-17.66
-14.92
-12.93
-11.30
-9.72
-7.98
-6.20
-4.63
-3.57
-3.19
-3.35
-3.75
-4.02
-3.95
-3.67
-3.56
-4.19
-5.98
-9.17
-13.66
-19.13
-25.01
-30.41
-33.98
-33.94
-28.66
-17.30
-0.65
18.88
37.72
52.42
60.83
62.55
58.76
51.15
41.17
29.53
16.74
3.48
-8.94
-18.79
-24.64
-25.94
-23.42
-18.66
-13.55
-9.46
-6.95
-5.70
-4.92
-3.78
-1.78
1.02
4.17
7.07
9.24
10.54
11.14
11.41
11.57
11.66
11.48
10.79
9.52
7.92
6.45
5.68
5.96
7.31
9.47
12.00
14.52
16.81
18.79
20.43
21.71
22.54
22.79
22.42
21.48
20.06
18.31
16.26
13.95
11.25
8.17
4.70
1.07
-2.41
-5.47
-7.89
-9.66
-11.01
-12.31
-14.00
-16.57
-20.30
-25.32
-31.50
-38.27
-44.67
-49.57
-51.95
-51.26
-47.69
-41.97
-35.19
-28.34
-22.01
-16.35
-11.12
-5.94
-0.46
5.57
12.24
19.57
27.43
35.52
43.35
50.21
55.27
57.83
57.51
54.44
49.27
42.97
36.56
30.82
26.19
22.68
20.09
18.11
16.55
15.29
14.34
13.68
13.28
13.08
12.89
12.60
12.06
11.18
9.96
8.38
6.50
4.36
2.13
-0.04
-1.90
-3.43
-4.78
-6.38
-8.90
-13.01
-19.02
-26.75
-35.53
-44.27
-51.90
-57.44
-60.17
-59.70
-55.95
-49.23
-40.13
-29.56
-18.44
-7.49
2.84
12.41
21.14
28.79
34.90
38.96
40.57
39.72
36.83
32.64
28.05
23.75
20.30
17.96
16.83
16.81
17.76
19.46
21.54
23.64
25.38
26.50
26.81
26.27
24.93
22.95
20.64
18.29
16.15
14.31
12.69
10.99
8.99
6.54
3.63
0.45
-2.88
-6.25
-9.71
-13.33
-17.22
-21.38
-25.79
-30.41
-35.24
-40.18
-44.99
-49.19
-52.10
-52.96
-51.20
-46.64
-39.52
-30.51
-20.52
-10.54
-1.32
6.69
13.40
19.08
24.10
28.76
33.19
37.27
40.73
43.40
45.20
46.24
46.68
46.65
46.11
44.95
43.07
40.46
37.35
34.08
30.96
28.21
25.79
23.44
20.86
17.87
14.51
11.07
7.89
5.20
3.05
1.16
-0.73
-2.77
-4.83
-6.66
-8.04
-8.88
-9.36
-9.73
-10.34
-11.37
-12.93
-15.06
-17.79
-21.10
-24.97
-29.29
-33.88
-38.60
-43.28
-47.83
-52.28
-56.74
-61.28
-65.87
-70.13
-73.28
-74.34
-72.41
-67.11
-58.82
-48.54
-37.57
-27.15
-18.03
-10.46
-4.27
0.87
5.31
9.30
13.01
16.54
19.86
22.88
25.54
27.77
29.54
30.78
31.49
31.67
31.45
31.04
30.70
30.65
30.86
31.18
31.25
30.81
29.74
28.13
26.15
24.06
22.03
20.12
18.42
16.89
15.45
13.84
11.86
9.28
6.19
2.79
-0.55
-3.44
-5.75
-7.54
-9.03
-10.41
-11.73
-12.93
-13.96
-14.86
-15.75
-16.93
-18.63
-20.95
-23.86
-27.18
-30.50
-33.31
-34.98
-34.92
-32.80
-28.60
-22.69
-15.71
-8.44
-1.47
4.82
10.28
15.01
19.05
22.55
25.47
27.75
29.30
30.17
30.55
30.66
30.79
30.98
31.09
30.81
29.85
28.17
26.03
23.88
22.11
20.89
20.00
19.00
17.56
15.54
13.16
10.85
8.97
7.64
6.77
6.03
5.07
3.71
1.87
-0.41
-3.06
-6.01
-9.14
-12.31
-15.39
-18.26
-20.84
-23.31
-25.87
-28.77
-32.16
-35.92
-39.72
-43.01
-45.25
-45.84
-44.40
-40.76
-35.10
-27.98
-20.18
-12.58
-5.89
-0.45
3.81
7.19
10.10
12.76
15.19
17.32
19.10
20.49
21.55
22.35
22.88
23.15
23.20
23.06
22.84
22.69
22.61
22.59
22.53
22.32
21.85
21.15
20.20
19.00
17.55
15.83
13.83
11.51
8.95
6.24
3.57
1.10
-1.11
-3.07
-4.88
-6.69
-8.62
-10.73
-13.03
-15.46
-17.93
-20.39
-22.76
-25.10
-27.51
-30.10
-33.04
-36.37
-40.15
-44.26
-48.45
-52.18
-54.78
-55.45
-53.51
-48.75
-41.49
-32.64
-23.32
-14.60
-7.12
-1.10
3.66
7.61
11.06
14.23
17.17
19.85
22.21
24.25
25.90
27.14
27.93
28.25
28.14
27.68
26.99
26.21
25.46
24.85
24.39
24.04
23.61
22.89
21.74
20.11
18.14
16.07
14.20
12.66
11.47
10.39
9.19
7.70
5.85
3.77
1.61
-0.44
-2.34
-4.11
-5.94
-7.99
-10.36
-13.09
-16.05
-19.08
-21.92
-24.41
-26.55
-28.47
-30.41
-32.66
-35.44
-38.87
-42.90
-47.10
-50.76
-52.95
-52.77
-49.68
-43.70
-35.47
-26.00
-16.43
-7.69
-0.33
5.46
9.85
13.17
15.79
18.00
20.00
21.77
23.15
24.02
24.33
24.20
23.76
23.16
22.45
21.66
20.82
20.09
19.61
19.51
19.83
20.35
20.78
20.86
20.40
19.31
17.69
15.61
13.26
10.86
8.65
6.83
5.51
4.54
3.56
2.17
0.06
-2.79
-6.13
-9.58
-12.81
-15.68
-18.27
-20.81
-23.55
-26.61
-29.90
-33.13
-35.79
-37.24
-36.81
-34.09
-28.95
-21.86
-13.60
-5.13
2.66
9.20
14.27
17.97
20.59
22.52
24.04
25.37
26.56
27.53
28.12
28.25
27.91
27.24
26.50
25.82
25.28
24.87
24.52
24.22
24.04
23.95
23.93
23.76
23.13
21.79
19.63
16.75
13.43
9.98
6.60
3.40
0.31
-2.83
-6.15
-9.65
-13.23
-16.73
-20.03
-23.13
-26.04
-28.84
-31.57
-34.27
-37.04
-40.05
-43.42
-47.02
-50.40
-52.68
-52.87
-50.27
-44.73
-36.86
-27.72
-18.50
-10.13
-3.09
2.65
7.40
11.56
15.45
19.19
22.79
26.22
29.34
31.96
33.87
34.89
34.96
34.19
32.84
31.27
29.88
28.95
28.54
28.58
28.93
29.40
29.84
30.09
29.95
29.25
27.78
25.51
22.55
19.13
15.60
12.24
9.25
6.61
4.19
1.76
-0.83
-3.63
-6.60
-9.67
-12.78
-15.87
-19.02
-22.27
-25.67
-29.20
-32.83
-36.60
-40.60
-44.89
-49.35
-53.58
-56.82
-58.15
-56.68
-51.97
-44.22
-34.26
-23.32
-12.66
-3.31
4.18
9.71
13.52
16.01
17.71
19.09
20.50
22.11
23.70
24.90
25.21
24.28
22.18
19.36
16.56
14.47
13.54
13.76
14.78
16.07
17.14
17.78
17.98
17.86
17.52
16.95
16.01
14.55
12.57
10.11
7.47
4.92
2.62
0.68
-1.01
-2.61
-4.30
-6.22
-8.54
-11.26
-14.34
-17.58
-20.79
-23.74
-26.35
-28.72
-31.04
-33.59
-36.62
-40.07
-43.70
-46.97
-49.17
-49.48
-47.34
-42.48
-35.16
-26.17
-16.57
-7.52
0.18
6.08
10.23
13.08
15.22
17.25
19.62
22.57
26.05
29.90
33.80
37.35
40.24
42.30
43.47
43.80
43.43
42.45
40.90
38.83
36.22
33.05
29.44
25.54
21.60
17.87
14.57
11.79
9.48
7.39
5.17
2.45
-1.02
-5.22
-9.94
-14.80
-19.37
-23.44
-27.06
-30.51
-34.18
-38.46
-43.44
-48.94
-54.31
-58.69
-61.07
-60.69
-57.25
-51.06
-42.99
-34.17
-25.64
-18.04
-11.59
-6.11
-1.31
2.98
6.81
10.01
12.49
14.17
15.08
15.35
15.09
14.47
13.68
12.94
12.43
12.32
12.61
13.23
14.03
14.86
15.54
15.90
15.80
15.12
13.82
11.90
9.49
6.77
3.95
1.25
-1.30
-3.76
-6.36
-9.32
-12.78
-16.71
-20.85
-24.77
-27.89
-29.63
-29.44
-26.99
-22.20
-15.41
-7.38
1.02
8.93
15.73
21.30
25.76
29.39
32.41
34.92
36.81
38.01
38.52
38.47
38.11
37.60
37.04
36.38
35.53
34.39
32.96
31.28
29.38
27.28
24.92
22.20
19.12
15.65
11.84
7.76
3.52
-0.78
-4.89
-8.66
-12.09
-15.34
-18.82
-22.97
-28.07
-34.12
-40.80
-47.51
-53.47
-57.88
-59.92
-59.07
-55.10
-48.33
-39.52
-29.72
-20.04
-11.28
-3.84
2.28
7.35
11.64
15.29
18.26
20.46
21.80
22.39
22.45
22.29
22.17
22.18
22.26
22.27
22.10
21.77
21.45
21.26
21.24
21.25
21.02
20.34
19.07
17.20
14.90
12.36
9.78
7.23
4.74
2.20
-0.48
-3.43
-6.73
-10.28
-13.89
-17.26
-20.24
-22.84
-25.39
-28.37
-32.32
-37.44
-43.44
-49.45
-54.18
-56.27
-54.76
-49.38
-40.61
-29.58
-17.66
-6.09
4.31
13.23
20.80
27.29
32.98
38.01
42.43
46.22
49.31
51.66
53.22
53.97
53.87
52.95
51.31
49.19
46.89
44.71
42.78
41.18
39.82
38.47
36.87
34.84
32.31
29.34
26.12
22.85
19.77
17.01
14.53
12.17
9.66
6.79
3.43
-0.44
-4.67
-9.06
-13.39
-17.57
-21.61
-25.66
-29.93
-34.57
-39.59
-44.79
-49.84
-54.35
-58.01
-60.74
-62.78
-64.61
-66.69
-69.17
-71.83
-73.90
-74.35
-72.17
-66.68
-57.90
-46.50
-33.60
-20.41
-7.95
3.09
12.42
20.05
26.16
30.97
34.68
37.48
39.62
41.35
42.90
44.37
45.67
46.64
47.09
46.94
46.22
45.16
44.04
43.14
42.53
42.09
41.66
40.96
39.91
38.49
36.83
35.05
33.30
31.56
29.77
27.80
25.60
23.19
20.67
18.20
15.84
13.69
11.78
10.06
8.46
6.76
4.73
2.19
-0.89
-4.49
-8.59
-13.31
-19.07
-26.40
-35.80
-47.37
-60.54
-74.17
-86.63
-96.33
-102.02
-103.14
-99.83
-92.96
-83.76
-73.57
-63.54
-54.33
-46.06
-38.35
-30.52
-21.85
-11.92
-0.72
11.26
23.07
33.62
41.98
47.67
50.73
51.71
51.30
50.16
48.72
47.11
45.35
43.49
41.62
39.89
38.28
36.63
34.68
32.21
29.11
25.54
21.82
18.38
15.55
13.40
11.79
10.35
8.63
6.20
2.88
-1.19
-5.64
-9.98
-13.85
-17.19
-20.16
-23.09
-26.25
-29.69
-33.38
-37.29
-41.47
-46.01
-50.80
-55.33
-58.71
-59.93
-58.26
-53.66
-46.67
-38.09
-28.53
-18.11
-6.67
5.87
19.13
31.97
42.89
50.53
54.23
54.28
51.63
47.54
43.06
38.82
35.01
31.60
28.54
25.92
23.86
22.45
21.66
21.26
20.91
20.28
19.19
17.62
15.68
13.53
11.37
9.29
7.27
5.27
3.15
0.85
-1.74
-4.65
-7.80
-11.13
-14.43
-17.59
-20.45
-22.98
-25.21
-27.26
-29.29
-31.45
-33.98
-36.99
-40.41
-43.80
-46.37
-47.15
-45.33
-40.61
-33.32
-24.49
-15.35
-7.07
-0.27
4.90
8.73
11.67
14.16
16.52
18.92
21.52
24.23
26.93
29.37
31.25
32.44
32.88
32.79
32.42
32.05
31.77
31.61
31.47
31.21
30.71
29.80
28.36
26.26
23.55
20.37
17.04
13.89
11.15
8.92
7.10
5.54
4.09
2.72
1.45
0.38
-0.49
-1.33
-2.31
-3.70
-5.59
-7.98
-10.67
-13.44
-16.17
-18.87
-21.74
-24.95
-28.64
-32.81
-37.31
-41.98
-46.61
-50.93
-54.52
-56.84
-57.19
-55.15
-50.74
-44.55
-37.58
-30.95
-25.38
-21.02
-17.56
-14.30
-10.71
-6.60
-2.19
2.07
5.72
8.54
10.60
12.16
13.58
15.12
16.88
18.80
20.74
22.54
24.14
25.48
26.60
27.52
28.29
28.99
29.68
30.46
31.25
31.90
32.01
31.14
28.81
24.78
19.13
12.28
4.85
-2.51
-9.26
-15.04
-19.59
-22.78
-24.61
-25.23
-25.05
-24.62
-24.59
-25.42
-27.24
-29.88
-32.86
-35.54
-37.16
-37.12
-34.95
-30.53
-24.14
-16.40
-8.17
-0.34
6.43
11.87
15.96
18.94
21.02
22.30
22.86
22.70
22.01
21.07
20.28
19.90
20.04
20.56
21.17
21.58
21.64
21.34
20.85
20.38
20.03
19.82
19.67
19.35
18.67
17.46
15.72
13.58
11.33
9.31
7.82
7.09
7.12
7.75
8.61
9.29
9.33
8.43
6.41
3.32
-0.63
-5.20
-10.19
-15.41
-20.77
-26.14
-31.28
-35.80
-39.14
-40.69
-40.03
-37.07
-32.13
-25.91
-19.33
-13.15
-7.91
-3.77
-0.64
1.70
3.44
4.85
6.13
7.45
8.94
10.59
12.24
13.68
14.74
15.38
15.70
15.85
15.98
16.17
16.41
16.59
16.62
16.33
15.65
14.60
13.33
12.03
10.89
9.98
9.24
8.47
7.43
5.94
3.95
1.63
-0.86
-3.27
-5.55
-7.75
-10.01
-12.50
-15.29
-18.29
-21.32
-24.14
-26.58
-28.70
-30.72
-32.96
-35.73
-39.17
-43.08
-47.02
-50.23
-51.90
-51.31
-48.08
-42.31
-34.55
-25.70
-16.69
-8.28
-0.83
5.67
11.49
16.89
22.02
26.75
30.86
34.05
36.10
36.99
36.78
35.68
33.94
31.79
29.43
27.11
25.03
23.32
22.03
21.12
20.46
19.92
19.28
18.36
16.99
15.06
12.49
9.30
5.51
1.18
-3.51
-8.31
-12.85
-16.69
-19.52
-21.25
-22.00
-22.12
-21.98
-21.80
-21.64
-21.40
-20.98
-20.44
-19.96
-19.78
-20.18
-21.33
-23.30
-26.02
-29.27
-32.47
-34.82
-35.29
-33.00
-27.58
-19.40
-9.50
0.69
9.81
16.93
21.64
24.06
24.68
24.06
22.81
21.43
20.26
19.41
18.87
18.47
18.12
17.83
17.65
17.69
17.96
18.36
18.74
19.00
19.12
19.09
18.95
18.61
17.93
16.78
15.07
12.91
10.55
8.23
6.07
4.10
2.14
0.04
-2.26
-4.76
-7.28
-9.69
-11.86
-13.81
-15.59
-17.32
-19.07
-20.90
-22.90
-25.12
-27.55
-29.92
-31.69
-32.06
-30.33
-26.16
-19.82
-12.11
-4.11
3.21
9.28
13.92
17.33
19.74
21.43
22.56
23.28
23.68
23.72
23.34
22.44
21.01
19.24
17.50
16.10
15.23
14.89
14.81
14.74
14.49
13.95
13.11
11.91
10.19
7.81
4.81
1.40
-1.92
-4.71
-6.70
-7.83
-8.24
-8.31
-8.35
-8.61
-9.31
-10.54
-12.32
-14.62
-17.30
-20.16
-23.06
-25.92
-28.75
-31.74
-35.03
-38.69
-42.62
-46.37
-49.30
-50.59
-49.49
-45.60
-39.02
-30.37
-20.59
-10.77
-1.66
6.36
13.33
19.53
25.22
30.41
35.07
39.14
42.58
45.66
48.65
51.71
54.80
57.65
59.93
61.54
62.56
63.24
63.77
64.10
63.83
62.59
60.05
56.25
51.54
46.37
41.18
36.25
31.71
27.56
23.82
20.54
17.78
15.66
14.21
13.40
13.03
12.73
12.05
10.65
8.40
5.38
1.86
-1.95
-6.03
-10.62
-16.10
-22.80
-30.80
-40.01
-50.10
-60.53
-70.61
-79.33
-85.54
-88.15
-86.46
-80.59
-71.63
-61.36
-51.77
-44.42
-40.00
-38.25
-38.18
-38.54
-38.12
-36.08
-32.01
-25.88
-18.18
-9.86
-2.34
2.85
4.38
1.72
-4.56
-12.94
-21.29
-27.77
-31.21
-31.54
-29.48
-25.98
-21.75
-17.01
-11.58
-5.31
1.59
8.59
14.88
19.79
22.97
24.45
24.53
23.52
21.55
18.61
14.62
9.57
3.60
-2.93
-9.61
-15.94
-21.50
-26.01
-29.34
-31.51
-32.79
-33.65
-34.62
-36.23
-38.67
-41.72
-44.71
-46.68
-46.68
-44.06
-38.63
-30.78
-21.32
-11.27
-1.66
6.75
13.51
18.55
22.11
24.70
26.83
28.98
31.39
34.11
37.06
40.05
42.83
45.14
46.76
47.52
47.38
46.39
44.77
42.82
40.81
38.84
36.88
34.78
32.34
29.47
26.25
22.86
19.53
16.46
13.66
10.99
8.25
5.23
1.84
-1.80
-5.59
-9.35
-12.95
-16.38
-19.73
-23.10
-26.65
-30.51
-34.63
-38.84
-42.61
-45.22
-45.81
-43.67
-38.49
-30.62
-20.95
-10.72
-1.23
6.61
12.44
16.39
18.93
20.60
21.74
22.53
23.01
23.14
22.96
22.70
22.57
22.82
23.57
24.76
26.20
27.63
28.78
29.51
29.84
29.86
29.63
29.16
28.19
26.38
23.45
19.23
13.84
7.62
0.95
-5.81
-12.31
-18.38
-23.77
-28.32
-31.96
-34.70
-36.64
-37.97
-38.84
-39.26
-39.34
-39.12
-38.82
-38.73
-39.20
-40.45
-42.50
-45.00
-47.15
-47.90
-46.11
-41.03
-32.53
-21.23
-8.34
4.71
16.65
26.72
34.62
40.49
44.64
47.39
49.07
49.95
50.33
50.40
50.30
49.89
49.01
47.42
45.00
41.78
37.95
33.94
30.11
26.79
24.14
22.17
20.74
19.61
18.51
17.15
15.36
13.03
10.17
6.85
3.24
-0.50
-4.21
-7.77
-11.00
-13.73
-15.79
-16.98
-17.24
-16.64
-15.32
-13.40
-11.11
-8.67
-6.49
-5.22
-5.65
-8.48
-14.18
-22.65
-33.28
-45.06
-56.74
-67.01
-74.58
-78.30
-77.36
-71.45
-60.96
-47.08
-31.53
-16.13
-2.35
8.92
17.55
23.79
28.22
31.41
33.82
35.71
37.25
38.47
39.26
39.62
39.48
38.92
38.05
36.97
35.77
34.50
33.13
31.62
29.97
28.19
26.29
24.30
22.21
20.07
17.94
15.87
13.94
12.24
10.77
9.41
7.95
6.12
3.75
0.79
-2.57
-6.05
-9.38
-12.47
-15.34
-18.20
-21.37
-25.08
-29.49
-34.43
-39.36
-43.47
-45.75
-45.30
-41.61
-34.78
-25.53
-14.98
-4.30
5.60
14.19
21.33
27.14
31.75
35.19
37.41
38.36
38.22
37.40
36.44
35.89
35.99
36.60
37.12
36.69
34.36
29.49
21.92
12.12
1.22
-9.41
-18.41
-24.84
-28.42
-29.44
-28.54
-26.33
-23.24
-19.42
-15.04
-10.38
-5.96
-2.41
-0.28
0.18
-0.83
-2.84
-5.20
-7.44
-9.39
-11.09
-12.80
-14.81
-17.38
-20.48
-23.83
-26.78
-28.64
-28.76
-27.08
-24.20
-21.24
-19.50
-19.80
-22.16
-25.69
-29.06
-30.86
-29.95
-25.63
-17.51
-5.71
9.00
24.95
39.81
51.10
57.07
57.38
53.12
46.41
39.40
33.59
29.49
26.90
25.40
24.69
24.62
25.00
25.49
25.46
24.39
22.05
18.69
14.94
11.52
8.91
7.18
6.04
4.93
3.38
1.21
-1.42
-4.11
-6.49
-8.28
-9.61
-10.77
-12.26
-14.40
-17.22
-20.46
-23.65
-26.39
-28.50
-30.13
-31.65
-33.59
-36.34
-40.03
-44.48
-49.11
-53.07
-55.32
-55.04
-51.69
-45.37
-36.70
-26.71
-16.57
-7.27
0.57
6.79
11.54
15.22
18.30
21.20
24.15
27.22
30.29
33.20
35.67
37.50
38.59
38.97
38.80
38.27
37.57
36.85
36.17
35.42
34.46
33.14
31.38
29.24
26.80
24.18
21.53
18.88
16.20
13.41
10.47
7.23
3.70
-0.15
-4.25
-8.48
-12.71
-16.85
-20.84
-24.61
-28.19
-31.42
-34.16
-36.22
-37.55
-38.20
-38.51
-38.86
-39.68
-41.14
-43.03
-44.77
-45.43
-44.09
-40.18
-33.70
-25.24
-15.89
-6.70
1.54
8.46
14.07
18.54
21.97
24.41
25.95
26.69
26.92
26.99
27.16
27.60
28.27
29.02
29.65
29.99
29.97
29.53
28.76
27.73
26.51
25.15
23.63
21.83
19.66
17.04
13.99
10.73
7.61
4.97
2.97
1.59
0.54
-0.48
-1.71
-3.28
-5.16
-7.28
-9.55
-11.93
-14.39
-16.97
-19.66
-22.52
-25.63
-29.07
-32.78
-36.52
-39.80
-41.93
-42.29
-40.38
-36.05
-29.59
-21.56
-12.73
-3.86
4.38
11.51
17.13
21.17
23.85
25.62
27.01
28.48
30.19
32.00
33.59
34.60
34.86
34.47
33.74
33.07
32.81
33.11
33.84
34.69
35.11
34.55
32.58
29.04
24.04
17.80
10.63
2.83
-5.20
-13.03
-20.11
-25.91
-29.99
-32.04
-31.87
-29.32
-24.29
-16.92
-8.02
0.88
7.67
10.34
7.69
-0.22
-12.02
-25.70
-39.30
-51.56
-62.06
-70.72
-77.46
-81.78
-82.83
-79.84
-72.62
-61.77
-48.64
-34.86
-21.83
-10.40
-0.76
7.41
14.56
20.97
26.60
31.24
34.66
36.85
38.14
39.02
39.94
41.09
42.32
43.26
43.55
42.96
41.53
39.61
37.64
36.02
34.94
34.35
34.01
33.42
31.96
28.97
23.87
16.32
6.37
-5.38
-17.87
-29.76
-39.67
-46.58
-49.98
-49.86
-46.60
-40.72
-32.76
-23.35
-13.27
-3.55
4.56
9.89
11.61
9.61
4.59
-2.29
-9.87
-17.30
-24.42
-31.50
-38.85
-46.55
-54.05
-60.29
-64.10
-64.55
-61.23
-54.47
-45.14
-34.30
-23.04
-12.19
-2.24
6.62
14.43
21.34
27.40
32.58
36.81
40.04
42.33
43.83
44.74
45.22
45.25
44.64
43.10
40.42
36.51
31.58
25.96
20.09
14.43
9.27
4.77
1.03
-1.88
-3.88
-4.74
-4.35
-2.63
0.19
3.59
6.88
9.36
10.55
10.23
8.53
5.76
2.35
-1.33
-5.04
-8.53
-11.64
-14.32
-16.67
-18.87
-21.18
-23.74
-26.53
-29.19
-31.09
-31.45
-29.59
-25.21
-18.54
-10.34
-1.71
6.22
12.63
17.09
19.64
20.64
20.60
20.05
19.35
18.77
18.44
18.44
18.81
19.48
20.36
21.26
21.96
22.20
21.88
21.08
20.05
19.10
18.39
17.82
17.05
15.72
13.57
10.64
7.28
3.98
1.16
-1.06
-2.81
-4.49
-6.43
-8.84
-11.68
-14.70
-17.63
-20.21
-22.38
-24.21
-25.90
-27.67
-29.79
-32.53
-36.00
-40.10
-44.34
-47.85
-49.63
-48.78
-44.93
-38.33
-29.75
-20.34
-11.15
-2.98
3.81
9.18
13.33
16.49
18.99
21.10
23.04
24.92
26.75
28.43
29.77
30.58
30.73
30.17
28.99
27.35
25.41
23.40
21.50
19.85
18.58
17.65
16.89
16.09
14.98
13.37
11.23
8.64
5.83
3.03
0.38
-2.16
-4.69
-7.36
-10.22
-13.22
-16.25
-19.10
-21.61
-23.74
-25.56
-27.13
-28.63
-30.22
-32.14
-34.62
-37.79
-41.53
-45.46
-48.87
-50.87
-50.71
-47.93
-42.61
-35.32
-26.97
-18.52
-10.78
-4.21
1.10
5.29
8.67
11.55
14.20
16.79
19.36
21.81
23.98
25.66
26.69
27.08
26.94
26.48
25.99
25.61
25.45
25.44
25.45
25.29
24.82
23.94
22.64
20.96
18.98
16.82
14.56
12.31
10.17
8.26
6.67
5.42
4.43
3.53
2.53
1.16
-0.72
-3.17
-6.14
-9.44
-12.94
-16.45
-19.89
-23.16
-26.36
-29.59
-32.98
-36.52
-39.94
-42.71
-44.05
-43.28
-39.98
-34.24
-26.63
-18.07
-9.53
-1.81
4.60
9.58
13.24
15.87
17.72
19.04
19.91
20.30
20.19
19.66
18.88
18.07
17.47
17.18
17.13
17.14
16.95
16.43
15.51
14.28
12.89
11.43
9.91
8.24
6.27
3.87
1.12
-1.88
-4.93
-7.86
-10.65
-13.34
-15.99
-18.59
-21.05
-23.23
-25.15
-27.01
-29.09
-31.59
-34.45
-37.16
-38.86
-38.71
-36.06
-30.85
-23.58
-15.04
-6.16
2.37
10.07
16.71
22.19
26.50
29.67
31.78
33.04
33.66
33.79
33.53
32.86
31.73
30.13
28.03
25.47
22.59
19.57
16.65
14.01
11.74
9.75
7.90
5.87
3.46
0.55
-2.87
-6.56
-10.16
-13.33
-15.79
-17.47
-18.56
-19.38
-20.34
-21.76
-23.78
-26.24
-28.76
-30.74
-31.53
-30.53
-27.39
-22.14
-15.17
-7.22
0.88
8.36
14.69
19.69
23.45
26.22
28.22
29.60
30.43
30.70
30.52
30.04
29.45
28.88
28.39
27.90
27.32
26.70
26.15
25.85
25.84
25.96
25.81
24.98
23.19
20.44
16.99
13.17
9.14
4.94
0.41
-4.62
-10.17
-16.07
-21.90
-27.21
-31.68
-35.09
-37.48
-39.07
-40.21
-41.35
-42.78
-44.49
-46.02
-46.61
-45.31
-41.42
-34.76
-25.78
-15.50
-5.15
4.19
11.85
17.70
22.05
25.42
28.34
31.18
34.16
37.16
40.01
42.39
44.10
45.08
45.36
45.12
44.61
44.02
43.46
42.96
42.45
41.80
40.86
39.52
37.67
35.33
32.51
29.32
25.95
22.53
19.20
16.01
12.98
10.09
7.34
4.66
2.06
-0.43
-2.83
-5.08
-7.18
-9.14
-11.02
-12.96
-15.16
-17.82
-20.96
-24.54
-28.30
-31.97
-35.33
-38.25
-40.79
-43.17
-45.66
-48.46
-51.55
-54.54
-56.72
-57.19
-55.11
-50.01
-42.03
-31.94
-20.88
-10.10
-0.56
7.26
13.36
18.03
21.61
24.44
26.70
28.51
30.02
31.36
32.60
33.77
34.77
35.48
35.82
35.81
35.57
35.28
35.05
34.93
34.79
34.45
33.75
32.63
31.11
29.35
27.46
25.53
23.62
21.75
19.90
18.09
16.31
14.52
12.71
10.82
8.77
6.51
4.12
1.70
-0.63
-2.74
-4.65
-6.49
-8.53
-10.96
-13.90
-17.19
-20.53
-23.55
-26.01
-27.81
-29.09
-30.14
-31.29
-32.80
-34.84
-37.39
-40.12
-42.48
-43.75
-43.19
-40.31
-35.06
-27.97
-19.95
-12.14
-5.44
-0.39
2.85
4.54
5.06
4.84
4.23
3.51
2.98
2.91
3.49
4.73
6.59
8.82
11.25
13.76
16.36
19.12
22.08
25.10
27.92
30.24
31.71
32.18
31.61
30.12
27.95
25.37
22.65
20.00
17.52
15.17
12.84
10.38
7.68
4.79
1.81
-1.16
-3.98
-6.57
-8.84
-10.67
-11.98
-12.77
-13.13
-13.34
-13.77
-14.70
-16.23
-18.24
-20.40
-22.30
-23.65
-24.34
-24.52
-24.58
-24.84
-25.57
-26.74
-28.07
-28.97
-28.86
-27.24
-23.98
-19.38
-13.96
-8.48
-3.55
0.43
3.34
5.16
6.10
6.36
6.27
6.17
6.26
6.69
7.42
8.30
9.00
9.39
9.40
9.14
8.80
8.55
8.53
8.81
9.38
10.08
10.74
11.22
11.29
10.90
10.06
8.91
7.73
6.69
5.94
5.47
5.23
4.99
4.60
3.90
2.80
1.35
-0.36
-2.16
-3.90
-5.37
-6.60
-7.60
-8.56
-9.62
-10.86
-12.19
-13.48
-14.57
-15.31
-15.77
-16.06
-16.42
-17.08
-18.24
-19.96
-22.29
-25.02
-27.75
-29.94
-30.84
-29.94
-27.00
-22.26
-16.30
-9.96
-3.96
1.22
5.31
8.31
10.25
11.16
11.20
10.61
9.65
8.55
7.47
6.40
5.36
4.33
3.40
2.69
2.35
2.37
2.71
3.35
4.17
5.20
6.35
7.51
8.57
9.41
10.03
10.49
10.91
11.31
11.62
11.63
11.13
10.06
8.51
6.78
5.13
3.75
2.56
1.43
0.14
-1.52
-3.58
-5.89
-8.17
-10.14
-11.52
-12.30
-12.56
-12.62
-12.90
-13.74
-15.29
-17.39
-19.76
-21.90
-23.42
-23.94
-23.25
-21.25
-17.95
-13.53
-8.35
-2.88
2.33
6.76
10.12
12.33
13.53
14.01
14.05
13.90
13.72
13.68
13.89
14.43
15.36
16.63
18.10
19.47
20.28
19.93
17.93
14.02
8.35
1.51
-5.68
-12.35
-17.88
-21.96
-24.49
-25.47
-24.99
-23.19
-20.33
-16.89
-13.43
-10.40
-8.05
-6.34
-5.10
-4.21
-3.72
-3.75
-4.49
-6.00
-8.20
-10.88
-13.83
-16.88
-20.02
-23.23
-26.39
-29.26
-31.44
-32.45
-31.92
-29.66
-25.80
-20.85
-15.45
-10.28
-5.91
-2.60
-0.35
1.07
1.97
2.72
3.53
4.60
5.99
7.59
9.28
10.94
12.41
13.60
14.51
15.07
15.29
15.18
14.78
14.20
13.59
13.03
12.53
12.01
11.31
10.33
9.08
7.58
5.90
4.16
2.38
0.59
-1.17
-2.83
-4.33
-5.61
-6.77
-8.01
-9.57
-11.59
-14.10
-16.90
-19.72
-22.24
-24.30
-25.90
-27.28
-28.79
-30.73
-33.25
-36.12
-38.87
-40.82
-41.33
-39.93
-36.56
-31.53
-25.47
-19.12
-13.14
-8.03
-4.04
-1.11
0.98
2.55
3.91
5.25
6.64
8.07
9.52
10.93
12.30
13.62
14.85
15.96
16.98
17.89
18.77
19.65
20.48
21.17
21.55
21.48
20.92
19.96
18.75
17.43
16.06
14.54
12.76
10.66
8.22
5.60
2.98
0.55
-1.61
-3.55
-5.44
-7.45
-9.63
-12.00
-14.48
-16.94
-19.24
-21.33
-23.21
-24.96
-26.77
-28.92
-31.70
-35.32
-39.70
-44.35
-48.38
-50.80
-50.64
-47.36
-41.04
-32.28
-22.14
-11.82
-2.41
5.42
11.43
15.82
18.97
21.27
22.90
23.83
23.86
22.81
20.70
17.83
14.75
11.97
9.93
8.81
8.58
9.15
10.45
12.42
15.03
18.12
21.34
24.26
26.45
27.58
27.58
26.63
25.03
23.22
21.49
19.93
18.38
16.52
13.98
10.45
5.95
0.71
-4.86
-10.28
-15.22
-19.57
-23.43
-27.06
-30.84
-35.12
-40.01
-45.34
-50.53
-54.69
-56.80
-56.01
-51.94
-44.81
-35.44
-24.97
-14.55
-5.10
2.89
9.32
14.39
18.51
22.15
25.69
29.30
32.97
36.48
39.60
42.14
44.05
45.38
46.28
46.83
47.08
47.08
46.83
46.31
45.45
44.15
42.31
39.90
37.03
33.90
30.74
27.71
24.90
22.22
19.53
16.77
13.83
10.72
7.46
4.08
0.54
-3.19
-7.22
-11.72
-16.73
-22.23
-28.07
-33.92
-39.42
-44.31
-48.53
-52.35
-56.21
-60.56
-65.54
-70.82
-75.56
-78.48
-78.28
-73.98
-65.29
-52.78
-37.67
-21.52
-5.81
8.36
20.33
29.96
37.35
42.90
47.09
50.39
53.18
55.68
57.96
59.93
61.51
62.51
62.87
62.42
60.96
58.25
54.15
48.71
42.18
35.06
27.89
21.30
15.81
11.80
9.50
8.85
9.69
11.63
14.14
16.66
18.67
19.76
19.66
18.42
16.24
13.56
10.83
8.35
6.14
3.90
1.17
-2.49
-7.18
-12.76
-18.80
-24.83
-30.54
-35.83
-40.88
-46.05
-51.73
-58.07
-64.95
-71.70
-77.07
-79.56
-77.77
-71.01
-59.56
-44.79
-28.61
-13.00
0.60
11.49
19.64
25.51
29.73
32.94
35.67
38.26
40.87
43.43
45.78
47.64
48.89
49.47
49.49
49.14
48.63
48.17
47.93
48.00
48.25
48.53
48.54
47.96
46.46
43.97
40.48
36.15
31.37
26.48
21.88
17.76
14.16
10.91
7.87
4.83
1.76
-1.27
-4.19
-6.97
-9.72
-12.63
-15.85
-19.42
-23.27
-27.16
-30.72
-33.71
-36.02
-37.84
-39.59
-41.79
-44.99
-49.45
-55.08
-61.22
-66.76
-70.23
-70.27
-65.93
-57.02
-44.27
-29.12
-13.44
1.07
13.19
22.47
28.89
32.81
34.61
34.54
32.89
29.95
26.26
22.49
19.35
17.29
16.50
16.90
18.24
20.39
23.28
26.96
31.35
36.13
40.72
44.44
46.68
47.06
45.57
42.46
38.13
33.02
27.46
21.70
16.00
10.63
5.84
1.84
-1.35
-3.95
-6.28
-8.66
-11.25
-13.99
-16.72
-19.23
-21.44
-23.42
-25.40
-27.69
-30.59
-34.31
-38.90
-44.08
-49.16
-53.04
-54.43
-52.27
-46.04
-36.03
-23.33
-9.57
3.59
14.86
23.52
29.50
33.28
35.51
36.86
37.76
38.39
38.72
38.58
37.73
35.94
33.13
29.33
24.80
19.93
15.27
11.40
8.72
7.39
7.26
8.02
9.21
10.54
11.79
12.84
13.52
13.59
12.83
11.13
8.51
5.22
1.57
-2.14
-5.77
-9.30
-12.83
-16.36
-19.79
-22.97
-25.77
-28.13
-30.21
-32.32
-34.87
-38.34
-42.97
-48.75
-55.23
-61.56
-66.41
-68.42
-66.42
-59.94
-49.40
-35.99
-21.35
-7.12
5.46
15.72
23.49
29.05
32.85
35.43
37.31
38.95
40.55
42.18
43.67
44.73
45.13
44.73
43.62
42.01
40.14
38.19
36.25
34.32
32.32
30.26
28.11
25.86
23.52
21.02
18.31
15.41
12.38
9.33
6.48
3.92
1.72
-0.15
-1.85
-3.63
-5.79
-8.56
-12.10
-16.26
-20.86
-25.56
-30.14
-34.45
-38.55
-42.58
-46.79
-51.36
-56.31
-61.43
-66.13
-69.46
-70.35
-67.80
-61.34
-51.33
-38.83
-25.43
-12.74
-1.92
6.55
12.81
17.40
21.03
24.16
27.06
29.78
32.22
34.25
35.76
36.62
36.74
36.09
34.78
33.02
31.13
29.40
28.12
27.28
26.71
26.13
25.22
23.79
21.82
19.41
16.77
14.15
11.70
9.53
7.61
5.91
4.32
2.64
0.76
-1.47
-4.05
-6.98
-10.21
-13.70
-17.39
-21.23
-25.14
-28.94
-32.45
-35.51
-38.14
-40.52
-42.98
-45.86
-49.25
-52.86
-55.96
-57.54
-56.58
-52.43
-45.02
-34.91
-23.14
-10.94
0.56
10.47
18.28
23.86
27.42
29.38
30.33
30.85
31.38
32.18
33.34
34.79
36.37
37.87
39.08
39.78
39.89
39.40
38.46
37.22
35.81
34.19
32.16
29.51
26.09
21.99
17.48
13.01
8.92
5.38
2.34
-0.36
-2.95
-5.57
-8.28
-11.04
-13.73
-16.29
-18.69
-20.95
-23.13
-25.36
-27.81
-30.72
-34.32
-38.73
-43.78
-48.85
-52.87
-54.61
-53.01
-47.57
-38.63
-27.27
-15.00
-3.30
6.74
14.66
20.45
24.44
27.10
28.78
29.82
30.47
30.95
31.40
31.88
32.38
32.75
32.85
32.53
31.70
30.39
28.69
26.73
24.63
22.44
20.23
18.00
15.79
13.67
11.74
10.00
8.46
7.04
5.54
3.90
2.08
0.08
-2.10
-4.51
-7.32
-10.59
-14.31
-18.40
-22.58
-26.56
-30.13
-33.22
-35.89
-38.35
-40.91
-43.96
-47.85
-52.78
-58.52
-64.27
-68.82
-70.78
-69.06
-63.36
-54.21
-42.84
-30.71
-19.20
-9.10
-0.71
6.10
11.70
16.55
20.97
25.23
29.38
33.24
36.56
39.12
40.82
41.73
42.02
41.87
41.48
40.89
40.17
39.37
38.57
37.81
37.03
36.07
34.71
32.85
30.52
27.91
25.22
22.43
19.23
15.12
9.66
2.73
-5.18
-13.12
-20.00
-24.93
-27.61
-28.22
-27.26
-25.30
-22.76
-19.94
-17.03
-14.38
-12.37
-11.49
-12.04
-14.13
-17.70
-22.56
-28.52
-35.22
-42.10
-48.25
-52.48
-53.61
-50.89
-44.32
-34.73
-23.61
-12.54
-2.83
4.94
10.76
15.10
18.49
21.38
24.00
26.39
28.55
30.45
32.12
33.59
34.87
35.98
36.87
37.39
37.41
36.87
35.75
34.15
32.23
30.04
27.64
25.03
22.12
18.89
15.40
11.70
7.94
4.31
0.97
-1.89
-4.15
-5.76
-6.93
-7.97
-9.54
-12.32
-16.88
-23.36
-31.30
-39.62
-47.02
-52.40
-55.20
-55.60
-54.18
-51.65
-48.50
-44.98
-41.12
-36.98
-32.70
-28.41
-24.13
-19.58
-14.39
-8.28
-1.28
6.15
13.29
19.42
24.11
27.36
29.63
31.52
33.45
35.49
37.29
38.30
38.17
36.99
35.24
33.73
33.12
33.73
35.39
37.59
39.64
41.03
41.47
40.95
39.66
37.88
35.85
33.76
31.68
29.43
26.55
22.22
15.53
5.90
-6.72
-21.52
-37.06
-51.49
-63.18
-71.07
-74.82
-74.63
-70.95
-64.34
-55.39
-44.98
-34.32
-25.01
-18.70
-16.62
-19.14
-25.49
-33.93
-42.20
-48.14
-50.24
-48.00
-41.86
-32.98
-22.80
-12.67
-3.53
4.21
10.48
15.50
19.46
22.58
25.04
27.00
28.65
30.18
31.80
33.73
36.22
39.48
43.57
48.38
53.38
57.80
60.68
61.14
58.53
52.65
43.60
31.77
17.91
2.92
-11.90
-25.12
-35.34
-41.63
-43.65
-41.88
-37.42
-31.60
-25.73
-20.69
-17.01
-14.78
-13.71
-13.21
-12.47
-10.90
-8.31
-5.15
-2.34
-0.83
-1.22
-3.50
-7.27
-12.02
-17.48
-23.63
-30.49
-37.61
-43.97
-48.18
-48.97
-45.85
-39.20
-30.13
-20.04
-10.23
-1.58
5.59
11.35
16.13
20.38
24.41
28.29
31.76
34.39
35.76
35.77
34.71
33.23
32.08
31.88
32.79
34.56
36.70
38.64
39.90
40.24
39.62
38.11
35.90
33.14
30.01
26.71
23.40
20.15
16.90
13.53
9.79
5.59
0.97
-3.84
-8.53
-12.87
-16.77
-20.29
-23.54
-26.63
-29.53
-32.14
-34.35
-36.07
-37.35
-38.32
-39.15
-40.08
-41.40
-43.12
-45.08
-46.73
-47.22
-45.72
-41.60
-34.77
-25.74
-15.48
-5.13
4.39
12.44
18.90
23.87
27.60
30.30
32.12
33.16
33.48
33.25
32.63
31.87
31.05
30.18
29.12
27.77
26.13
24.32
22.56
21.10
20.14
19.63
19.41
19.15
18.48
17.11
14.93
12.04
8.71
5.35
2.28
-0.27
-2.30
-3.92
-5.33
-6.73
-8.28
-10.13
-12.35
-14.96
-17.91
-21.09
-24.42
-27.91
-31.73
-36.20
-41.71
-48.51
-56.50
-65.08
-73.15
-79.32
-82.17
-80.80
-74.95
-65.17
-52.58
-38.56
-24.35
-10.79
1.66
12.82
22.56
30.71
37.09
41.68
44.63
46.26
46.96
47.00
46.43
45.25
43.40
41.03
38.51
36.27
34.66
33.83
33.57
33.41
32.78
31.08
27.89
23.12
17.10
10.40
3.76
-2.24
-7.22
-11.07
-13.86
-15.65
-16.52
-16.50
-15.80
-14.69
-13.55
-12.68
-12.31
-12.49
-13.19
-14.40
-16.12
-18.38
-21.25
-24.78
-29.00
-33.85
-39.01
-43.75
-47.02
-47.67
-44.87
-38.40
-28.95
-17.80
-6.54
3.53
11.67
17.73
22.03
25.04
27.18
28.71
29.71
30.25
30.37
30.18
29.79
29.32
28.78
28.19
27.49
26.68
25.85
25.15
24.67
24.48
24.52
24.56
24.33
23.57
22.15
20.00
17.26
14.09
10.69
7.31
4.08
1.13
-1.54
-3.93
-6.13
-8.22
-10.32
-12.61
-15.20
-18.20
-21.62
-25.37
-29.32
-33.37
-37.47
-41.56
-45.48
-48.82
-50.95
-51.05
-48.48
-42.95
-34.77
-24.80
-14.15
-3.90
5.24
13.01
19.48
24.88
29.36
32.95
35.59
37.19
37.78
37.53
36.63
35.30
33.70
31.98
30.20
28.47
26.85
25.38
24.10
23.07
22.28
21.65
21.04
20.20
18.91
17.00
14.44
11.38
8.10
4.87
1.87
-0.82
-3.21
-5.34
-7.38
-9.52
-12.00
-14.93
-18.25
-21.75
-25.15
-28.22
-30.92
-33.41
-35.96
-38.91
-42.48
-46.65
-51.09
-55.05
-57.56
-57.54
-54.18
-47.24
-37.24
-25.33
-13.03
-1.69
7.77
15.07
20.37
24.12
26.87
28.96
30.65
32.03
33.19
34.15
34.90
35.37
35.48
35.20
34.57
33.73
32.83
32.03
31.37
30.77
30.09
29.17
27.91
26.24
24.21
21.85
19.17
16.23
13.14
10.01
6.97
4.11
1.40
-1.20
-3.74
-6.25
-8.78
-11.42
-14.28
-17.47
-20.94
-24.49
-27.77
-30.46
-32.36
-33.57
-34.41
-35.28
-36.60
-38.59
-41.26
-44.30
-47.05
-48.61
-47.96
-44.42
-37.87
-28.87
-18.53
-8.22
0.94
8.32
13.84
17.87
20.88
23.32
25.45
27.40
29.09
30.45
31.38
31.75
31.56
30.82
29.70
28.45
27.33
26.62
26.43
26.73
27.32
27.88
28.03
27.51
26.19
24.06
21.35
18.35
15.35
12.59
10.18
8.09
6.29
4.74
3.42
2.39
1.66
1.17
0.73
0.09
-1.12
-3.20
-6.22
-10.04
-14.31
-18.58
-22.54
-26.07
-29.31
-32.50
-35.95
-39.81
-44.17
-48.90
-53.68
-58.00
-60.96
-61.68
-59.36
-53.70
-45.01
-34.34
-22.95
-12.06
-2.56
5.32
11.69
16.93
21.32
24.99
27.99
30.30
32.03
33.26
34.13
34.70
35.01
35.01
34.66
33.99
32.88
31.34
29.30
26.86
24.24
21.72
19.57
17.83
16.53
15.47
14.56
13.70
12.97
12.30
11.64
10.87
9.81
8.45
6.79
4.98
3.12
1.30
-0.48
-2.31
-4.25
-6.44
-9.00
-12.13
-15.93
-20.40
-25.48
-30.98
-36.73
-42.55
-48.30
-53.80
-58.85
-63.06
-65.81
-66.38
-64.13
-58.67
-50.09
-39.10
-26.77
-14.40
-3.19
6.12
13.28
18.44
22.06
24.51
26.06
26.81
26.75
25.92
24.44
22.57
20.62
18.90
17.58
16.83
16.72
17.27
18.43
20.01
21.71
23.12
23.90
23.82
22.86
21.15
18.88
16.18
13.15
9.94
6.65
3.55
0.81
-1.49
-3.38
-5.05
-6.72
-8.60
-10.71
-12.96
-15.19
-17.32
-19.35
-21.41
-23.62
-26.10
-28.94
-32.12
-35.40
-38.39
-40.52
-41.13
-39.62
-35.59
-29.05
-20.41
-10.51
-0.32
9.15
17.18
23.41
27.85
30.82
32.71
33.81
34.26
34.11
33.40
32.32
31.12
30.02
29.12
28.38
27.64
26.82
25.92
24.99
23.98
22.71
20.81
18.01
14.26
9.76
4.98
0.42
-3.59
-6.98
-9.86
-12.52
-15.20
-18.05
-21.10
-24.27
-27.36
-30.18
-32.55
-34.35
-35.65
-36.66
-37.68
-39.07
-40.99
-43.36
-45.75
-47.43
-47.48
-45.15
-40.05
-32.26
-22.42
-11.47
-0.46
9.69
18.31
25.11
30.02
33.16
34.77
35.09
34.46
33.18
31.55
29.83
28.13
26.45
24.74
22.99
21.26
19.71
18.51
17.81
17.64
17.83
18.02
17.86
17.08
15.58
13.39
10.75
7.90
5.11
2.47
-0.04
-2.61
-5.38
-8.47
-11.89
-15.47
-19.06
-22.45
-25.52
-28.25
-30.74
-33.23
-36.03
-39.46
-43.57
-48.12
-52.41
-55.44
-56.15
-53.79
-48.22
-39.90
-29.71
-18.70
-7.89
2.00
10.50
17.41
22.73
26.55
29.13
30.81
31.90
32.66
33.24
33.70
33.98
34.10
34.05
33.89
33.74
33.67
33.72
33.81
33.86
33.57
32.76
31.20
28.82
25.77
22.25
18.62
15.13
12.03
9.36
7.12
5.19
3.42
1.61
-0.49
-3.04
-6.18
-9.86
-13.96
-18.18
-22.20
-25.79
-28.80
-31.30
-33.42
-35.36
-37.34
-39.46
-41.65
-43.67
-45.16
-45.72
-45.08
-43.13
-39.98
-35.84
-30.94
-25.47
-19.49
-13.13
-6.49
0.26
7.01
13.65
20.17
26.48
32.43
37.72
41.93
44.79
46.11
45.95
44.56
42.26
39.38
36.18
32.91
29.74
26.91
24.55
22.72
21.32
20.04
18.49
16.42
13.74
10.64
7.45
4.44
1.68
-0.96
-3.68
-6.68
-9.89
-13.12
-16.07
-18.46
-20.22
-21.47
-22.54
-23.81
-25.72
-28.53
-32.25
-36.50
-40.47
-43.13
-43.45
-40.71
-34.81
-26.28
-16.13
-5.59
4.26
12.65
19.07
23.38
25.60
25.94
24.82
22.82
20.56
18.52
17.09
16.39
16.49
17.37
19.03
21.31
23.97
26.58
28.60
29.73
29.89
29.30
28.27
27.01
25.50
23.50
20.70
16.98
12.55
7.86
3.36
-0.76
-4.61
-8.48
-12.68
-17.36
-22.34
-27.28
-31.80
-35.64
-38.76
-41.34
-43.67
-46.09
-48.94
-52.33
-56.06
-59.47
-61.47
-60.73
-55.94
-46.35
-32.01
-14.08
5.40
23.87
39.00
49.26
54.14
54.28
50.94
45.61
39.56
33.66
28.34
23.81
20.18
17.52
15.87
15.14
15.17
15.71
16.47
17.18
17.62
17.69
17.35
16.65
15.58
14.07
12.10
9.67
6.82
3.77
0.71
-2.16
-4.70
-6.83
-8.45
-9.36
-9.38
-8.49
-6.86
-4.99
-3.55
-3.08
-3.90
-5.91
-8.72
-11.87
-14.97
-17.89
-20.69
-23.54
-26.58
-29.85
-33.12
-35.89
-37.44
-36.87
-33.35
-26.51
-16.65
-4.81
7.38
18.22
26.34
31.09
32.57
31.53
29.00
26.03
23.45
21.76
21.17
21.61
22.82
24.38
25.85
26.82
27.13
26.80
26.06
25.25
24.64
24.33
24.28
24.29
24.07
23.48
22.46
21.04
19.30
17.28
14.98
12.38
9.50
6.37
3.06
-0.34
-3.75
-7.17
-10.54
-13.89
-17.15
-20.27
-23.23
-26.02
-28.62
-30.99
-33.14
-35.09
-37.02
-39.19
-41.90
-45.35
-49.44
-53.69
-57.18
-58.89
-57.89
-53.76
-46.71
-37.51
-27.23
-16.91
-7.35
0.98
7.87
13.36
17.48
20.32
22.02
22.76
22.73
22.09
21.02
19.58
17.85
15.87
13.71
11.46
9.18
7.01
5.02
3.34
2.09
1.44
1.42
1.99
2.95
3.99
4.84
5.34
5.54
5.58
5.76
6.23
7.10
8.40
10.14
12.35
14.91
17.45
19.21
19.30
16.97
11.86
4.31
-4.90
-14.72
-24.23
-32.68
-39.55
-44.35
-46.48
-45.45
-41.06
-33.68
-24.24
-13.99
-4.20
4.27
11.07
16.33
20.38
23.63
26.25
28.27
29.62
30.22
30.19
29.68
28.97
28.24
27.61
27.03
26.35
25.44
24.24
22.92
21.65
20.59
19.71
18.81
17.60
15.83
13.38
10.38
7.18
4.15
1.56
-0.44
-1.96
-3.27
-4.65
-6.35
-8.48
-10.96
-13.68
-16.42
-19.06
-21.60
-24.14
-26.93
-30.31
-34.54
-39.77
-45.88
-52.27
-58.07
-62.13
-63.41
-61.29
-55.83
-47.65
-37.82
-27.57
-17.79
-9.00
-1.33
5.39
11.33
16.59
21.11
24.78
27.42
29.03
29.75
29.82
29.61
29.39
29.34
29.48
29.74
30.02
30.31
30.53
30.62
30.50
29.99
28.92
27.23
24.98
22.37
19.66
17.03
14.52
12.11
9.68
7.14
4.49
1.83
-0.75
-3.17
-5.43
-7.67
-9.94
-12.40
-15.09
-17.98
-21.01
-24.13
-27.34
-30.72
-34.42
-38.45
-42.75
-46.91
-50.21
-51.81
-50.96
-47.23
-40.82
-32.46
-23.20
-14.14
-6.08
0.62
5.97
10.22
13.72
16.74
19.44
21.87
24.04
25.85
27.26
28.22
28.72
28.83
28.64
28.30
27.99
27.93
28.18
28.70
29.25
29.52
29.16
27.89
25.70
22.83
19.65
16.54
13.80
11.47
9.50
7.74
5.99
4.19
2.39
0.63
-1.14
-2.96
-4.98
-7.28
-9.84
-12.55
-15.22
-17.70
-19.93
-22.00
-24.04
-26.25
-28.75
-31.58
-34.61
-37.55
-39.92
-41.08
-40.46
-37.61
-32.46
-25.33
-16.96
-8.32
-0.40
6.04
10.60
13.33
14.69
15.29
15.73
16.41
17.45
18.74
20.10
21.41
22.58
23.58
24.37
24.86
24.97
24.70
24.12
23.38
22.64
21.99
21.43
20.89
20.28
19.56
18.72
17.72
16.64
15.58
14.61
13.76
12.87
11.62
9.76
7.07
3.56
-0.52
-4.72
-8.67
-12.14
-15.16
-17.95
-20.71
-23.67
-27.00
-30.81
-35.00
-39.30
-43.13
-45.67
-46.08
-43.71
-38.42
-30.70
-21.55
-12.12
-3.47
3.76
9.36
13.53
16.68
19.19
21.24
22.84
23.84
24.14
23.81
23.05
22.12
21.35
20.88
20.75
20.90
21.25
21.73
22.25
22.66
22.69
22.15
20.91
19.07
16.88
14.61
12.52
10.68
9.04
7.39
5.61
3.59
1.36
-0.92
-3.10
-5.04
-6.70
-8.15
-9.62
-11.36
-13.63
-16.44
-19.65
-22.99
-26.15
-28.93
-31.24
-33.28
-35.32
-37.68
-40.49
-43.70
-46.94
-49.54
-50.68
-49.61
-45.91
-39.63
-31.42
-22.25
-13.28
-5.42
0.81
5.35
8.48
10.62
12.19
13.57
15.00
16.59
18.37
20.22
21.98
23.48
24.56
25.19
25.49
25.69
26.02
26.64
27.53
28.46
29.14
29.25
28.60
27.21
25.27
23.07
20.85
18.80
16.94
15.22
13.47
11.60
9.47
7.03
4.32
1.40
-1.58
-4.47
-7.12
-9.60
-12.03
-14.69
-17.78
-21.32
-25.06
-28.58
-31.52
-33.62
-34.94
-35.80
-36.64
-37.88
-39.77
-42.33
-45.23
-47.93
-49.70
-49.77
-47.63
-43.13
-36.53
-28.42
-19.75
-11.41
-4.13
1.68
6.03
9.22
11.69
13.81
15.86
17.84
19.69
21.29
22.55
23.46
23.98
24.21
24.17
24.05
23.97
24.09
24.37
24.69
24.86
24.65
23.97
22.85
21.35
19.59
17.67
15.69
13.77
12.11
10.84
10.02
9.49
8.99
8.19
6.87
4.93
2.49
-0.18
-2.82
-5.24
-7.38
-9.32
-11.18
-13.13
-15.30
-17.71
-20.38
-23.18
-25.86
-27.97
-28.94
-28.08
-24.94
-19.51
-12.20
-3.92
4.20
11.24
16.61
20.16
22.14
22.86
22.65
21.69
20.15
18.16
15.97
13.79
11.83
10.17
8.83
7.80
7.10
6.73
6.75
7.14
7.74
8.38
8.85
9.05
8.91
8.44
7.65
6.57
5.29
3.87
2.42
1.07
-0.14
-1.21
-2.15
-3.09
-4.19
-5.64
-7.67
-10.39
-13.75
-17.45
-21.02
-23.99
-26.18
-27.68
-28.89
-30.31
-32.35
-35.19
-38.67
-42.25
-45.24
-46.85
-46.46
-43.76
-38.88
-32.30
-24.85
-17.30
-10.31
-4.24
0.84
5.02
8.46
11.33
13.74
15.80
17.60
19.28
20.95
22.68
24.52
26.37
28.13
29.68
30.91
31.79
32.35
32.72
33.01
33.36
33.71
33.93
33.79
32.96
31.21
28.43
24.65
20.01
14.77
9.12
3.27
-2.55
-8.12
-13.11
-17.20
-20.12
-21.82
-22.47
-22.45
-22.28
-22.29
-22.71
-23.56
-24.81
-26.49
-28.77
-31.76
-35.53
-40.02
-44.88
-49.70
-53.90
-56.88
-58.02
-56.73
-52.62
-45.75
-36.76
-26.53
-16.20
-6.63
1.70
8.69
14.56
19.63
24.16
28.37
32.61
37.26
42.69
49.00
55.67
61.59
65.36
65.75
62.25
55.28
45.96
35.68
25.69
16.69
9.02
2.77
-1.97
-5.11
-6.58
-6.61
-5.66
-4.26
-2.98
-2.19
-2.06
-2.51
-3.29
-4.13
-4.90
-5.60
-6.36
-7.45
-9.06
-11.24
-13.86
-16.62
-19.23
-21.57
-23.66
-25.69
-27.86
-30.28
-32.96
-35.94
-39.25
-43.03
-47.28
-51.67
-55.49
-57.73
-57.38
-53.83
-47.15
-38.14
-28.04
-18.19
-9.58
-2.76
2.22
5.68
8.05
9.78
11.25
12.67
14.16
15.78
17.53
19.40
21.43
23.49
25.44
27.09
28.24
28.82
28.91
28.70
28.34
27.98
27.51
26.86
25.90
24.58
22.91
21.04
19.10
17.12
15.28
13.62
12.29
11.40
10.89
10.55
10.06
9.07
7.32
4.86
1.94
-0.96
-3.40
-5.13
-6.19
-6.95
-8.03
-10.06
-13.48
-18.25
-23.73
-28.74
-31.83
-31.82
-28.14
-21.08
-11.59
-1.02
9.39
18.78
26.81
33.46
38.91
43.39
46.99
49.84
51.99
53.43
54.07
53.75
52.31
49.65
45.91
41.42
36.64
32.14
28.27
25.09
22.40
19.83
17.08
14.07
10.93
7.86
5.03
2.36
-0.39
-3.45
-6.84
-10.35
-13.45
-15.69
-16.84
-17.08
-16.97
-17.26
-18.61
-21.43
-25.67
-30.82
-36.14
-40.75
-43.97
-45.45
-45.33
-44.20
-42.91
-42.27
-42.74
-44.25
-46.06
-47.06
-46.02
-42.03
-34.90
-25.29
-14.75
-5.21
1.43
4.13
2.89
-1.17
-6.31
-10.86
-13.77
-14.81
-14.30
-12.80
-10.70
-8.14
-5.20
-1.97
1.27
4.17
6.57
8.53
10.37
12.41
14.81
17.43
19.95
21.93
23.08
23.34
22.92
22.10
21.24
20.63
20.34
20.34
20.43
20.40
19.97
19.06
17.64
15.88
14.06
12.38
10.95
9.67
8.26
6.36
3.68
0.13
-4.17
-8.93
-13.81
-18.48
-22.78
-26.80
-30.81
-35.20
-40.38
-46.54
-53.41
-60.25
-65.77
-68.63
-67.85
-62.99
-54.45
-43.31
-30.96
-18.71
-7.59
1.89
9.60
15.64
20.38
24.14
27.24
29.87
32.16
34.05
35.49
36.40
36.77
36.71
36.32
35.68
34.91
34.11
33.30
32.58
31.96
31.32
30.57
29.49
27.99
26.02
23.64
20.97
18.11
15.14
12.02
8.66
4.93
0.82
-3.60
-8.20
-12.66
-16.68
-20.01
-22.63
-24.65
-26.48
-28.47
-30.92
-33.99
-37.46
-40.81
-43.24
-43.90
-42.10
-37.58
-30.51
-21.57
-11.75
-2.09
6.51
13.55
18.90
22.78
25.53
27.59
29.19
30.42
31.27
31.65
31.62
31.27
30.75
30.18
29.60
29.00
28.29
27.60
26.96
26.46
26.04
25.48
24.44
22.65
20.01
16.64
12.86
8.97
5.22
1.69
-1.60
-4.71
-7.67
-10.50
-13.26
-15.98
-18.69
-21.31
-23.71
-25.85
-27.84
-30.03
-32.86
-36.65
-41.40
-46.57
-51.12
-53.75
-53.32
-49.18
-41.50
-31.20
-19.64
-8.25
1.86
10.08
16.41
21.13
24.67
27.42
29.68
31.68
33.56
35.38
37.09
38.60
39.78
40.50
40.69
40.35
39.57
38.45
37.15
35.81
34.53
33.39
32.33
31.30
30.17
28.90
27.41
25.69
23.70
21.35
18.57
15.28
11.61
7.73
3.93
0.42
-2.71
-5.56
-8.38
-11.32
-14.44
-17.60
-20.64
-23.37
-25.71
-27.73
-29.62
-31.61
-33.94
-36.85
-40.40
-44.41
-48.34
-51.23
-52.08
-50.06
-44.90
-36.95
-27.26
-17.04
-7.40
0.96
7.86
13.40
17.82
21.37
24.20
26.35
27.93
29.04
29.72
30.05
30.03
29.62
28.85
27.76
26.48
25.28
24.41
24.01
24.15
24.74
25.56
26.39
26.99
27.19
26.98
26.43
25.68
24.94
24.34
23.94
23.71
23.45
22.99
22.15
20.82
18.91
16.53
13.85
11.10
8.57
6.40
4.60
3.08
1.60
-0.07
-2.04
-4.32
-6.87
-9.56
-12.32
-15.12
-17.92
-20.67
-23.30
-25.85
-28.39
-31.04
-33.74
-36.23
-37.93
-38.07
-36.02
-31.48
-24.78
-16.74
-8.41
-0.79
5.46
10.05
13.09
14.81
15.49
15.39
14.70
13.58
12.18
10.72
9.40
8.46
8.06
8.28
9.03
10.13
11.31
12.24
12.74
12.66
11.95
10.57
8.50
5.80
2.60
-0.78
-4.06
-6.91
-9.15
-10.77
-11.91
-12.81
-13.59
-14.31
-14.89
-15.24
-15.30
-15.15
-14.98
-14.99
-15.33
-16.05
-17.06
-18.16
-19.18
-19.97
-20.52
-20.92
-21.29
-21.82
-22.72
-24.27
-26.56
-29.48
-32.63
-35.24
-36.42
-35.33
-31.50
-25.12
-16.93
-8.02
0.45
7.62
13.14
16.99
19.46
20.91
21.66
21.95
21.99
21.86
21.69
21.49
21.19
20.71
19.96
18.95
17.76
16.56
15.54
14.85
14.53
14.47
14.40
14.10
13.37
12.19
10.63
8.87
7.14
5.59
4.29
3.28
2.51
1.90
1.38
0.87
0.24
-0.61
-1.83
-3.57
-5.88
-8.73
-12.04
-15.55
-18.97
-22.12
-24.93
-27.42
-29.73
-32.05
-34.56
-37.40
-40.56
-43.77
-46.45
-47.87
-47.22
-43.95
-38.03
-30.03
-20.93
-11.88
-3.81
2.79
7.88
11.70
14.62
16.82
18.37
19.31
19.71
19.68
19.40
19.04
18.68
18.31
17.86
17.24
16.41
15.44
14.37
13.31
12.35
11.51
10.74
9.94
9.03
7.91
6.66
5.35
4.19
3.27
2.60
2.07
1.44
0.55
-0.75
-2.45
-4.46
-6.64
-8.87
-11.12
-13.42
-15.81
-18.29
-20.87
-23.51
-26.21
-28.96
-31.83
-34.82
-37.69
-40.01
-41.14
-40.44
-37.43
-32.02
-24.55
-15.76
-6.62
2.04
9.55
15.54
19.99
23.03
24.91
25.86
26.03
25.50
24.42
22.87
20.99
18.93
16.84
14.93
13.40
12.44
12.17
12.59
13.49
14.53
15.30
15.34
14.38
12.45
9.75
6.67
3.54
0.56
-2.31
-5.18
-8.24
-11.46
-14.68
-17.65
-20.19
-22.30
-24.17
-26.10
-28.43
-31.43
-35.07
-39.08
-42.97
-45.95
-47.23
-46.17
-42.40
-36.14
-28.05
-19.05
-10.07
-1.89
5.13
10.94
15.66
19.58
22.82
25.45
27.45
28.76
29.36
29.35
28.87
28.11
27.31
26.60
26.05
25.65
25.38
25.21
25.16
25.15
24.97
24.37
23.03
20.78
17.66
13.92
9.94
6.12
2.69
-0.35
-3.13
-5.88
-8.75
-11.77
-14.85
-17.82
-20.47
-22.72
-24.60
-26.25
-27.98
-30.10
-32.88
-36.53
-41.03
-46.09
-51.03
-54.89
-56.55
-55.18
-50.41
-42.58
-32.63
-21.82
-11.30
-1.88
6.13
12.82
18.39
23.11
27.10
30.40
33.00
34.92
36.17
36.81
37.00
36.90
36.73
36.64
36.72
36.97
37.35
37.74
37.99
37.96
37.49
36.42
34.66
32.27
29.42
26.40
23.54
21.07
19.09
17.56
16.37
15.32
14.27
13.08
11.67
10.04
8.18
6.12
3.87
1.47
-1.03
-3.56
-6.05
-8.42
-10.64
-12.80
-15.03
-17.56
-20.54
-24.01
-27.86
-31.88
-35.72
-39.18
-42.11
-44.57
-46.82
-49.21
-52.08
-55.51
-59.28
-62.72
-64.90
-64.77
-61.53
-54.95
-45.40
-33.89
-21.64
-9.95
0.25
8.48
14.74
19.39
22.86
25.64
28.07
30.37
32.52
34.40
35.86
36.75
37.03
36.71
36.00
35.05
34.04
33.09
32.26
31.56
30.91
30.18
29.18
27.82
26.03
23.92
21.59
19.21
16.88
14.57
12.33
10.12
7.85
5.38
2.55
-0.76
-4.45
-8.28
-11.86
-14.78
-16.85
-18.17
-19.10
-20.20
-21.96
-24.67
-28.40
-32.87
-37.51
-41.51
-43.97
-44.09
-41.37
-35.80
-27.84
-18.36
-8.40
1.08
9.35
16.01
20.93
24.27
26.32
27.38
27.67
27.30
26.30
24.71
22.64
20.36
18.21
16.51
15.41
14.87
14.65
14.47
14.08
13.29
12.01
10.23
7.96
5.35
2.65
0.13
-2.03
-3.79
-5.27
-6.65
-8.17
-9.94
-11.99
-14.21
-16.50
-18.84
-21.12
-23.37
-25.61
-27.99
-30.70
-33.74
-36.86
-39.45
-40.73
-39.85
-36.33
-30.20
-22.00
-12.67
-3.18
5.67
13.41
19.81
24.88
28.68
31.30
32.87
33.46
33.26
32.42
31.16
29.65
28.10
26.71
25.66
25.12
25.07
25.44
25.92
26.18
25.96
25.17
23.86
22.12
20.06
17.69
14.95
11.78
8.19
4.33
0.42
-3.30
-6.69
-9.63
-12.16
-14.46
-16.80
-19.44
-22.50
-25.80
-28.76
-30.50
-29.99
-26.43
-19.59
-9.94
1.41
13.02
23.54
32.03
38.14
42.10
44.47
45.80
46.32
45.82
43.59
38.84
31.08
20.46
7.87
-5.20
-17.10
-26.47
-32.52
-35.06
-34.36
-30.74
-24.61
-16.41
-6.73
3.52
13.32
21.64
27.75
31.44
33.02
33.06
32.14
30.59
28.42
25.48
21.63
16.95
11.73
6.52
1.83
-2.03
-5.03
-7.47
-9.81
-12.40
-15.37
-18.52
-21.46
-23.80
-25.34
-26.12
-26.50
-26.96
-27.98
-29.92
-32.71
-35.89
-38.57
-39.59
-37.85
-32.76
-24.42
-13.83
-2.75
6.79
12.92
14.47
11.21
4.05
-5.35
-14.82
-22.22
-25.99
-25.29
-20.13
-11.14
0.59
13.71
26.78
38.40
47.42
53.13
55.42
54.78
52.04
48.21
44.05
40.02
36.27
32.77
29.51
26.56
24.08
22.18
21.01
20.55
20.63
21.00
21.29
21.26
20.76
19.76
18.34
16.67
14.88
13.08
11.30
9.46
7.43
5.17
2.69
0.11
-2.33
-4.39
-5.97
-7.09
-7.97
-8.95
-10.26
-12.04
-14.27
-16.80
-19.42
-21.94
-24.21
-26.32
-28.49
-31.09
-34.47
-38.72
-43.68
-48.75
-52.98
-55.32
-54.97
-51.60
-45.45
-37.39
-28.45
-19.70
-11.86
-5.18
0.50
5.53
10.26
14.93
19.51
23.79
27.46
30.25
31.98
32.65
32.40
31.53
30.35
29.12
28.07
27.27
26.77
26.51
26.38
26.21
25.82
25.06
23.81
22.16
20.20
18.07
15.95
13.92
12.07
10.33
8.68
6.98
5.24
3.50
1.95
0.78
0.15
0.07
0.31
0.56
0.48
-0.04
-1.00
-2.16
-3.35
-4.47
-5.56
-6.79
-8.27
-10.14
-12.36
-14.84
-17.49
-20.21
-22.94
-25.65
-28.26
-30.75
-33.16
-35.69
-38.55
-41.92
-45.75
-49.69
-53.10
-55.11
-54.91
-51.98
-46.34
-38.55
-29.55
-20.44
-12.15
-5.24
0.12
4.14
7.12
9.42
11.26
12.86
14.41
16.14
18.14
20.39
22.68
24.66
26.07
26.78
26.85
26.54
26.15
25.85
25.69
25.57
25.31
24.84
24.12
23.15
21.93
20.45
18.76
16.93
15.09
13.34
11.85
10.65
9.73
9.03
8.38
7.67
6.73
5.45
3.75
1.72
-0.49
-2.66
-4.64
-6.41
-8.02
-9.63
-11.37
-13.29
-15.30
-17.31
-19.16
-20.79
-22.20
-23.46
-24.73
-26.15
-27.83
-29.89
-32.38
-35.21
-38.11
-40.56
-41.88
-41.38
-38.68
-33.84
-27.43
-20.35
-13.53
-7.70
-3.24
-0.13
1.87
3.10
3.94
4.76
5.80
7.20
8.92
10.66
12.18
13.20
13.70
13.82
13.91
14.22
14.84
15.61
16.24
16.53
16.28
15.57
14.59
13.52
12.45
11.41
10.34
9.27
8.29
7.44
6.82
6.38
6.02
5.58
4.96
4.11
3.00
1.66
0.07
-1.69
-3.51
-5.19
-6.51
-7.39
-7.95
-8.56
-9.62
-11.43
-13.99
-17.03
-20.09
-22.70
-24.57
-25.65
-26.23
-26.66
-27.39
-28.72
-30.73
-33.18
-35.51
-37.01
-36.90
-34.76
-30.57
-24.80
-18.20
-11.56
-5.59
-0.66
3.08
5.76
7.58
8.82
9.67
10.31
10.87
11.38
11.86
12.30
12.70
13.05
13.44
13.90
14.43
14.99
15.49
15.89
16.17
16.32
16.42
16.53
16.64
16.66
16.52
16.22
15.83
15.43
15.03
14.52
13.75
12.48
10.65
8.31
5.71
3.16
0.86
-1.12
-2.90
-4.66
-6.57
-8.66
-10.88
-13.09
-15.13
-16.87
-18.24
-19.28
-20.16
-21.16
-22.51
-24.44
-26.96
-29.77
-32.30
-33.78
-33.49
-31.04
-26.57
-20.60
-13.89
-7.26
-1.24
3.85
7.98
11.25
13.75
15.57
16.74
17.29
17.33
17.01
16.53
16.12
15.99
16.25
16.94
17.96
19.10
20.16
21.03
21.58
21.79
21.62
20.98
19.87
18.21
16.04
13.49
10.79
8.18
5.80
3.76
2.04
0.63
-0.50
-1.41
-2.19
-2.93
-3.79
-4.93
-6.40
-8.24
-10.41
-12.82
-15.45
-18.26
-21.18
-24.12
-26.93
-29.55
-31.96
-34.36
-36.92
-39.82
-42.95
-45.96
-48.22
-48.96
-47.48
-43.47
-37.07
-28.88
-19.90
-11.15
-3.48
2.63
7.08
10.13
12.18
13.57
14.67
15.65
16.61
17.65
18.76
19.93
21.05
22.03
22.70
23.01
22.97
22.71
22.46
22.26
22.22
22.26
22.30
22.20
21.83
21.09
19.98
18.62
17.06
15.48
13.95
12.50
11.02
9.47
7.76
5.84
3.76
1.57
-0.61
-2.71
-4.63
-6.30
-7.72
-9.04
-10.50
-12.33
-14.61
-17.25
-20.07
-22.78
-25.19
-27.30
-29.29
-31.50
-34.24
-37.75
-42.04
-46.82
-51.41
-54.83
-56.07
-54.37
-49.52
-41.95
-32.60
-22.67
-13.27
-5.07
1.65
6.97
11.18
14.58
17.40
19.83
21.98
23.95
25.82
27.65
29.41
31.06
32.44
33.44
34.03
34.29
34.33
34.25
34.08
33.82
33.44
32.80
31.88
30.67
29.25
27.69
26.03
24.21
22.22
20.10
17.83
15.49
13.16
10.87
8.61
6.40
4.14
1.79
-0.64
-3.13
-5.61
-7.99
-10.23
-12.36
-14.43
-16.54
-18.72
-20.90
-22.98
-24.82
-26.44
-28.05
-29.94
-32.41
-35.75
-40.02
-45.08
-50.52
-55.66
-59.61
-61.43
-60.31
-55.80
-48.14
-38.13
-27.01
-16.11
-6.45
1.46
7.57
12.18
15.72
18.52
20.85
22.91
24.87
26.81
28.73
30.50
31.90
32.70
32.75
32.16
31.19
30.19
29.45
29.13
29.17
29.34
29.38
29.03
28.21
26.87
25.11
23.04
20.75
18.35
15.87
13.39
10.91
8.52
6.22
3.97
1.73
-0.55
-2.89
-5.32
-7.76
-10.20
-12.57
-14.84
-16.95
-18.90
-20.67
-22.26
-23.81
-25.43
-27.42
-30.08
-33.60
-37.86
-42.40
-46.27
-48.36
-47.71
-43.71
-36.47
-26.76
-15.78
-4.79
5.15
13.48
19.96
24.64
27.77
29.62
30.53
30.85
30.96
31.15
31.66
32.43
33.27
33.96
34.31
34.35
34.23
34.20
34.44
34.92
35.39
35.45
34.77
33.18
30.76
27.77
24.51
21.18
17.84
14.51
11.07
7.54
3.95
0.42
-2.95
-6.08
-9.01
-11.80
-14.48
-17.13
-19.77
-22.42
-25.01
-27.51
-29.91
-32.22
-34.60
-37.23
-40.42
-44.46
-49.37
-54.82
-60.03
-63.87
-65.17
-63.03
-57.11
-47.78
-36.05
-23.25
-10.77
0.32
9.47
16.55
21.86
25.92
29.27
32.31
35.27
38.10
40.66
42.80
44.33
45.15
45.20
44.56
43.30
41.65
39.77
37.94
36.40
35.27
34.55
34.09
33.60
32.76
31.42
29.48
27.12
24.58
22.07
19.70
17.38
14.92
12.16
9.11
5.90
2.82
0.08
-2.25
-4.24
-6.13
-8.24
-10.89
-14.25
-18.33
-22.94
-27.77
-32.48
-36.76
-40.50
-43.88
-47.18
-50.75
-54.90
-59.74
-65.01
-70.14
-74.11
-75.75
-74.02
-68.27
-58.63
-46.04
-32.00
-18.12
-5.68
4.68
12.88
19.23
24.17
28.10
31.31
34.04
36.47
38.66
40.55
41.98
42.79
42.86
42.28
41.23
40.09
39.12
38.48
38.17
38.08
38.05
37.89
37.41
36.45
34.98
33.01
30.70
28.29
25.97
23.84
21.89
20.04
18.13
16.05
13.65
10.89
7.83
4.62
1.58
-1.10
-3.22
-4.96
-6.58
-8.52
-11.03
-14.17
-17.80
-21.60
-25.43
-29.11
-32.65
-36.08
-39.50
-43.08
-46.99
-51.40
-56.22
-61.03
-64.88
-66.50
-64.70
-58.76
-48.81
-35.84
-21.43
-7.34
4.98
14.72
21.70
26.25
29.00
30.64
31.68
32.47
33.19
33.87
34.52
35.16
35.76
36.29
36.64
36.72
36.50
36.04
35.48
34.97
34.57
34.18
33.61
32.59
30.93
28.69
26.00
23.10
20.23
17.51
14.94
12.45
10.05
7.69
5.44
3.34
1.36
-0.56
-2.51
-4.56
-6.68
-8.83
-11.01
-13.30
-15.77
-18.48
-21.44
-24.54
-27.65
-30.56
-33.18
-35.52
-37.78
-40.21
-43.12
-46.60
-50.49
-54.29
-57.14
-58.11
-56.44
-51.73
-44.14
-34.32
-23.23
-11.87
-1.22
8.05
15.58
21.24
25.21
27.73
29.13
29.77
29.96
29.89
29.70
29.51
29.40
29.49
29.82
30.38
31.09
31.85
32.51
32.90
32.95
32.59
31.80
30.54
28.81
26.63
24.03
21.19
18.26
15.48
13.03
11.03
9.46
8.21
7.04
5.63
3.80
1.45
-1.32
-4.33
-7.44
-10.54
-13.61
-16.69
-19.79
-22.73
-25.34
-27.43
-28.89
-29.79
-30.30
-30.68
-31.20
-32.16
-33.78
-36.30
-39.81
-44.07
-48.53
-52.25
-54.17
-53.34
-49.24
-41.96
-32.20
-21.12
-9.97
0.08
8.27
14.25
18.06
20.07
20.84
20.82
20.42
19.95
19.49
19.14
18.93
18.84
18.91
19.24
19.82
20.63
21.62
22.72
23.87
24.99
25.89
26.39
26.33
25.57
24.07
21.79
18.78
15.16
11.07
6.74
2.49
-1.35
-4.51
-6.87
-8.56
-9.89
-11.15
-12.56
-14.14
-15.81
-17.46
-19.09
-20.80
-22.76
-25.24
-28.37
-32.22
-36.63
-41.30
-45.64
-48.78
-49.75
-47.63
-41.97
-33.04
-21.83
-9.66
2.07
12.30
20.50
26.58
30.67
32.92
33.54
32.68
30.74
28.21
25.61
23.43
21.95
21.23
21.12
21.44
21.99
22.60
23.14
23.50
23.65
23.54
23.13
22.27
20.82
18.67
15.80
12.41
8.84
5.51
2.64
0.23
-1.95
-4.24
-6.91
-10.06
-13.49
-16.91
-19.98
-22.52
-24.52
-26.22
-27.99
-30.27
-33.43
-37.44
-41.94
-46.10
-48.83
-49.07
-46.14
-39.98
-31.20
-20.90
-10.29
-0.43
8.02
14.80
19.98
23.73
26.36
28.16
29.47
30.56
31.58
32.56
33.37
33.84
33.81
33.24
32.25
30.92
29.39
27.71
25.96
24.22
22.51
20.85
19.15
17.32
15.20
12.67
9.70
6.44
3.07
-0.17
-3.08
-5.60
-7.74
-9.63
-11.43
-13.36
-15.52
-17.96
-20.62
-23.36
-26.10
-28.76
-31.39
-34.11
-37.14
-40.80
-45.27
-50.54
-56.16
-61.25
-64.55
-64.80
-61.13
-53.39
-42.32
-29.28
-15.86
-3.41
7.21
15.63
21.88
26.18
28.90
30.47
31.34
31.99
32.74
33.72
34.79
35.67
36.12
36.12
35.80
35.44
35.28
35.39
35.68
35.96
36.00
35.63
34.79
33.49
31.82
29.87
27.73
25.52
23.33
21.28
19.42
17.68
15.91
13.98
11.72
9.09
6.16
3.08
0.04
-2.85
-5.58
-8.26
-10.94
-13.76
-16.75
-19.91
-23.25
-26.66
-30.02
-33.24
-36.21
-38.94
-41.61
-44.47
-47.86
-52.06
-57.01
-62.25
-66.85
-69.60
-69.37
-65.41
-57.59
-46.52
-33.42
-19.71
-6.78
4.40
13.27
19.79
24.30
27.37
29.64
31.52
33.32
35.06
36.65
38.06
39.24
40.25
41.15
41.88
42.28
42.29
41.81
40.86
39.57
38.03
36.20
34.02
31.43
28.47
25.41
22.49
20.08
18.40
17.47
17.18
17.22
17.31
17.13
16.47
15.14
13.08
10.40
7.30
4.10
1.06
-1.66
-4.12
-6.48
-9.00
-11.81
-14.91
-18.21
-21.47
-24.49
-27.18
-29.54
-31.63
-33.58
-35.58
-37.76
-40.36
-43.54
-47.29
-51.31
-54.86
-56.92
-56.40
-52.52
-45.04
-34.54
-22.22
-9.41
2.65
13.10
21.41
27.33
30.70
31.45
29.62
25.51
19.76
13.34
7.31
2.64
-0.03
-0.40
1.58
5.73
11.84
19.58
28.37
37.29
45.13
50.52
52.54
50.98
46.49
40.35
33.90
28.11
23.28
19.28
15.68
12.27
9.06
6.29
4.13
2.56
1.39
0.24
-1.08
-2.63
-4.35
-6.12
-7.87
-9.59
-11.37
-13.26
-15.33
-17.65
-20.38
-23.92
-28.87
-35.90
-45.36
-56.98
-69.61
-81.33
-89.81
-93.00
-89.70
-79.88
-64.58
-45.59
-24.94
-4.58
13.81
28.95
40.00
46.64
49.19
48.55
45.97
42.69
39.53
36.87
34.62
32.57
30.59
28.83
27.58
27.13
27.62
28.83
30.36
31.72
32.50
32.45
31.48
29.62
26.92
23.59
19.90
16.17
12.81
10.06
8.02
6.56
5.44
4.37
3.24
2.05
0.91
-0.05
-0.80
-1.39
-2.07
-3.10
-4.76
-7.13
-10.11
-13.44
-16.78
-19.83
-22.32
-24.20
-25.66
-27.10
-29.09
-32.20
-36.78
-42.80
-49.70
-56.52
-62.13
-65.60
-66.34
-64.27
-59.68
-53.07
-45.02
-36.00
-26.33
-16.20
-5.67
5.21
16.19
26.73
36.02
43.29
47.98
50.06
49.93
48.42
46.29
44.14
42.22
40.58
39.23
38.21
37.59
37.30
37.18
36.82
35.90
34.16
31.64
28.55
25.24
22.00
19.01
16.35
13.90
11.49
8.96
6.21
3.24
0.20
-2.73
-5.34
-7.70
-10.05
-12.78
-16.10
-20.03
-24.19
-28.10
-31.25
-33.41
-34.70
-35.59
-36.73
-38.59
-41.49
-45.33
-49.70
-53.77
-56.55
-57.01
-54.48
-49.06
-41.68
-34.06
-28.10
-25.12
-25.34
-27.70
-30.35
-31.38
-29.71
-25.33
-19.04
-11.85
-4.42
3.17
11.18
19.81
28.82
37.41
44.54
49.37
51.58
51.40
49.46
46.50
43.15
39.80
36.55
33.51
30.70
28.24
26.20
24.50
22.98
21.41
19.75
18.34
17.85
19.01
22.14
26.84
32.00
36.04
37.51
35.55
30.06
21.56
10.84
-1.26
-14.07
-26.96
-39.35
-50.66
-60.36
-68.14
-73.85
-77.38
-78.55
-76.95
-72.15
-63.93
-52.58
-38.91
-24.29
-10.23
1.98
11.52
18.24
22.50
24.97
26.32
27.12
27.58
27.82
27.82
27.61
27.35
27.23
27.39
27.81
28.36
28.78
28.92
28.73
28.24
27.51
26.52
25.17
23.38
21.06
18.28
15.26
12.35
9.76
7.61
5.82
4.22
2.63
0.89
-1.10
-3.40
-6.03
-9.03
-12.37
-15.98
-19.70
-23.32
-26.70
-29.76
-32.62
-35.50
-38.70
-42.52
-47.07
-52.12
-57.00
-60.75
-62.27
-60.69
-55.76
-47.75
-37.53
-26.20
-14.83
-4.23
5.11
13.00
19.42
24.45
28.30
31.21
33.38
34.99
36.08
36.63
36.62
36.03
34.90
33.34
31.54
29.62
27.78
26.15
24.86
23.91
23.20
22.53
21.63
20.36
18.61
16.57
14.46
12.54
10.96
9.62
8.31
6.79
4.93
2.75
0.52
-1.53
-3.19
-4.35
-5.19
-5.97
-6.99
-8.50
-10.57
-13.08
-15.79
-18.46
-20.87
-23.06
-25.26
-27.90
-31.49
-36.50
-43.05
-50.78
-58.89
-66.10
-71.04
-72.49
-69.82
-63.16
-53.35
-41.65
-29.30
-17.18
-5.54
5.65
16.66
27.43
37.49
46.09
52.47
56.18
57.21
56.04
53.18
49.12
44.18
38.59
32.74
27.25
22.84
20.10
19.31
20.13
21.82
23.48
24.36
24.21
23.17
21.70
20.29
19.41
19.21
19.62
20.36
20.95
20.98
20.08
18.11
15.18
11.65
8.05
4.87
2.52
1.13
0.77
1.37
2.90
5.35
8.50
11.72
13.92
13.82
10.20
2.44
-9.32
-24.13
-40.40
-56.22
-69.73
-79.40
-84.17
-83.80
-78.81
-70.37
-59.99
-49.05
-38.54
-28.96
-20.45
-12.97
-6.52
-1.07
3.42
7.03
10.01
12.53
14.78
16.91
19.02
21.15
23.43
25.95
28.71
31.66
34.55
37.06
38.82
39.51
38.86
36.85
33.73
29.92
26.05
22.57
19.84
17.89
16.52
15.36
14.04
12.33
10.18
7.80
5.40
3.12
0.94
-1.34
-3.96
-7.03
-10.51
-14.18
-17.70
-20.83
-23.52
-25.91
-28.40
-31.48
-35.55
-40.81
-47.05
-53.62
-59.53
-63.65
-64.94
-62.85
-57.37
-49.09
-38.99
-28.22
-17.80
-8.47
-0.53
6.06
11.52
16.21
20.41
24.26
27.73
30.77
33.15
34.81
35.70
35.80
35.25
34.27
33.10
32.04
31.36
31.13
31.30
31.66
31.98
31.98
31.57
30.74
29.50
27.89
25.88
23.44
20.50
17.11
13.34
9.33
5.33
1.63
-1.52
-3.90
-5.47
-6.40
-7.02
-7.66
-8.66
-10.17
-12.15
-14.51
-17.11
-19.91
-22.91
-26.20
-29.80
-33.75
-38.05
-42.70
-47.48
-52.01
-55.56
-57.18
-55.98
-51.42
-43.61
-33.36
-22.03
-10.99
-1.42
6.07
11.43
15.08
17.54
19.34
20.86
22.25
23.56
24.77
25.81
26.59
27.00
26.92
26.30
25.27
24.05
22.94
22.13
21.75
21.76
22.01
22.31
22.54
22.56
22.33
21.86
21.15
20.29
19.31
18.18
16.94
15.53
13.94
12.11
10.02
7.68
5.12
2.46
-0.15
-2.56
-4.78
-6.89
-9.11
-11.66
-14.67
-18.14
-21.85
-25.42
-28.39
-30.49
-31.60
-31.94
-31.95
-32.24
-33.33
-35.47
-38.56
-41.98
-44.94
-46.61
-46.50
-44.68
-41.83
-38.97
-37.12
-36.81
-37.87
-39.49
-40.48
-39.76
-36.58
-30.68
-22.27
-11.85
-0.16
11.95
23.54
33.66
41.58
46.93
49.89
51.00
51.02
50.54
49.96
49.31
48.37
46.81
44.31
40.66
35.90
30.29
24.23
18.28
12.87
8.36
4.88
2.43
0.87
-0.01
-0.48
-0.91
-1.61
-2.88
-4.85
-7.50
-10.61
-13.91
-17.05
-19.76
-21.91
-23.55
-24.85
-26.18
-27.81
-29.97
-32.58
-35.25
-37.16
-37.45
-35.35
-30.58
-23.55
-15.30
-7.34
-1.18
2.11
2.33
0.04
-3.52
-6.92
-8.98
-9.00
-6.68
-2.15
4.35
12.46
21.54
30.80
39.27
45.99
50.33
52.15
51.73
49.66
46.57
42.89
38.94
34.85
30.68
26.47
22.26
18.08
13.98
10.15
6.71
3.87
1.68
0.05
-1.27
-2.59
-4.19
-6.23
-8.68
-11.48
-14.50
-17.63
-20.77
-23.87
-26.95
-30.03
-33.26
-36.68
-40.40
-44.27
-47.97
-50.93
-52.33
-51.41
-47.58
-40.76
-31.38
-20.57
-9.59
0.32
8.25
13.97
17.69
19.98
21.46
22.73
24.09
25.67
27.49
29.36
31.04
32.22
32.66
32.29
31.33
30.19
29.26
28.83
28.92
29.24
29.36
28.87
27.46
25.19
22.39
19.53
17.09
15.33
14.25
13.49
12.56
11.02
8.67
5.62
2.18
-1.28
-4.62
-7.82
-11.07
-14.69
-19.07
-24.61
-31.64
-40.23
-49.98
-60.03
-69.16
-76.14
-80.25
-81.45
-80.25
-77.23
-72.65
-66.13
-57.03
-44.90
-29.98
-13.33
3.34
18.26
30.12
38.35
43.13
45.14
45.18
44.02
42.33
40.60
39.21
38.36
38.16
38.50
39.03
39.16
38.25
35.70
31.19
24.83
17.11
9.03
1.72
-3.73
-6.63
-6.84
-4.76
-0.99
4.00
9.94
16.69
23.83
30.59
35.84
38.49
37.93
34.31
28.60
22.12
15.97
10.69
6.25
2.21
-1.98
-6.64
-11.80
-17.18
-22.37
-26.92
-30.57
-33.30
-35.29
-37.10
-39.24
-42.19
-46.16
-50.99
-56.12
-60.72
-63.79
-64.38
-61.80
-55.84
-46.82
-35.59
-23.36
-11.37
-0.54
8.67
16.13
22.00
26.36
29.09
29.88
28.48
24.93
19.84
14.20
9.18
5.79
4.72
6.16
9.96
15.75
22.93
30.73
38.05
43.73
46.79
46.85
44.18
39.74
34.76
30.24
26.72
24.08
21.86
19.55
16.91
14.01
11.15
8.58
6.33
4.25
2.05
-0.45
-3.26
-6.27
-9.27
-12.09
-14.66
-17.05
-19.32
-21.58
-23.94
-26.48
-29.26
-32.14
-34.79
-36.65
-37.05
-35.36
-31.27
-24.87
-16.66
-7.47
1.81
10.41
17.78
23.64
27.97
30.92
32.76
33.80
34.35
34.68
34.98
35.32
35.58
35.47
34.48
31.87
26.98
19.37
9.19
-2.65
-14.61
-25.02
-32.37
-35.90
-35.60
-32.06
-26.08
-18.36
-9.41
0.34
10.12
18.94
25.71
29.58
30.26
28.13
23.97
18.65
12.87
7.00
1.22
-4.34
-9.48
-13.93
-17.47
-20.14
-22.22
-24.27
-26.87
-30.40
-34.86
-39.65
-43.63
-45.57
-44.52
-40.29
-33.61
-25.95
-18.99
-14.12
-11.94
-12.10
-13.60
-15.24
-16.01
-15.29
-12.91
-8.95
-3.54
2.98
10.24
17.69
24.79
31.23
37.09
42.59
47.89
52.73
56.29
57.52
55.61
50.43
42.64
33.39
23.96
15.32
8.09
2.57
-1.04
-2.64
-2.43
-0.85
1.28
3.11
3.99
3.73
2.56
0.96
-0.62
-2.09
-3.61
-5.55
-8.24
-11.73
-15.80
-20.09
-24.21
-27.91
-31.28
-34.54
-38.07
-42.13
-46.56
-50.77
-53.78
-54.50
-52.05
-46.18
-37.33
-26.53
-15.13
-4.29
5.09
12.64
18.34
22.49
25.47
27.71
29.53
31.10
32.51
33.74
34.74
35.48
35.96
36.33
36.79
37.43
38.20
38.68
38.08
35.38
29.72
20.70
8.73
-5.02
-18.83
-30.97
-40.05
-45.30
-46.48
-43.77
-37.61
-28.69
-18.08
-7.14
2.58
9.63
13.19
13.26
10.62
6.49
2.01
-2.11
-5.70
-8.92
-12.12
-15.44
-18.78
-21.94
-24.73
-27.18
-29.56
-32.13
-34.96
-37.67
-39.41
-39.00
-35.46
-28.43
-18.46
-6.87
4.71
14.84
22.74
28.33
32.00
34.32
35.82
36.83
37.53
37.98
38.03
37.30
35.28
31.26
24.67
15.44
4.12
-8.13
-19.73
-29.16
-35.22
-37.24
-35.19
-29.55
-21.05
-10.63
0.62
11.46
20.65
27.16
30.52
30.81
28.69
25.07
20.79
16.39
12.07
7.85
3.76
-0.07
-3.47
-6.35
-8.81
-11.32
-14.53
-19.16
-25.68
-34.16
-43.92
-53.74
-61.91
-66.80
-67.27
-63.08
-54.78
-43.55
-30.57
-16.75
-2.56
11.55
24.99
36.75
45.68
50.99
52.59
51.24
48.22
44.84
41.94
39.84
38.35
37.15
36.05
34.97
33.96
33.03
32.13
31.15
30.01
28.59
26.80
24.54
21.76
18.47
14.78
10.89
7.09
3.68
0.78
-1.63
-3.74
-5.80
-7.95
-10.09
-12.00
-13.37
-13.96
-13.84
-13.29
-12.95
-13.73
-16.61
-22.47
-31.80
-44.40
-59.01
-73.49
-85.18
-91.70
-91.67
-84.99
-72.83
-57.07
-39.79
-22.66
-6.90
6.75
17.84
26.15
31.80
35.11
36.69
37.18
37.16
36.99
36.85
36.89
37.17
37.68
38.29
38.90
39.39
39.78
40.17
40.59
41.04
41.31
41.18
40.45
39.16
37.41
35.21
32.34
28.18
22.02
13.34
2.18
-10.70
-23.95
-36.05
-45.74
-52.30
-55.65
-56.11
-54.17
-50.34
-45.05
-38.89
-32.58
-26.99
-22.97
-21.18
-21.76
-24.38
-28.32
-32.58
-36.21
-38.34
-38.26
-35.47
-29.86
-21.74
-11.91
-1.57
8.01
15.73
21.03
23.98
25.21
25.68
26.27
27.60
29.73
32.36
34.86
36.54
36.82
35.37
32.22
27.59
21.96
15.85
9.87
4.58
0.44
-2.27
-3.50
-3.41
-2.38
-0.81
0.91
2.53
3.98
5.37
6.76
8.31
10.11
12.24
14.68
17.23
19.32
20.16
18.84
14.68
7.50
-2.23
-13.46
-24.82
-34.92
-42.74
-47.54
-49.05
-47.37
-43.01
-37.02
-30.93
-26.32
-24.22
-24.76
-26.93
-29.07
-29.56
-27.57
-23.47
-18.63
-14.49
-11.98
-10.98
-10.40
-8.76
-4.71
2.55
13.03
25.88
39.80
53.17
64.41
72.22
75.73
74.50
68.63
58.63
45.39
30.19
14.55
0.10
-11.61
-19.45
-22.89
-21.95
-17.12
-9.28
0.48
10.88
20.57
28.35
33.39
35.39
34.71
32.05
28.18
23.72
18.93
13.85
8.56
3.22
-1.94
-6.62
-10.69
-14.19
-17.37
-20.56
-24.12
-28.24
-32.97
-38.16
-43.37
-47.96
-51.13
-52.15
-50.56
-46.34
-39.83
-31.74
-22.96
-14.32
-6.51
0.13
5.51
9.73
13.04
15.75
18.08
20.09
21.78
22.98
23.68
23.89
23.74
23.40
23.06
22.86
22.83
23.04
23.42
23.91
24.38
24.63
24.49
23.81
22.55
20.79
18.71
16.52
14.38
12.32
10.26
8.14
5.84
3.44
1.10
-0.95
-2.58
-3.78
-4.68
-5.60
-6.78
-8.49
-10.78
-13.51
-16.40
-19.21
-21.82
-24.35
-27.30
-31.38
-37.32
-45.49
-55.67
-66.86
-77.40
-85.42
-89.11
-87.29
-79.63
-66.77
-50.14
-31.72
-13.64
2.22
14.52
22.78
27.23
28.70
28.25
26.94
25.48
24.27
23.43
22.92
22.73
22.80
23.07
23.52
24.13
24.82
25.54
26.21
26.74
27.04
27.03
26.68
25.97
24.86
23.35
21.49
19.45
17.52
15.92
14.78
14.05
13.50
12.89
12.01
10.75
9.05
6.80
3.89
0.23
-4.09
-8.75
-13.19
-16.84
-19.32
-20.61
-21.05
-21.12
-21.36
-22.15
-23.58
-25.39
-27.03
-27.80
-26.90
-23.82
-18.48
-11.24
-2.89
5.59
13.49
20.31
25.95
30.57
34.33
37.15
38.67
38.26
35.15
28.88
19.47
7.69
-5.17
-17.54
-28.14
-36.14
-41.28
-43.67
-43.40
-40.34
-34.23
-24.99
-13.01
0.62
14.38
26.53
35.64
40.97
42.53
40.94
37.09
31.86
25.88
19.56
13.16
6.85
0.87
-4.57
-9.29
-13.31
-16.79
-20.09
-23.47
-27.12
-31.10
-35.31
-39.62
-43.81
-47.62
-50.65
-52.43
-52.36
-49.96
-45.03
-37.72
-28.67
-18.76
-8.97
-0.12
7.28
13.05
17.36
20.53
22.97
25.00
26.79
28.31
29.49
30.22
30.40
30.13
29.54
28.79
28.05
27.41
26.87
26.39
25.87
25.22
24.49
23.72
22.99
22.31
21.54
20.45
18.86
16.66
13.88
10.71
7.36
3.98
0.61
-2.74
-6.13
-9.51
-12.78
-15.79
-18.38
-20.48
-22.14
-23.48
-24.61
-25.66
-26.67
-27.71
-28.91
-30.44
-32.46
-34.89
-37.41
-39.37
-40.09
-39.10
-36.49
-32.92
-29.45
-27.21
-26.93
-28.71
-31.97
-35.61
-38.33
-38.98
-36.70
-31.03
-21.95
-9.88
4.13
18.53
31.44
41.14
46.60
47.83
45.73
41.76
37.37
33.47
30.45
28.18
26.39
24.88
23.47
21.96
20.11
17.70
14.65
11.19
7.69
4.49
1.85
-0.25
-2.00
-3.61
-5.20
-6.80
-8.23
-9.35
-10.10
-10.48
-10.73
-11.16
-12.02
-13.42
-15.23
-16.99
-18.08
-17.90
-16.01
-12.35
-7.26
-1.31
4.88
10.72
15.87
20.18
23.60
26.25
28.15
29.37
29.97
29.95
29.36
28.37
27.18
26.05
25.34
25.17
25.35
25.22
23.68
19.56
12.19
1.69
-10.89
-23.77
-35.15
-43.74
-49.00
-51.17
-50.81
-48.37
-44.06
-37.99
-30.34
-21.74
-13.22
-5.87
-0.60
2.16
2.55
1.02
-1.87
-5.55
-9.48
-13.17
-15.95
-17.24
-16.51
-13.59
-8.80
-2.89
3.16
8.49
12.46
14.87
15.96
16.20
16.14
16.17
16.46
17.00
17.75
18.65
19.70
20.83
21.90
22.73
23.11
22.90
22.12
20.94
19.57
18.16
16.72
15.07
13.14
10.80
8.08
5.10
2.05
-0.85
-3.46
-5.74
-7.93
-10.15
-12.62
-15.45
-18.57
-21.79
-24.85
-27.42
-29.12
-29.69
-28.76
-26.12
-21.80
-16.10
-9.61
-3.08
2.80
7.58
11.06
13.27
14.28
14.16
13.04
11.05
8.62
6.29
4.72
4.35
5.34
7.49
10.45
14.00
17.98
22.46
27.37
32.41
36.84
39.76
40.33
38.11
33.38
26.81
19.35
11.83
4.82
-1.48
-6.95
-11.51
-14.99
-17.21
-18.25
-18.44
-18.44
-18.96
-20.55
-23.22
-26.46
-29.36
-30.86
-30.22
-27.12
-21.79
-14.81
-6.94
1.07
8.65
15.33
20.84
25.07
27.99
29.81
30.81
31.38
31.90
32.59
33.43
34.29
34.95
35.18
34.85
33.97
32.65
31.09
29.54
28.11
26.89
25.86
24.94
23.93
22.69
21.14
19.29
17.22
14.98
12.59
10.05
7.36
4.55
1.74
-0.90
-3.21
-5.18
-6.86
-8.47
-10.18
-12.12
-14.25
-16.51
-18.78
-20.98
-23.08
-25.07
-26.92
-28.58
-29.95
-30.94
-31.68
-32.36
-33.36
-34.98
-37.29
-39.96
-42.28
-43.27
-42.08
-38.25
-31.95
-23.99
-15.43
-7.26
-0.25
5.39
9.78
13.25
16.13
18.65
20.94
23.03
25.00
26.75
28.18
29.13
29.50
29.23
28.45
27.40
26.33
25.52
25.07
25.05
25.38
25.89
26.34
26.55
26.31
25.63
24.64
23.51
22.44
21.52
20.64
19.56
17.98
15.56
12.01
7.17
1.09
-5.96
-13.50
-20.98
-27.77
-33.26
-37.01
-38.77
-38.54
-36.65
-33.61
-30.04
-26.54
-23.41
-20.69
-18.16
-15.47
-12.29
-8.56
-4.56
-0.93
1.51
2.03
0.18
-3.91
-9.56
-15.54
-20.61
-23.68
-24.19
-22.04
-17.65
-11.86
-5.56
0.40
5.51
9.47
12.38
14.42
15.90
17.02
17.88
18.48
18.91
19.26
19.57
19.95
20.33
20.57
20.47
20.01
19.23
18.41
17.75
17.32
17.00
16.45
15.32
13.41
10.90
8.25
6.01
4.50
3.79
3.65
3.67
3.46
2.75
1.23
-1.53
-6.04
-12.75
-21.66
-31.98
-42.29
-50.85
-56.15
-57.56
-55.29
-50.21
-43.22
-35.02
-25.92
-16.18
-6.34
2.70
9.82
14.08
15.06
13.05
8.78
3.12
-3.11
-9.41
-15.44
-20.90
-25.35
-28.29
-29.12
-27.61
-23.86
-18.40
-12.06
-5.76
-0.19
4.35
7.85
10.58
12.77
14.66
16.35
17.90
19.30
20.49
21.30
21.50
20.91
19.51
17.61
15.70
14.20
13.39
13.19
13.28
13.24
12.88
12.13
11.12
9.95
8.67
7.37
6.17
5.19
4.55
4.36
4.52
4.89
5.27
5.50
5.58
5.63
5.72
5.83
5.67
4.57
1.69
-3.75
-12.17
-23.20
-35.59
-47.56
-57.22
-63.22
-65.09
-63.25
-58.60
-52.15
-44.71
-36.77
-28.77
-21.22
-14.76
-9.94
-6.97
-5.51
-4.84
-4.09
-2.67
-0.41
2.42
5.28
7.63
9.13
9.81
9.90
9.78
9.84
10.30
11.24
12.60
14.20
15.82
17.25
18.33
18.87
18.81
18.13
16.93
15.42
13.83
12.38
11.25
10.48
9.98
9.62
9.14
8.36
7.21
5.70
3.99
2.28
0.73
-0.62
-1.78
-2.88
-4.01
-5.20
-6.40
-7.52
-8.44
-9.15
-9.64
-9.99
-10.32
-10.68
-11.05
-11.28
-11.33
-11.14
-10.84
-10.56
-10.43
-10.59
-11.05
-11.76
-12.70
-13.81
-14.98
-16.00
-16.56
-16.27
-14.94
-12.66
-9.80
-6.89
-4.42
-2.62
-1.43
-0.61
0.14
1.06
2.27
3.71
5.33
6.95
8.43
9.55
10.10
9.94
9.07
7.69
6.12
4.72
3.74
3.27
3.21
3.33
3.51
3.65
3.83
4.19
4.76
5.46
6.10
6.50
6.49
6.12
5.51
4.93
4.63
4.86
5.66
6.81
7.80
7.83
6.12
2.13
-4.07
-11.89
-20.22
-27.97
-34.31
-38.95
-41.94
-43.58
-44.07
-43.46
-41.69
-38.78
-34.83
-30.03
-24.63
-18.83
-12.83
-6.84
-1.17
3.84
7.82
10.54
12.03
12.51
12.27
11.68
11.00
10.38
9.85
9.37
8.87
8.30
7.73
7.18
6.79
6.59
6.59
6.70
6.88
7.07
7.25
7.49
7.76
8.02
8.07
7.68
6.70
5.15
3.17
0.93
-1.39
-3.66
-5.82
-7.95
-10.06
-12.14
-14.07
-15.77
-17.16
-18.24
-19.12
-19.90
-20.78
-21.91
-23.40
-25.32
-27.77
-30.79
-34.29
-37.98
-41.30
-43.44
-43.64
-41.43
-36.84
-30.37
-22.83
-15.10
-7.92
-1.81
3.01
6.48
8.71
9.99
10.65
11.01
11.32
11.64
11.94
12.19
12.42
12.75
13.34
14.33
15.78
17.66
19.86
22.19
24.45
26.43
27.96
28.93
29.38
29.45
29.19
28.66
27.69
26.14
23.76
20.46
16.17
10.94
4.81
-2.10
-9.57
-17.27
-24.78
-31.71
-37.70
-42.47
-45.95
-48.16
-49.32
-49.75
-49.89
-50.20
-51.11
