1565638877.00
64.000000
-0.00
-0.00
-0.00
-0.00
-0.00
-0.00
-0.00
-0.00
-0.00
-0.00
0.00
0.01
0.01
-0.00
-0.03
-0.05
-0.05
0.00
0.13
0.36
0.66
1.01
1.37
1.72
2.06
2.40
2.79
3.24
3.80
4.43
5.08
5.70
6.28
6.81
7.37
8.03
8.85
9.91
11.15
12.46
13.70
14.85
15.93
17.12
18.62
20.58
23.23
26.37
29.73
33.02
36.09
39.00
42.09
45.81
50.46
56.45
63.43
70.88
78.24
85.16
91.74
98.49
106.14
115.25
126.38
139.02
152.39
165.59
178.06
189.84
201.58
214.68
227.89
243.56
262.33
284.30
308.25
331.26
348.96
356.72
351.20
331.64
300.50
261.68
219.49
177.09
135.89
96.07
57.41
20.21
-14.65
-45.75
-72.45
-94.94
-113.99
-130.46
-144.81
-157.00
-166.45
-172.62
-175.17
-174.66
-172.32
-169.73
-168.42
-169.03
-171.49
-175.00
-178.38
-180.50
-180.94
-180.11
-179.12
-179.37
-181.96
-187.24
-194.59
-202.69
-210.07
-215.77
-219.84
-223.31
-227.79
-235.03
-246.24
-261.64
-280.15
-299.45
-316.31
-327.17
-328.93
-319.68
-299.40
-270.21
-236.01
-201.48
-170.80
-146.46
-128.62
-115.39
-103.92
-91.87
-78.47
-64.75
-52.60
-43.38
-36.78
-30.70
-22.47
-10.48
4.55
19.77
31.58
37.60
38.08
35.69
34.04
35.51
39.93
44.66
46.31
42.85
35.13
26.69
21.95
23.92
32.35
43.88
53.67
57.94
55.82
49.65
43.28
39.62
39.03
39.13
36.81
30.46
21.53
14.03
12.24
18.17
30.06
43.06
51.66
52.48
45.94
35.75
26.74
22.16
22.18
24.13
24.57
21.54
15.88
10.76
9.67
14.29
23.15
32.29
37.27
35.59
28.08
18.49
11.39
9.67
13.00
18.02
20.29
16.84
7.83
-3.56
-13.03
-17.52
-16.93
-14.10
-13.13
-17.00
-25.85
-36.82
-45.71
-49.07
-46.13
-39.01
-31.44
-26.55
-25.24
-25.85
-25.41
-21.65
-14.47
-6.03
0.55
3.17
2.05
-0.40
-1.08
1.94
8.08
14.59
17.97
15.97
8.86
-0.64
-8.82
-12.83
-12.23
-8.99
-6.27
-6.56
-10.07
-14.60
-16.83
-14.13
-6.34
4.09
13.29
18.15
18.10
15.35
13.60
15.81
22.34
30.62
36.68
37.45
32.67
25.15
19.09
17.72
21.42
27.62
32.55
33.58
30.83
27.08
25.90
29.41
36.92
45.24
50.67
51.03
46.96
41.41
37.79
37.94
41.12
44.57
45.09
41.03
33.30
25.00
19.74
19.65
24.26
30.49
34.42
33.38
27.53
19.84
14.40
14.10
18.88
25.64
30.01
28.94
22.52
13.93
7.61
6.57
10.64
16.60
20.16
18.45
11.65
2.78
-4.29
-7.11
-6.10
-4.26
-5.45
-12.15
-24.08
-38.27
-50.66
-58.18
-60.20
-58.75
-57.17
-58.23
-62.57
-68.46
-73.05
-73.99
-70.91
-65.29
-59.18
-53.37
-46.36
-34.95
-16.06
11.25
45.08
81.28
115.79
146.50
173.67
199.11
224.23
247.92
265.84
272.28
262.27
234.61
193.13
145.53
100.01
62.25
33.09
8.59
-17.51
-50.70
-93.30
-143.84
-198.68
-254.06
-307.39
-357.12
-401.69
-438.61
-464.63
-477.49
-476.39
-462.70
-439.60
-410.77
-378.99
-345.09
-307.75
-263.91
-209.83
-142.58
-61.95
28.39
120.94
206.29
276.15
326.08
357.18
375.22
387.82
400.95
416.76
433.57
447.71
455.87
456.59
450.16
437.51
419.11
394.62
363.56
326.13
283.86
239.38
195.72
155.28
119.22
87.39
58.74
32.15
7.02
-16.38
-37.14
-54.18
-66.83
-75.21
-80.21
-83.26
-85.78
-88.79
-92.75
-97.54
-102.78
-108.07
-113.14
-117.68
-121.72
-125.15
-127.57
-128.32
-126.61
-121.75
-113.23
-101.09
-85.89
-68.61
-50.32
-32.07
-14.72
1.13
15.15
27.23
37.42
45.90
52.73
58.03
61.90
64.47
65.84
66.24
65.95
65.25
64.32
63.08
61.50
59.31
56.31
52.51
48.11
43.47
38.92
34.52
29.69
23.68
15.59
4.80
-8.74
-24.46
-41.23
-57.82
-72.17
-84.24
-94.76
-104.77
-115.07
-125.80
-136.28
-145.28
-151.81
-155.37
-156.68
-156.99
-157.67
-159.85
-164.50
-172.38
-183.78
-197.80
-211.53
-220.31
-218.69
-202.86
-172.76
-132.75
-90.13
-52.19
-23.80
-5.21
6.21
14.28
21.89
31.00
42.97
59.36
81.57
109.55
140.30
167.50
183.54
182.37
161.75
124.13
75.69
24.55
-20.99
-53.72
-68.61
-63.56
-40.22
-4.10
36.47
72.64
97.68
108.78
107.20
96.91
82.61
68.09
56.12
48.24
45.44
48.60
58.02
72.81
90.26
106.03
115.20
114.20
102.13
81.05
54.80
26.85
-1.35
-30.66
-62.79
-97.88
-132.80
-161.42
-176.86
-174.83
-156.00
-126.00
-93.14
-64.94
-45.61
-35.41
-32.06
-32.76
-35.98
-41.76
-50.18
-60.09
-68.45
-70.82
-62.96
-42.46
-9.71
31.83
76.03
115.41
142.77
153.67
148.16
131.18
111.05
96.07
91.04
95.73
105.68
115.02
119.61
118.80
115.26
113.13
115.85
124.63
138.42
154.81
171.19
185.46
195.96
200.97
197.47
182.28
152.81
108.16
49.77
-18.38
-90.51
-160.32
-222.54
-273.92
-313.99
-344.56
-368.37
-387.88
-403.88
-415.30
-419.64
-415.09
-399.10
-369.36
-324.57
-265.33
-195.20
-120.99
-51.71
3.90
40.54
58.49
63.29
62.91
64.94
73.85
90.15
111.54
135.01
158.50
181.25
202.84
222.15
237.21
245.86
246.87
240.65
229.11
215.07
201.06
188.51
177.47
167.11
156.30
144.47
131.92
119.65
108.96
100.80
95.36
92.02
89.64
86.99
83.24
78.18
72.05
65.33
58.37
51.17
43.40
35.15
25.78
15.06
3.19
-9.25
-21.50
-32.78
-42.61
-50.65
-56.78
-61.05
-63.47
-64.05
-62.82
-59.86
-55.29
-49.41
-42.54
-34.91
-26.78
-18.30
-9.56
-0.66
8.34
17.41
26.33
34.96
43.17
50.86
58.04
64.72
70.97
76.90
82.65
88.05
92.97
97.30
100.82
103.29
104.35
103.49
100.08
95.20
89.24
82.47
75.15
67.53
59.91
52.70
46.28
41.07
37.50
35.67
35.59
37.27
40.53
45.13
50.70
56.83
63.08
68.99
73.97
77.56
79.43
79.47
77.73
74.45
69.98
64.68
58.95
52.97
46.93
40.93
35.10
29.58
24.46
19.85
15.82
12.32
9.13
6.02
2.79
-0.68
-4.36
-8.12
-11.73
-15.10
-18.31
-21.69
-25.71
-30.75
-36.93
-43.97
-51.23
-58.04
-63.94
-69.00
-73.84
-79.48
-86.83
-96.37
-107.85
-120.40
-132.87
-144.49
-155.18
-165.78
-177.67
-192.20
-210.05
-230.79
-253.24
-275.68
-296.73
-315.83
-333.49
-351.30
-371.74
-397.77
-431.81
-474.30
-522.15
-568.27
-602.89
-616.52
-603.51
-564.36
-505.48
-436.38
-365.79
-298.82
-236.51
-177.40
-120.02
-64.24
-10.81
39.76
87.93
134.34
178.24
216.56
244.72
259.06
259.02
248.11
232.24
216.78
204.34
194.36
184.83
174.70
165.14
158.82
157.55
160.48
163.66
162.03
152.19
134.51
113.22
94.13
81.61
76.26
74.71
71.83
63.85
50.72
36.45
26.71
25.62
33.24
45.27
55.35
58.48
53.57
43.76
34.39
29.65
30.23
33.00
33.13
27.03
14.72
-0.07
-11.79
-16.23
-12.73
-4.48
3.43
6.97
5.28
1.18
-0.75
3.16
13.43
27.07
39.15
45.47
44.74
39.10
32.49
28.25
27.04
26.68
23.80
16.51
6.06
-3.34
-6.76
-1.43
11.40
26.73
38.42
42.22
37.84
28.69
19.80
14.81
14.16
15.17
13.86
7.63
-3.32
-15.74
-25.35
-29.09
-26.99
-22.01
-18.37
-19.10
-24.18
-30.61
-34.00
-31.07
-21.58
-8.40
4.04
12.18
15.21
15.17
15.49
18.76
24.96
31.35
34.02
30.14
19.82
6.34
-5.45
-11.64
-11.18
-6.43
-1.67
-0.33
-3.05
-7.26
-8.75
-4.41
5.70
18.17
27.97
31.29
27.63
19.81
12.24
8.32
8.60
10.79
11.42
8.23
1.67
-5.17
-8.37
-5.36
3.47
14.94
24.62
29.12
27.75
22.70
17.61
15.24
16.03
17.88
17.50
12.59
3.42
-7.09
-14.89
-17.15
-13.86
-7.92
-3.45
-3.33
-7.42
-12.54
-14.30
-9.74
0.71
13.18
22.31
24.09
17.95
7.13
-3.26
-9.03
-9.11
-5.99
-4.01
-6.68
-14.47
-24.51
-32.21
-33.87
-28.86
-19.83
-11.06
-5.82
-4.58
-4.78
-2.80
3.77
14.39
25.60
32.96
33.58
27.73
18.78
11.21
7.99
9.06
11.23
10.33
3.84
-7.33
-18.92
-25.65
-24.21
-15.27
-3.25
6.12
9.06
5.78
0.18
-2.65
0.52
9.04
18.82
24.64
23.05
14.08
1.16
-11.14
-19.45
-23.43
-25.48
-29.33
-37.42
-49.40
-62.26
-71.89
-75.52
-73.06
-67.49
-62.94
-62.73
-67.47
-75.02
-81.93
-85.51
-85.32
-83.33
-82.96
-86.95
-96.18
-108.83
-121.62
-131.64
-137.95
-141.71
-145.02
-149.80
-155.94
-161.69
-164.10
-160.84
-151.42
-137.14
-119.87
-100.33
-78.13
-46.42
-0.04
63.08
139.48
219.95
292.28
345.41
378.62
397.51
410.53
424.15
440.90
457.41
466.87
460.56
432.87
384.06
319.65
248.62
179.05
115.98
60.92
13.61
-26.01
-56.69
-76.53
-85.05
-83.83
-76.60
-67.84
-61.22
-58.49
-59.24
-61.28
-61.97
-59.74
-54.63
-48.21
-42.63
-39.65
-39.95
-43.06
-47.60
-52.06
-55.46
-57.83
-60.04
-63.26
-68.45
-76.02
-85.80
-97.22
-109.64
-122.54
-135.93
-150.26
-166.08
-183.88
-203.92
-226.22
-250.55
-276.63
-303.73
-331.17
-358.22
-383.96
-407.18
-426.38
-439.88
-445.94
-444.52
-434.18
-413.80
-382.89
-341.74
-291.51
-234.07
-171.83
-107.58
-44.37
15.59
70.28
118.17
158.37
190.74
215.84
234.88
249.52
261.43
273.11
286.89
304.68
327.90
357.39
393.18
434.71
480.77
527.47
571.99
611.63
643.84
666.50
678.05
677.49
664.33
641.19
608.62
567.25
517.38
459.24
393.28
320.23
241.09
157.05
69.43
-22.01
-115.21
-207.62
-296.75
-380.18
-455.70
-521.32
-575.43
-616.78
-644.86
-660.01
-662.49
-652.73
-631.38
-599.40
-558.27
-510.07
-457.48
-403.67
-351.49
-303.14
-259.83
-221.50
-187.06
-154.88
-123.75
-93.39
-64.50
-38.47
-16.72
0.13
12.83
23.48
34.82
48.80
66.11
86.28
108.28
131.44
156.48
185.88
223.20
272.05
334.65
409.50
493.61
581.91
667.05
739.72
789.96
809.44
794.32
746.48
673.78
587.76
499.17
414.92
336.70
262.55
190.06
121.98
62.44
17.46
-7.10
-8.99
8.02
34.25
56.33
61.34
41.02
-6.35
-76.05
-159.50
-247.69
-332.81
-407.82
-465.46
-498.47
-501.88
-475.71
-427.92
-372.94
-327.00
-301.55
-298.44
-309.74
-321.66
-321.17
-301.51
-264.19
-217.18
-171.04
-135.01
-114.07
-108.29
-113.90
-125.21
-137.00
-145.61
-149.07
-145.62
-133.89
-112.66
-81.44
-41.35
4.49
51.52
95.17
132.48
162.95
188.04
210.02
230.35
248.76
263.34
271.56
271.73
264.24
251.76
238.27
227.43
221.04
218.13
215.34
208.27
194.45
172.56
143.49
109.70
74.01
37.90
0.81
-39.47
-84.99
-136.73
-194.03
-254.76
-314.98
-368.42
-406.94
-422.10
-407.89
-364.35
-301.80
-233.45
-173.75
-133.34
-114.83
-112.22
-114.10
-107.74
-85.90
-48.43
-0.39
51.20
100.98
146.51
187.28
222.64
251.06
269.91
277.39
274.07
262.62
246.96
230.88
217.36
205.54
192.73
175.41
151.14
119.73
83.10
44.90
9.21
-20.62
-43.14
-58.61
-68.81
-76.07
-82.27
-88.24
-93.53
-96.70
-96.09
-91.01
-81.88
-70.50
-59.53
-51.44
-47.50
-47.11
-47.92
-47.00
-42.21
-33.09
-21.33
-10.29
-4.02
-6.14
-19.25
-44.47
-79.38
-119.69
-158.57
-187.54
-198.91
-188.78
-159.11
-117.55
-74.52
-38.88
-14.58
0.44
11.88
24.89
40.52
54.74
60.38
50.98
24.32
-16.39
-63.35
-107.12
-139.91
-157.86
-161.13
-152.45
-135.06
-111.12
-81.86
-48.41
-13.15
19.93
46.27
62.61
68.59
66.87
61.69
56.62
53.00
49.95
45.56
38.79
30.46
23.04
19.14
20.07
25.09
31.71
36.88
38.21
34.69
26.85
16.34
5.23
-4.69
-12.33
-17.54
-20.83
-22.93
-24.09
-24.08
-22.33
-18.63
-13.50
-8.15
-3.72
-0.42
2.83
7.76
15.50
25.49
35.21
41.29
41.31
35.13
24.93
13.86
4.18
-4.03
-12.71
-24.24
-39.72
-57.86
-75.26
-87.74
-92.01
-87.03
-74.37
-57.39
-39.85
-24.03
-9.73
5.50
24.72
49.31
77.57
104.98
126.21
137.77
139.53
134.32
125.92
116.72
106.85
95.01
80.57
65.08
52.13
45.74
48.17
58.67
73.73
88.71
100.02
106.36
108.71
109.00
108.44
106.34
100.35
88.01
68.59
44.19
19.19
-1.79
-16.11
-24.44
-30.09
-36.93
-46.95
-59.07
-69.78
-75.29
-73.75
-66.42
-56.86
-49.13
-45.59
-45.77
-46.87
-45.41
-39.31
-29.02
-17.25
-7.46
-1.85
-0.32
-0.65
-0.13
2.61
6.65
9.27
7.68
0.95
-9.12
-18.70
-23.81
-22.48
-15.63
-6.49
1.25
5.41
6.25
5.96
7.01
10.51
15.42
19.19
19.36
15.14
8.03
1.11
-2.65
-2.10
1.52
5.24
5.96
2.17
-5.38
-14.17
-21.45
-25.62
-27.01
-27.39
-28.73
-31.86
-35.84
-38.44
-37.37
-31.77
-22.78
-13.13
-5.70
-2.06
-1.68
-2.42
-1.84
1.30
6.29
10.90
12.65
10.27
4.52
-2.27
-7.37
-9.14
-7.80
-5.08
-3.11
-3.08
-4.58
-5.85
-5.03
-1.42
3.87
8.34
9.46
6.11
-0.73
-8.41
-13.89
-15.31
-12.67
-7.69
-2.64
0.93
2.88
4.27
6.46
10.12
14.62
18.35
19.55
17.44
12.78
7.61
4.15
3.70
5.94
9.09
11.05
10.50
7.71
4.36
2.44
2.84
4.78
6.21
5.13
1.01
-4.63
-8.83
-8.84
-3.76
4.61
12.59
16.63
15.19
9.70
4.15
1.73
5.14
15.76
32.93
54.58
78.24
101.65
122.90
140.18
151.53
155.25
151.39
141.77
129.23
116.76
105.80
95.91
84.99
72.11
53.71
27.33
-7.80
-50.22
-96.10
-140.24
-177.05
-202.23
-213.16
-211.60
-202.56
-191.95
-184.25
-177.81
-167.59
-148.12
-115.95
-74.52
-33.69
-2.84
12.77
14.99
11.98
13.35
25.20
46.88
71.06
88.16
92.10
81.99
63.60
45.93
36.25
37.03
45.69
56.37
62.90
60.90
48.17
25.28
-4.77
-36.66
-63.20
-76.45
-69.97
-41.19
6.86
65.21
120.97
160.54
173.56
156.46
113.96
57.65
2.13
-40.08
-62.77
-67.22
-60.56
-51.89
-48.38
-53.14
-65.67
-83.41
-103.41
-122.76
-138.17
-145.71
-141.38
-122.80
-91.00
-51.04
-10.88
21.27
39.63
42.61
32.84
15.70
-2.96
-18.47
-28.22
-31.41
-28.44
-20.41
-8.97
3.76
15.46
24.00
28.07
27.37
22.64
15.33
7.30
0.59
-2.94
-1.98
3.68
13.07
24.26
35.17
44.24
50.83
54.96
56.93
56.88
54.71
50.07
42.28
30.29
12.83
-10.84
-39.82
-70.69
-97.89
-115.13
-117.65
-104.06
-76.89
-41.67
-5.16
26.40
48.48
58.76
57.31
46.45
30.17
13.21
-0.29
-7.99
-10.06
-8.72
-6.91
-6.72
-8.40
-10.48
-10.78
-7.79
-1.52
6.61
14.58
20.81
24.68
26.39
26.24
24.02
19.03
10.71
-0.55
-13.06
-24.35
-32.38
-36.62
-38.59
-40.93
-45.69
-52.79
-59.67
-62.49
-58.10
-46.18
-29.69
-13.93
-4.13
-2.74
-8.19
-15.46
-18.30
-12.22
3.21
24.07
43.44
54.40
52.94
39.34
17.45
-6.93
-28.36
-43.29
-49.00
-44.17
-29.08
-5.44
24.10
56.24
87.69
115.23
136.33
149.79
155.79
155.93
152.91
149.39
146.99
146.29
146.69
147.00
146.24
143.66
139.25
133.44
128.06
122.21
114.77
104.59
90.94
74.04
54.66
34.39
15.10
-1.67
-15.33
-25.70
-33.10
-37.86
-39.99
-39.72
-37.14
-32.76
-27.86
-24.67
-25.56
-32.75
-47.87
-68.54
-92.91
-118.94
-145.18
-171.09
-197.20
-224.50
-254.55
-289.25
-330.29
-378.52
-432.05
-485.45
-530.43
-558.27
-562.98
-543.84
-505.95
-458.01
-409.31
-366.13
-330.52
-301.07
-275.05
-250.29
-225.95
-202.16
-179.17
-156.93
-134.79
-112.01
-88.13
-63.06
-37.33
-11.81
12.67
35.65
56.90
76.00
91.76
102.01
104.43
98.16
85.27
70.90
61.78
63.34
77.18
100.23
125.98
147.28
158.99
159.43
149.91
133.33
112.89
91.29
70.90
53.93
42.58
38.62
43.48
57.95
82.14
115.33
155.74
200.60
246.53
290.11
328.35
358.79
379.32
388.14
384.14
367.63
341.13
309.24
277.61
251.03
231.72
218.77
209.14
199.56
188.35
175.91
163.82
153.28
144.00
134.22
121.73
105.34
85.83
65.56
47.45
33.53
24.39
19.34
17.17
17.04
18.75
22.43
28.03
34.85
41.38
45.77
46.36
42.35
33.98
22.41
9.44
-3.04
-13.53
-21.10
-25.39
-26.42
-24.09
-18.44
-10.03
-0.39
7.81
11.30
7.20
-5.73
-26.27
-50.39
-72.59
-87.53
-91.56
-83.49
-64.61
-37.98
-7.47
22.71
49.46
69.78
80.79
80.30
68.08
46.74
21.69
-0.32
-13.66
-13.42
1.31
27.50
59.71
92.28
121.05
143.67
158.80
164.90
164.06
158.81
151.82
145.71
143.02
146.11
156.46
174.01
196.22
224.05
257.40
294.39
331.23
363.22
386.50
399.26
402.20
374.25
307.34
206.78
90.71
-18.67
-105.92
-166.57
-204.48
-222.27
-231.89
-239.36
-248.47
-261.55
-279.33
-300.02
-318.92
-329.69
-326.20
-308.01
-277.27
-241.72
-211.70
-196.12
-199.08
-218.99
-250.47
-287.38
-325.48
-358.78
-381.47
-388.07
-374.75
-340.72
-289.02
-225.99
-160.03
-99.57
-49.08
-9.76
19.63
41.13
56.39
66.46
71.92
73.21
70.71
65.58
58.95
52.10
45.64
39.35
32.33
23.50
12.06
-2.14
-18.32
-35.08
-50.52
-63.12
-71.99
-77.04
-78.84
-78.39
-76.91
-75.47
-74.88
-75.35
-77.01
-79.88
-83.91
-88.97
-94.75
-100.57
-105.38
-108.62
-108.12
-101.96
-89.07
-69.47
-44.47
-16.40
11.96
38.11
60.32
78.27
92.14
102.40
109.22
112.22
110.66
103.88
91.92
75.76
57.82
41.06
28.83
24.33
30.02
46.42
71.23
99.38
121.94
131.12
122.63
97.84
63.48
29.22
3.87
-7.58
-5.04
7.71
25.61
43.88
58.95
68.57
71.43
67.16
56.49
41.44
24.85
9.77
-1.47
-7.94
-9.98
-8.77
-5.76
-2.25
0.79
2.55
2.32
-0.68
-7.12
-17.04
-29.38
-41.85
-51.56
-55.92
-54.00
-46.80
-36.97
-27.61
-20.95
-17.61
-16.78
-17.04
-17.20
-16.70
-15.34
-12.74
-8.21
-1.15
8.12
17.96
25.69
28.78
26.13
18.81
9.78
2.52
-0.67
0.18
2.74
3.59
0.38
-7.09
-16.67
-24.98
-29.34
-29.15
-26.16
-23.23
-22.53
-23.88
-25.30
-24.48
-20.56
-14.78
-9.63
-6.92
-6.14
-4.21
3.29
18.93
41.21
64.44
80.94
84.37
72.56
48.53
16.92
-14.55
-38.29
-49.64
-48.37
-37.98
-23.33
-8.42
4.60
14.95
22.89
28.50
31.49
31.62
29.06
24.49
18.85
13.16
7.83
3.40
0.16
-1.96
-3.19
-3.79
-3.98
-3.87
-3.42
-3.31
-4.32
-7.21
-11.83
-16.21
-16.23
-6.99
14.69
48.89
89.91
129.30
158.75
172.95
171.06
156.15
132.91
103.69
72.75
41.96
12.48
-14.23
-36.33
-52.30
-61.77
-65.86
-66.58
-65.75
-65.06
-64.92
-64.72
-63.44
-60.40
-55.62
-49.88
-44.39
-39.83
-36.84
-35.22
-34.23
-32.97
-30.83
-27.72
-24.04
-20.44
-17.35
-15.11
-13.68
-12.68
-11.63
-10.23
-8.43
-6.38
-4.38
-2.74
-1.57
-0.81
-0.31
0.09
0.55
1.10
1.75
2.42
3.07
3.61
3.93
4.00
3.83
3.45
2.95
2.38
1.73
0.94
-0.07
-1.38
-3.04
-4.99
-7.12
-9.30
-11.48
-13.70
-16.11
-18.91
-22.28
-26.28
-30.84
-35.68
-40.50
-45.15
-49.62
-54.23
-59.43
-65.68
-73.18
-81.68
-90.60
-99.18
-106.84
-113.29
-118.68
-123.31
-127.26
-129.82
-129.91
-125.59
-115.02
-97.33
-73.04
-44.12
-13.28
16.90
44.84
70.20
93.31
114.66
133.82
149.63
161.19
168.50
172.65
174.88
175.13
171.10
159.18
136.71
104.69
68.56
36.06
13.58
2.76
0.07
-0.59
-3.32
-7.88
-10.17
-6.07
4.73
17.24
23.78
18.77
2.43
-18.78
-35.80
-41.84
-36.08
-23.72
-12.42
-7.64
-10.05
-15.30
-16.98
-10.87
2.47
17.74
27.21
25.20
11.24
-9.36
-27.94
-36.79
-33.29
-20.93
-7.03
1.30
1.47
-3.54
-7.31
-4.59
5.83
19.76
29.99
30.15
18.22
-2.17
-23.51
-37.97
-41.17
-34.02
-21.88
-11.36
-6.22
-5.37
-3.58
4.74
21.26
41.53
56.47
57.24
40.56
11.78
-17.29
-33.95
-31.32
-11.97
13.55
32.47
36.40
25.40
7.49
-6.68
-9.43
-0.12
15.18
27.39
29.19
18.10
-3.43
-30.51
-59.34
-89.19
-121.80
-159.37
-202.29
-247.91
-291.66
-328.35
-353.89
-366.97
-368.86
-362.26
-350.01
-333.82
-313.70
-288.40
-255.99
-215.26
-166.76
-112.56
-55.74
0.16
52.07
97.94
137.38
171.58
202.60
232.43
262.64
294.26
327.26
360.51
391.01
414.45
426.14
422.89
404.63
374.23
338.00
303.23
275.86
258.26
249.71
247.49
248.73
250.86
251.79
249.26
240.40
224.66
200.99
169.26
130.68
87.70
43.05
-0.53
-40.57
-76.25
-105.99
-128.34
-141.70
-144.64
-136.38
-117.62
-90.44
-57.83
-23.32
9.80
38.43
60.50
75.05
83.24
85.74
83.14
76.24
65.82
52.86
38.20
22.78
7.55
-6.41
-18.69
-28.98
-36.92
-42.06
-43.71
-41.02
-33.19
-19.53
1.31
29.40
64.05
103.77
146.41
189.01
228.26
260.62
282.68
291.66
285.16
262.17
223.20
170.37
106.44
34.44
-42.99
-123.85
-203.65
-278.31
-343.79
-396.53
-433.76
-454.68
-460.43
-453.90
-439.00
-419.78
-400.16
-382.57
-367.87
-355.24
-343.77
-333.14
-323.80
-316.91
-313.56
-314.68
-320.24
-332.42
-348.99
-365.75
-377.19
-377.38
-361.08
-325.33
-271.12
-203.53
-130.61
-60.52
0.22
48.77
86.11
115.71
141.09
163.93
183.60
198.10
206.28
208.43
207.10
205.41
205.58
207.58
208.96
206.22
197.02
182.04
164.83
150.22
141.73
139.74
141.31
141.65
136.79
125.61
110.44
95.58
84.65
78.70
75.66
71.66
63.68
51.43
38.00
28.14
25.55
30.62
39.85
47.57
48.95
42.58
31.22
20.39
15.06
17.16
24.37
31.43
33.19
27.41
16.11
4.45
-2.15
-1.00
6.19
14.55
18.61
15.69
7.24
-1.93
-6.85
-5.14
1.40
7.94
9.87
5.35
-3.06
-10.15
-11.16
-4.73
6.10
15.57
18.29
12.55
1.21
-9.77
-14.83
-11.67
-2.61
7.02
12.01
10.09
3.30
-3.62
-6.06
-2.28
5.45
12.36
14.15
9.59
1.25
-5.92
-7.83
-3.64
3.64
9.00
8.52
1.68
-8.14
-15.75
-17.13
-12.00
-3.88
1.92
1.52
-5.29
-14.73
-21.11
-20.11
-10.94
2.92
15.65
22.26
20.89
13.89
6.19
2.28
3.71
8.35
11.75
10.09
2.62
-7.69
-15.52
-16.49
-9.67
1.55
11.42
14.95
10.75
1.87
-6.20
-8.68
-4.35
3.88
10.53
10.96
3.94
-7.64
-18.05
-22.20
-18.05
-7.85
3.30
10.25
10.52
5.44
-0.92
-4.34
-2.93
1.82
6.28
7.13
3.48
-2.44
-6.72
-6.26
-0.67
7.34
13.47
14.38
9.40
1.09
-6.19
-8.68
-5.29
1.93
8.80
11.36
8.11
0.75
-6.62
-10.05
-8.07
-2.74
1.67
1.31
-4.85
-13.91
-20.75
-20.92
-13.42
-1.52
9.03
13.14
9.27
0.35
-7.91
-10.30
-4.92
5.73
16.25
21.53
19.42
12.02
4.03
-0.01
1.36
5.74
8.45
5.66
-3.05
-14.09
-21.68
-21.37
-12.44
1.43
14.02
20.20
18.37
11.17
3.65
0.12
1.75
6.06
8.56
5.68
-2.98
-14.07
-22.23
-23.16
-16.05
-4.35
6.13
10.38
6.81
-1.74
-9.77
-12.33
-7.92
0.72
8.24
9.95
4.57
-4.97
-13.14
-15.02
-9.16
1.78
12.35
17.45
15.11
7.44
-0.69
-4.71
-2.79
3.05
8.31
8.95
3.72
-4.78
-11.63
-12.62
-6.72
3.01
11.10
12.92
7.22
-3.10
-12.57
-16.35
-12.91
-4.70
3.35
6.82
4.13
-2.53
-8.79
-10.54
-6.58
0.74
6.83
7.53
1.68
-8.14
-16.70
-19.36
-14.47
-4.66
4.71
8.76
5.84
-1.23
-6.94
-6.46
1.36
13.10
22.67
25.01
18.99
8.16
-1.31
-4.09
1.22
11.33
20.04
21.95
15.36
3.22
-8.57
-14.38
-12.02
-3.66
5.57
10.57
9.32
3.61
-2.14
-3.75
0.28
7.58
13.56
14.00
7.76
-2.26
-10.76
-13.02
-7.49
3.08
13.06
17.39
14.16
5.65
-3.29
-8.31
-8.10
-4.93
-3.14
-5.90
-13.04
-20.90
-24.53
-20.62
-9.83
3.23
12.55
13.82
6.92
-4.05
-13.12
-15.76
-11.20
-2.77
4.33
5.99
1.63
-5.68
-11.00
-10.83
-4.94
3.21
8.36
6.51
-2.83
-16.16
-27.79
-32.77
-29.66
-20.96
-11.74
-6.54
-6.82
-10.20
-12.07
-8.54
1.32
14.57
26.21
32.13
31.26
26.29
21.76
21.43
25.87
32.18
35.58
32.33
22.15
8.48
-3.22
-8.67
-7.01
-1.32
3.16
2.17
-5.24
-16.04
-25.15
-28.30
-24.43
-16.37
-8.86
-5.77
-7.82
-12.02
-13.63
-9.08
1.79
15.47
26.51
30.68
27.12
19.05
11.70
9.34
12.80
19.05
23.10
20.88
11.82
-0.82
-11.73
-16.66
-14.66
-8.48
-2.85
-1.65
-5.75
-12.61
-17.92
-18.34
-13.23
-5.19
1.63
3.98
1.35
-3.55
-6.52
-4.21
3.74
14.13
21.83
22.52
15.34
3.53
-6.95
-10.85
-6.43
3.32
12.33
14.75
8.13
-5.12
-19.28
-28.51
-30.03
-25.37
-19.06
-15.64
-16.83
-20.58
-22.50
-18.91
-9.35
2.83
12.32
15.03
10.57
2.71
-2.89
-1.95
5.83
16.42
23.69
22.70
12.75
-2.38
-16.18
-23.17
-21.61
-14.23
-6.46
-3.15
-5.78
-11.68
-15.77
-13.68
-4.39
8.90
20.60
25.65
22.36
13.32
3.86
-0.98
1.00
7.93
15.20
18.20
14.77
6.61
-1.90
-6.23
-4.42
1.88
8.41
10.89
7.83
1.24
-4.29
-4.62
1.36
10.88
18.84
20.52
14.39
3.10
-8.07
-14.16
-13.14
-7.24
-1.41
-0.58
-6.81
-17.89
-28.60
-33.68
-30.91
-22.48
-13.71
-9.70
-12.21
-18.43
-22.59
-19.67
-8.77
6.06
18.02
21.45
15.32
3.86
-5.93
-8.29
-1.94
9.27
18.93
21.82
16.87
7.68
0.30
-0.57
6.09
16.88
26.25
29.70
26.33
19.14
13.22
12.49
17.55
25.20
30.28
28.49
18.82
4.26
-9.86
-18.63
-20.12
-16.26
-11.49
-10.11
-13.77
-20.41
-25.65
-25.57
-19.07
-8.71
0.63
4.55
1.64
-5.52
-11.92
-13.06
-7.52
1.99
10.22
12.19
6.26
-4.92
-15.63
-20.54
-17.52
-9.08
-0.75
2.21
-2.12
-11.02
-18.89
-20.56
-14.40
-3.34
7.03
11.76
9.64
3.74
-0.45
1.41
9.88
21.36
30.17
32.09
26.70
17.84
11.07
10.28
15.43
22.52
25.91
21.58
9.52
-6.24
-19.61
-25.73
-23.36
-15.43
-7.19
-3.19
-4.93
-9.95
-13.62
-11.83
-3.65
7.82
17.14
19.47
13.60
2.74
-7.03
-10.31
-5.53
4.10
12.47
14.23
7.87
-3.50
-13.92
-18.26
-15.13
-7.62
-1.18
-0.15
-5.03
-12.34
-16.77
-14.61
-6.12
4.59
12.02
12.59
6.54
-2.09
-8.04
-7.86
-1.87
5.96
10.29
7.35
-2.69
-15.89
-26.48
-29.83
-24.89
-14.61
-4.34
1.17
0.47
-3.99
-7.25
-5.10
3.61
15.84
26.08
29.61
25.17
15.70
6.72
3.21
6.56
14.01
20.24
20.67
14.02
3.10
-6.90
-11.52
-9.40
-3.08
2.65
3.50
-1.76
-10.56
-17.90
-19.19
-12.81
-1.02
11.03
18.14
17.75
11.31
3.24
-1.80
-1.53
2.56
6.10
4.79
-2.70
-13.71
-22.91
-25.30
-19.18
-7.36
4.40
10.44
8.25
-0.09
-9.28
-13.95
-11.56
-3.85
4.44
8.57
6.63
0.77
-4.28
-4.29
1.55
10.01
15.48
13.56
3.94
-9.05
-18.69
-19.87
-11.80
1.34
12.98
17.88
14.94
7.46
0.93
-0.62
3.17
8.85
11.53
7.92
-1.68
-13.36
-21.78
-23.01
-16.64
-5.83
4.33
9.47
8.10
2.08
-4.50
-7.81
-6.36
-1.74
2.46
2.92
-1.25
-7.79
-12.48
-11.78
-4.92
5.36
14.22
17.41
13.58
4.86
-4.17
-9.19
-8.35
-2.93
3.68
8.08
8.83
7.11
5.73
7.24
12.05
17.86
20.77
17.49
7.65
-5.60
-16.61
-20.12
-13.88
-0.36
14.32
23.38
22.62
12.79
-1.05
-12.42
-16.86
-14.18
-8.20
-4.05
-4.77
-9.53
-14.18
-14.27
-8.19
1.44
9.17
9.95
2.46
-9.85
-20.56
-23.84
-17.75
-5.26
7.56
14.92
14.31
7.58
-0.70
-6.20
-7.18
-5.20
-3.61
-4.88
-8.81
-12.49
-12.12
-5.65
5.61
17.10
23.40
20.93
10.39
-3.43
-13.72
-15.29
-7.15
6.97
20.43
27.24
24.92
15.68
4.90
-1.99
-2.51
1.61
5.98
6.30
1.18
-6.85
-13.08
-13.50
-7.46
1.78
8.81
9.23
2.35
-8.22
-16.71
-18.36
-12.26
-1.84
7.31
10.43
6.63
-1.04
-7.27
-7.97
-2.46
5.98
12.07
11.61
3.71
-8.28
-18.81
-22.85
-18.47
-7.87
4.01
12.08
13.63
9.53
3.29
-1.39
-2.85
-2.30
-2.84
-6.96
-14.55
-22.27
-25.40
-20.57
-8.13
7.50
20.07
24.44
19.47
8.44
-2.56
-8.16
-6.06
1.86
10.95
16.66
16.77
12.49
7.36
4.81
5.93
8.77
9.68
5.76
-2.99
-13.25
-19.99
-19.46
-11.51
-0.08
8.89
10.85
5.23
-4.17
-11.29
-11.41
-3.68
8.25
18.36
21.57
16.45
5.93
-4.48
-9.81
-8.28
-1.93
4.57
6.83
3.23
-4.38
-11.76
-14.87
-12.14
-5.49
0.89
2.97
-0.61
-7.72
-14.04
-15.59
-11.36
-3.93
1.84
1.82
-4.86
-15.01
-23.08
-24.39
-17.74
-6.32
4.16
8.40
4.36
-5.92
-17.78
-26.42
-29.55
-28.09
-25.43
-25.14
-28.75
-35.12
-41.41
-44.94
-45.10
-43.85
-44.64
-50.22
-60.65
-72.64
-81.73
-84.90
-82.55
-78.62
-78.48
-85.81
-100.05
-116.21
-127.13
-127.70
-118.05
-103.13
-90.06
-84.26
-86.27
-91.05
-90.08
-74.07
-36.89
22.18
99.51
188.65
282.03
372.28
452.56
516.24
557.37
574.75
567.62
538.28
492.91
440.77
390.73
347.82
308.03
264.51
209.04
135.37
42.95
-62.94
-173.65
-280.98
-379.80
-468.46
-546.64
-614.17
-669.97
-711.33
-737.07
-745.65
-736.03
-708.14
-662.21
-597.77
-514.31
-411.88
-291.42
-154.73
-6.73
146.21
297.26
439.43
565.38
666.65
734.48
762.42
749.47
701.43
630.81
553.21
482.03
425.32
384.49
355.99
334.51
317.26
299.95
278.13
247.31
204.10
148.35
84.32
19.96
-36.38
-77.76
-103.47
-118.42
-130.56
-146.94
-170.69
-200.45
-232.13
-261.38
-285.49
-304.50
-319.46
-331.15
-339.44
-343.58
-342.84
-336.95
-327.06
-313.46
-296.31
-275.19
-249.38
-218.36
-182.33
-142.66
-101.93
-63.55
-30.95
-7.27
5.30
5.81
-5.45
-27.14
-57.14
-92.69
-130.44
-166.39
-196.32
-216.16
-222.51
-213.19
-187.73
-147.59
-95.87
-36.87
24.68
84.16
137.39
181.08
212.89
231.37
236.00
227.10
205.70
173.08
131.21
82.48
29.60
-24.66
-77.69
-127.11
-170.87
-207.41
-235.68
-255.22
-266.16
-269.25
-265.73
-257.10
-244.97
-230.76
-215.60
-200.20
-184.81
-169.43
-154.00
-138.54
-123.21
-108.25
-93.92
-80.34
-67.37
-54.59
-41.49
-27.64
-12.87
2.66
18.56
34.45
50.17
65.95
82.32
99.89
119.00
139.44
160.42
180.78
199.30
215.12
228.02
238.46
247.54
256.86
268.12
282.55
300.13
319.02
335.74
346.09
346.65
336.07
315.55
288.28
258.13
228.35
200.84
176.31
154.80
136.17
120.26
106.67
94.73
83.65
72.90
62.51
52.96
44.77
38.07
32.54
27.55
22.70
18.00
13.89
10.79
8.74
7.24
5.46
2.87
-0.42
-3.65
-5.85
-6.55
-6.16
-5.88
-7.13
-10.75
-16.46
-22.86
-28.05
-30.55
-29.96
-27.08
-23.46
-20.53
-19.01
-18.62
-18.44
-17.54
-15.58
-12.89
-10.23
-8.16
-6.72
-5.40
-3.60
-1.10
1.62
3.62
4.01
2.53
-0.23
-3.02
-4.41
-3.32
0.41
5.76
10.46
11.49
6.20
-6.45
-24.84
-45.03
-62.02
-71.86
-73.20
-67.67
-58.56
-48.75
-39.55
-30.74
-21.85
-13.37
-7.22
-6.04
-11.42
-22.15
-33.29
-37.49
-27.55
0.26
44.35
97.55
149.26
188.76
207.73
203.46
178.27
139.09
92.24
42.17
-9.00
-59.18
-105.22
-142.93
-167.92
-177.40
-171.10
-151.32
-121.50
-84.91
-44.20
-1.97
38.54
73.72
100.36
116.97
124.16
124.09
118.88
109.32
94.63
73.92
48.10
20.94
-2.13
-15.57
-15.78
-2.21
23.17
57.23
96.90
139.66
183.03
224.06
259.14
284.44
296.88
294.92
279.08
251.62
215.94
175.58
133.50
91.73
51.35
12.88
-23.34
-56.78
-86.75
-112.51
-133.56
-149.85
-161.74
-169.99
-175.42
-178.70
-180.24
-180.18
-178.56
-175.39
-170.86
-165.23
-158.89
-152.19
-145.37
-138.53
-131.71
-124.87
-118.01
-111.17
-104.45
-97.94
-91.70
-85.74
-80.07
-74.65
-69.47
-64.50
-59.74
-55.18
-50.83
-46.68
-42.70
-38.88
-35.22
-31.72
-28.37
-25.15
-21.99
-18.95
-16.03
-13.24
-10.58
-8.05
-5.65
-3.36
-1.15
0.97
2.91
4.68
6.34
7.92
9.57
11.49
14.01
17.65
22.99
30.33
39.88
51.51
64.63
78.17
90.77
100.49
105.42
103.96
95.10
78.40
54.25
23.72
-11.33
-48.74
-86.22
-121.52
-152.82
-178.48
-197.30
-208.63
-212.39
-208.71
-198.21
-181.78
-159.12
-132.35
-103.30
-73.63
-44.84
-18.47
4.55
23.55
38.16
48.45
54.62
57.42
57.77
56.62
54.47
51.85
49.19
46.67
44.40
42.17
40.02
37.90
35.79
33.68
31.64
29.68
27.80
26.00
24.20
22.43
20.71
19.06
17.46
15.95
14.54
13.20
11.97
10.76
9.59
8.46
7.37
6.31
5.31
4.41
3.59
2.87
2.20
1.56
0.92
0.31
-0.23
-0.62
-0.82
-0.81
-0.66
-0.47
-0.35
-0.38
-0.56
-0.83
-1.08
-1.22
-1.18
-1.03
-0.87
-0.85
-1.09
-1.58
-2.18
-2.62
-2.71
-2.34
-1.67
-1.04
-0.84
-1.38
-2.58
-4.00
-5.02
-5.08
-3.96
-2.03
-0.09
0.93
0.39
-1.61
-4.25
-6.25
-6.51
-4.55
-1.02
2.68
4.94
4.64
1.90
-1.87
-4.47
-3.79
1.46
10.94
23.22
36.45
48.48
57.52
62.24
61.92
57.49
52.05
50.18
55.76
69.21
85.69
95.81
90.18
63.67
18.42
-36.78
-90.26
-131.90
-156.03
-162.08
-151.87
-128.88
-97.26
-61.75
-27.88
-0.90
15.68
21.37
18.38
10.92
2.77
-3.70
-7.36
-8.27
-7.02
-4.49
-1.79
-0.06
0.03
-1.64
-4.67
-8.08
-10.99
-12.72
-13.10
-12.41
-11.24
-10.31
-10.46
-12.45
-16.64
-23.26
-31.82
-41.63
-51.83
-61.78
-70.94
-79.22
-86.35
-91.49
-93.38
-89.98
-79.30
-59.81
-31.59
3.89
44.13
86.02
126.44
161.42
186.78
198.79
195.74
179.15
153.82
126.34
101.26
82.08
67.21
52.93
36.22
17.00
-1.97
-17.33
-27.17
-32.65
-36.73
-42.96
-52.92
-65.52
-78.00
-87.67
-93.14
-94.70
-94.68
-94.35
-94.07
-92.75
-88.03
-77.61
-60.71
-38.65
-14.26
9.20
29.34
44.40
53.08
53.50
44.69
26.81
2.21
-24.46
-47.74
-63.50
-71.09
-72.92
-72.20
-70.29
-65.45
-53.64
-31.63
0.14
36.60
69.95
93.39
104.53
105.76
102.24
99.19
98.94
100.28
100.35
96.70
89.32
80.58
73.75
71.17
73.47
79.57
87.22
93.40
94.83
88.37
72.06
46.31
14.47
-17.85
-44.78
-62.40
-70.21
-70.64
-67.36
-63.21
-59.12
-54.52
-48.69
-41.87
-35.50
-31.32
-30.11
-31.28
-33.04
-33.51
-31.43
-26.92
-21.17
-15.78
-12.19
-10.74
-10.89
-11.39
-10.91
-8.55
-4.15
2.03
9.47
17.67
26.66
36.73
48.11
60.71
73.76
85.79
95.03
99.79
98.92
92.11
79.84
63.22
43.69
22.95
2.34
-17.03
-34.28
-48.72
-59.83
-67.35
-71.69
-73.10
-72.52
-71.07
-69.62
-68.72
-68.38
-68.21
-67.78
-66.97
-65.56
-63.92
-62.57
-61.69
-61.37
-61.60
-62.44
-63.77
-64.99
-64.89
-61.97
-54.79
-42.52
-25.33
-4.32
18.69
41.50
61.79
77.47
87.00
90.11
87.89
82.61
76.96
72.94
71.40
71.90
73.66
75.99
78.07
78.38
73.97
61.45
38.43
5.17
-34.95
-76.13
-112.01
-138.02
-151.35
-151.58
-140.10
-119.49
-93.05
-64.54
-37.63
-15.27
0.80
10.07
13.31
12.69
11.32
13.20
20.15
30.58
38.82
37.33
21.38
-6.99
-38.43
-60.02
-62.04
-43.52
-12.94
16.42
33.29
33.86
22.92
9.16
0.64
0.55
6.07
11.27
10.36
0.80
-16.03
-35.07
-49.71
-53.65
-43.15
-18.65
15.19
51.31
82.40
102.77
110.87
108.26
98.02
82.86
64.11
42.48
19.13
-3.38
-21.61
-32.07
-33.94
-29.76
-24.53
-23.81
-31.09
-46.54
-66.72
-86.26
-99.30
-101.89
-92.45
-71.95
-43.90
-13.63
12.70
29.98
35.63
31.68
23.44
17.42
18.11
26.10
38.39
50.77
60.20
66.54
72.02
78.70
86.91
94.38
97.58
93.35
81.04
62.74
42.49
24.71
12.04
4.48
-0.16
-5.09
-12.86
-23.77
-36.42
-48.75
-59.69
-70.16
-81.99
-95.86
-109.50
-118.02
-116.65
-103.83
-82.79
-60.02
-41.36
-28.41
-18.47
-7.40
6.37
19.94
27.69
26.10
16.94
6.96
3.77
10.81
24.88
38.04
42.66
35.55
20.12
4.49
-2.78
3.18
20.80
42.65
59.35
64.12
56.19
41.42
29.65
29.79
45.01
71.08
97.55
113.60
113.25
97.95
74.33
49.66
28.26
10.39
-6.13
-22.99
-39.83
-54.56
-64.87
-69.70
-70.01
-68.17
-66.96
-68.64
-74.05
-82.85
-93.95
-105.92
-117.51
-128.62
-137.61
-142.67
-141.75
-132.66
-113.34
-82.62
-41.48
6.45
52.98
89.21
108.39
108.60
93.57
71.17
49.82
35.04
27.88
25.87
25.87
26.08
26.50
28.06
31.10
34.42
35.70
32.89
25.81
16.60
8.59
4.68
6.14
12.33
21.18
30.07
37.08
41.22
42.62
42.42
42.95
46.41
55.17
70.28
90.25
110.80
125.89
129.29
119.06
97.02
67.95
37.62
10.43
-11.84
-29.38
-43.21
-53.72
-60.32
-62.55
-60.71
-56.11
-50.76
-46.74
-45.16
-45.94
-48.02
-49.64
-49.67
-47.85
-44.76
-41.53
-39.34
-38.91
-40.44
-43.60
-47.72
-52.31
-57.22
-62.54
-68.24
-73.89
-78.37
-80.39
-78.10
-69.85
-54.82
-33.10
-5.99
24.28
55.01
83.33
106.63
122.93
131.07
129.94
120.31
103.62
81.69
56.66
30.79
6.03
-15.93
-33.86
-47.18
-55.75
-59.99
-60.93
-59.81
-57.83
-56.27
-56.33
-58.90
-64.74
-74.19
-87.08
-102.68
-119.67
-135.80
-148.37
-154.36
-151.12
-136.84
-111.17
-75.36
-32.19
14.54
60.76
102.56
136.91
161.69
175.79
179.06
171.97
155.51
131.45
102.35
71.43
42.50
19.00
3.40
-3.40
-2.19
4.80
15.15
27.02
38.77
50.52
62.83
76.14
90.64
106.31
122.60
137.86
148.91
151.03
139.67
112.73
72.36
25.34
-19.28
-53.57
-73.76
-80.96
-79.68
-74.81
-69.49
-64.39
-58.84
-52.43
-45.91
-40.90
-38.70
-39.39
-41.61
-43.36
-42.80
-39.27
-33.48
-27.09
-21.99
-19.41
-19.47
-21.11
-22.68
-22.62
-20.12
-15.59
-10.26
-5.75
-3.34
-3.36
-5.01
-6.62
-6.13
-1.93
6.41
18.19
31.71
44.85
55.87
63.94
68.99
71.56
71.96
69.89
64.21
53.39
36.28
12.69
-16.02
-47.83
-80.00
-109.02
-130.78
-141.14
-137.32
-119.74
-91.75
-59.86
-31.48
-12.08
-3.46
-4.14
-11.05
-21.61
-34.67
-49.67
-65.48
-79.34
-87.20
-85.34
-72.05
-48.25
-16.92
18.21
52.52
81.16
99.50
104.60
97.10
81.84
66.49
58.06
58.86
65.81
72.09
71.15
60.44
42.67
23.77
9.19
1.02
-2.52
-4.78
-8.22
-12.78
-16.55
-17.37
-14.45
-8.94
-3.25
0.14
-0.05
-3.48
-8.25
-12.06
-13.24
-11.35
-7.44
-3.39
-0.94
-0.80
-2.60
-5.02
-6.62
-6.14
-3.38
0.96
5.67
9.58
12.28
13.92
15.09
16.10
17.23
17.96
17.28
14.21
8.42
0.53
-7.83
-14.35
-17.09
-14.67
-7.04
4.55
18.06
31.30
42.46
50.44
54.84
55.39
51.82
43.64
30.52
12.61
-9.14
-33.48
-59.05
-84.22
-106.65
-123.15
-129.79
-123.45
-103.55
-73.09
-38.40
-6.97
15.50
27.02
29.53
27.03
23.27
20.29
18.02
15.50
12.28
8.99
6.88
6.87
8.82
11.63
13.81
14.13
12.30
9.02
5.47
2.91
2.05
2.87
4.61
6.22
6.73
5.66
3.22
0.04
-2.95
-4.91
-5.50
-4.94
-4.18
-4.55
-7.43
-13.65
-23.40
-35.93
-49.66
-62.69
-73.33
-80.33
-83.10
-81.56
-75.70
-65.48
-50.60
-30.82
-6.46
21.45
51.12
80.93
109.26
133.85
151.42
157.95
150.13
127.23
92.96
53.87
18.05
-8.11
-22.29
-26.37
-24.59
-21.03
-18.02
-15.56
-12.85
-9.45
-6.07
-4.08
-4.46
-6.94
-10.23
-12.66
-12.87
-10.76
-7.22
-3.70
-1.61
-1.59
-3.25
-5.48
-7.05
-6.98
-5.15
-2.21
0.94
3.35
4.74
5.68
7.38
10.93
17.08
25.59
34.97
43.31
48.30
48.10
41.96
30.45
15.22
-1.37
-16.93
-29.72
-38.45
-42.51
-41.68
-35.98
-25.68
-11.55
4.81
21.04
34.20
41.58
41.14
32.16
15.01
-8.84
-37.07
-66.22
-91.48
-107.37
-109.06
-94.94
-67.78
-34.16
-2.54
20.36
31.91
33.94
30.84
27.05
24.90
24.30
23.95
22.62
20.19
17.56
15.92
16.11
18.04
20.99
23.79
25.35
24.97
22.58
18.39
12.77
6.19
-1.38
-10.05
-19.51
-28.73
-36.23
-40.98
-43.57
-46.44
-52.67
-64.03
-79.22
-93.29
-100.60
-96.82
-81.39
-57.77
-31.62
-8.08
10.07
22.91
31.80
37.79
41.23
41.82
39.48
34.96
29.83
25.70
23.85
24.35
26.09
27.67
27.87
26.17
22.96
19.27
16.25
14.72
14.72
15.62
16.55
16.75
15.87
14.18
12.26
10.77
10.16
10.42
11.19
12.04
12.63
12.79
12.72
12.70
12.88
13.47
14.41
15.57
16.89
18.41
20.36
23.26
27.58
33.45
41.07
50.21
60.31
70.62
80.21
87.88
92.56
93.32
89.10
79.51
64.48
44.59
20.95
-4.47
-29.81
-53.22
-73.28
-89.73
-102.62
-112.69
-121.06
-128.17
-134.15
-139.41
-143.50
-146.42
-148.62
-150.38
-152.02
-153.25
-152.92
-149.47
-141.26
-127.30
-107.00
-82.71
-56.76
-31.61
-9.35
8.56
21.29
28.98
33.47
38.18
47.52
65.78
94.31
130.47
168.08
199.51
218.76
223.59
215.52
198.08
175.20
148.59
120.26
90.88
61.64
34.63
12.19
-4.28
-14.98
-21.29
-25.20
-28.28
-31.38
-34.33
-36.37
-36.72
-35.23
-32.47
-29.44
-27.28
-26.39
-26.82
-27.96
-28.89
-28.88
-27.72
-25.77
-23.71
-22.21
-21.59
-21.86
-22.58
-23.15
-23.02
-22.14
-20.76
-19.49
-18.87
-19.25
-20.77
-23.34
-26.76
-30.64
-34.88
-39.29
-43.95
-48.54
-52.33
-54.20
-52.72
-46.79
-36.17
-21.74
-5.14
11.26
25.31
35.64
42.41
47.09
51.79
58.05
66.12
74.86
82.15
85.79
84.51
78.69
69.18
58.46
47.89
37.49
26.48
14.24
1.24
-11.07
-21.07
-27.63
-30.35
-29.52
-25.05
-15.75
-1.04
17.38
33.96
40.16
29.13
0.38
-38.39
-73.93
-93.34
-90.71
-69.57
-40.81
-16.54
-4.46
-4.96
-13.70
-25.19
-35.87
-45.51
-55.19
-64.28
-69.40
-66.19
-51.93
-27.17
4.03
35.96
63.11
82.23
92.64
95.59
93.72
89.08
83.80
78.46
72.35
63.83
51.75
36.10
18.47
1.61
-11.73
-19.76
-22.63
-21.97
-20.14
-18.59
-18.26
-19.14
-20.84
-22.67
-23.94
-24.22
-23.43
-21.94
-20.39
-19.74
-20.79
-23.92
-28.98
-35.32
-42.19
-49.21
-56.55
-64.76
-74.42
-85.28
-95.78
-103.26
-104.76
-98.01
-82.08
-57.37
-25.18
12.62
52.82
90.88
120.99
137.28
135.96
117.71
87.82
54.81
26.36
6.97
-3.25
-7.31
-8.36
-7.16
-1.92
9.52
26.73
45.34
58.67
61.16
51.44
33.36
13.89
-0.20
-5.86
-4.53
-0.60
1.70
0.60
-2.80
-5.70
-5.74
-2.46
2.71
7.41
9.62
8.59
5.45
2.35
1.77
5.51
13.76
25.39
38.26
50.07
59.27
65.44
68.83
70.08
69.30
65.92
58.67
46.13
27.59
3.40
-24.87
-55.46
-86.34
-114.87
-137.45
-149.71
-147.91
-131.20
-101.84
-66.03
-31.70
-5.51
9.58
14.68
13.51
10.01
6.40
3.22
-0.23
-4.38
-8.60
-11.61
-12.54
-11.53
-9.78
-8.83
-9.89
-13.23
-18.11
-23.21
-27.32
-29.98
-31.75
-33.86
-37.81
-44.57
-54.41
-66.74
-80.27
-93.41
-104.76
-113.42
-118.68
-120.00
-117.03
-109.45
-97.17
-80.40
-59.80
-36.57
-12.26
11.39
32.90
51.07
65.29
75.44
81.75
84.66
84.66
82.27
77.91
72.04
65.04
57.36
49.35
41.34
33.48
25.87
18.55
11.46
4.63
-1.98
-8.40
-14.70
-20.91
-27.03
-33.12
-39.15
-45.17
-50.93
-56.29
-61.20
-65.67
-69.69
-73.26
-76.59
-79.73
-82.88
-85.90
-88.73
-91.56
-94.59
-98.19
-102.71
-108.57
-115.91
-124.86
-134.88
-145.46
-156.04
-166.08
-175.12
-182.73
-188.26
-190.38
-192.57
-195.70
-199.83
-204.55
-209.20
-213.10
-215.75
-216.92
-216.51
-214.79
-211.34
-205.85
-198.16
-188.19
-175.75
-160.77
-143.27
-123.23
-100.51
-74.07
-42.60
-4.98
39.57
91.26
149.12
210.65
272.04
328.68
376.41
411.83
432.99
439.77
433.74
417.54
394.06
366.20
336.57
307.70
281.86
260.95
246.42
239.30
240.08
248.77
264.64
285.71
308.62
328.70
341.05
342.02
330.53
308.20
278.67
245.96
213.09
181.45
151.23
122.29
94.93
70.03
48.52
30.82
16.61
5.01
-4.98
-14.10
-22.76
-31.05
-38.97
-46.50
-53.65
-60.36
-66.40
-71.38
-74.74
-75.86
-74.20
-69.51
-62.03
-52.49
-42.04
-32.02
-23.58
-17.47
-13.84
-12.35
-12.37
-13.28
-14.65
-16.29
-18.06
-19.84
-21.49
-22.82
-23.67
-23.77
-22.95
-21.22
-18.76
-15.74
-12.39
-8.94
-5.63
-2.70
-0.18
2.01
3.93
5.65
7.46
9.56
11.97
14.51
16.75
18.65
20.33
21.89
23.43
25.77
29.44
34.36
39.93
44.71
48.33
50.83
52.34
53.08
54.91
59.10
65.77
73.84
80.51
85.10
87.95
89.64
91.00
95.34
104.73
119.12
136.41
151.69
163.63
172.61
179.43
185.20
194.03
208.25
227.46
248.73
265.65
276.50
281.74
282.38
256.58
193.90
97.69
-15.63
-109.42
-179.27
-228.77
-262.37
-287.36
-306.27
-316.79
-317.37
-308.63
-293.61
-278.92
-266.68
-256.88
-249.01
-241.95
-232.41
-218.39
-199.94
-179.12
-160.77
-146.21
-135.07
-126.55
-119.37
-111.07
-100.23
-86.92
-72.58
-60.32
-50.84
-43.54
-37.45
-31.51
-24.54
-16.35
-7.69
0.10
5.36
8.12
9.48
10.85
13.58
18.63
26.09
35.23
44.70
52.93
59.11
63.27
66.04
68.25
70.43
72.17
72.10
68.22
58.81
43.06
21.13
-6.10
-37.32
-70.62
-102.93
-129.94
-147.15
-151.89
-144.96
-130.87
-115.70
-104.08
-96.97
-92.10
-86.79
-80.98
-77.93
-81.66
-93.09
-107.77
-117.31
-113.89
-94.86
-64.44
-31.30
-4.10
12.73
19.91
21.38
20.95
20.21
18.41
14.12
6.88
-2.08
-10.63
-17.02
-20.67
-22.31
-23.34
-24.97
-27.60
-30.77
-33.41
-34.49
-33.54
-30.96
-28.09
-26.80
-28.82
-35.06
-45.10
-57.27
-69.17
-78.59
-84.37
-86.80
-87.25
-87.24
-87.61
-88.08
-87.52
-84.58
-78.29
-68.31
-54.89
-38.64
-20.36
-1.10
17.95
35.41
50.06
61.11
68.55
73.15
76.24
79.32
83.53
89.29
96.07
102.57
107.21
108.75
106.82
102.05
95.74
89.31
83.82
79.62
76.47
73.74
70.75
67.05
62.52
57.33
51.78
46.18
40.67
35.31
30.18
25.46
21.51
18.77
17.49
17.55
18.44
19.35
19.52
18.54
16.51
13.92
11.45
9.69
8.87
8.88
9.27
9.47
8.78
6.63
2.64
-3.24
-10.67
-18.89
-26.77
-33.12
-37.04
-38.16
-36.77
-33.65
-29.68
-25.55
-21.56
-17.68
-13.90
-10.43
-7.76
-6.41
-6.46
-7.40
-8.18
-7.66
-5.13
-0.69
4.90
10.58
15.49
19.31
22.17
24.42
26.23
27.42
27.64
26.62
24.50
21.80
19.35
17.84
17.53
18.15
19.07
19.68
19.65
19.07
18.35
18.07
18.56
19.71
20.99
21.79
21.81
21.21
20.54
20.47
21.69
24.33
27.82
31.10
33.19
33.68
32.93
31.86
31.53
33.00
36.61
41.76
47.12
51.37
53.85
54.67
54.55
54.43
55.68
59.32
65.54
73.41
80.87
85.03
82.57
70.45
44.56
5.16
-42.09
-87.78
-123.36
-144.92
-153.49
-152.76
-146.50
-137.28
-125.87
-112.60
-98.37
-84.81
-73.62
-65.60
-60.38
-56.69
-53.09
-48.19
-41.57
-33.90
-26.54
-20.77
-17.08
-15.00
-13.49
-11.62
-8.63
-4.58
-0.15
3.66
6.17
7.38
7.96
8.84
10.48
13.03
15.89
18.19
19.21
18.74
17.27
15.23
13.61
12.36
11.13
8.90
4.82
-1.40
-9.57
-19.16
-29.49
-39.42
-47.40
-51.10
-48.81
-40.20
-27.25
-13.83
-4.09
-0.52
-1.87
-5.68
-8.13
-6.96
-2.30
3.75
8.71
11.35
12.03
11.98
11.52
10.89
9.10
5.40
-0.21
-7.06
-13.62
-18.48
-20.77
-20.56
-17.50
-13.28
-9.03
-5.28
-1.98
1.28
4.79
8.53
12.01
14.70
15.99
15.93
14.99
13.93
13.38
13.64
14.41
15.02
14.91
13.67
11.67
9.73
8.68
8.94
10.30
11.83
12.43
11.24
8.11
3.81
-0.47
-3.85
-6.20
-8.00
-10.37
-14.48
-21.12
-30.71
-43.30
-58.41
-74.00
-87.19
-93.73
-89.77
-73.79
-47.97
-17.80
9.88
29.74
39.86
41.85
39.37
35.72
32.56
29.83
26.90
23.64
20.78
19.37
19.77
21.37
22.76
22.75
20.78
17.55
14.36
12.53
12.61
14.14
15.93
16.67
15.70
13.31
10.72
9.26
9.80
12.20
15.45
18.34
19.86
19.96
19.48
19.89
22.44
28.20
37.80
51.09
66.46
80.52
88.66
86.01
71.00
45.76
16.05
-10.93
-29.54
-37.84
-37.81
-33.56
-28.66
-24.68
-21.32
-17.52
-12.87
-8.03
-4.32
-2.66
-2.82
-3.63
-3.57
-1.51
2.61
7.84
12.89
16.57
18.41
18.72
18.39
18.40
19.29
20.92
22.41
22.87
21.53
18.13
12.95
6.65
-0.06
-6.63
-12.45
-17.75
-22.61
-26.98
-30.64
-33.38
-35.07
-35.78
-36.04
-35.97
-35.82
-35.47
-34.61
-32.94
-30.28
-26.83
-23.42
-20.59
-18.77
-18.13
-18.25
-18.37
-17.78
-16.30
-14.42
-12.67
-12.72
-15.47
-20.90
-27.88
-34.79
-39.91
-42.24
-41.88
-40.14
-38.64
-39.30
-43.70
-52.38
-63.88
-74.51
-79.16
-72.93
-53.11
-20.51
19.92
60.27
91.81
107.76
105.22
85.97
55.73
22.33
-6.70
-26.30
-34.93
-34.34
-28.02
-19.55
-11.37
-4.31
1.87
7.54
12.79
17.85
22.38
26.58
30.80
35.21
39.74
43.78
46.65
47.54
46.01
41.80
34.87
25.46
13.84
-0.13
-17.02
-37.19
-59.89
-82.20
-98.86
-105.15
-98.37
-79.78
-54.67
-30.29
-12.88
-5.21
-5.99
-11.55
-18.21
-23.91
-28.60
-33.11
-37.78
-42.01
-44.64
-44.67
-41.93
-37.35
-31.98
-26.57
-21.20
-15.09
-7.37
2.44
14.34
27.56
40.76
52.62
62.30
68.62
72.03
73.74
73.74
72.33
69.84
66.59
62.94
59.44
56.26
53.53
51.06
48.64
46.45
45.01
44.99
46.04
49.15
54.06
59.84
64.95
68.22
69.23
68.38
66.65
65.11
64.82
66.42
70.44
76.74
84.02
89.31
88.19
76.68
53.08
20.05
-16.36
-48.95
-72.67
-86.98
-94.82
-100.68
-107.35
-114.37
-118.16
-114.63
-101.30
-79.74
-53.76
-27.48
-3.84
15.58
29.71
37.05
35.50
23.84
3.33
-21.60
-44.41
-58.97
-62.38
-55.71
-42.93
-28.82
-17.00
-8.67
-3.61
-0.74
0.79
1.44
1.60
1.67
2.03
2.73
3.71
4.65
5.37
5.82
6.21
6.80
7.69
8.68
9.30
9.19
8.19
6.61
4.96
3.65
2.84
2.18
0.90
-1.88
-6.83
-14.58
-25.67
-40.13
-56.70
-72.32
-82.58
-82.84
-71.46
-50.33
-24.75
-1.41
14.52
21.30
20.81
16.84
12.62
9.54
7.20
4.56
1.18
-2.29
-4.61
-4.98
-3.62
-1.66
-0.50
-1.14
-3.40
-6.30
-8.43
-8.57
-6.15
-1.52
4.34
10.30
15.50
19.71
23.05
25.89
28.48
30.65
31.90
31.53
28.94
23.66
16.38
7.94
-0.66
-8.55
-15.06
-19.87
-22.98
-24.52
-24.64
-23.38
-20.76
-16.87
-11.86
-6.09
0.06
6.00
11.21
15.12
17.39
17.81
16.33
13.16
8.26
2.53
-3.34
-8.56
-12.29
-14.25
-14.16
-11.96
-7.80
-2.10
4.66
11.73
18.49
24.11
27.90
29.46
28.54
25.17
19.52
12.20
3.05
-6.67
-16.16
-24.83
-32.18
-37.85
-41.35
-42.89
-42.56
-40.64
-37.46
-33.60
-29.57
-25.81
-22.64
-20.26
-18.68
-17.78
-17.53
-17.77
-18.53
-19.93
-22.00
-24.70
-27.93
-31.28
-34.38
-37.17
-39.66
-42.18
-45.23
-49.21
-54.27
-60.27
-66.40
-71.98
-76.71
-80.46
-83.65
-86.92
-90.80
-95.34
-100.09
-103.74
-105.18
-104.09
-100.36
-94.70
-88.10
-80.86
-71.56
-61.54
-49.53
-33.76
-13.54
11.67
40.87
71.73
101.83
129.79
155.68
180.77
207.41
237.61
274.58
318.81
366.45
409.56
437.90
442.88
420.34
373.88
313.30
254.37
211.12
191.02
193.66
212.49
238.67
263.82
284.49
282.98
252.75
198.73
133.00
66.22
3.22
-47.54
-89.79
-125.00
-152.94
-170.78
-177.73
-176.65
-170.89
-163.52
-156.34
-151.58
-150.03
-152.64
-158.43
-166.08
-174.09
-180.51
-183.08
-179.95
-171.76
-160.16
-148.69
-140.62
-139.02
-145.70
-159.68
-176.62
-189.55
-192.11
-180.35
-155.58
-123.26
-90.95
-64.86
-47.37
-37.08
-30.95
-27.07
-25.21
-26.12
-29.48
-32.93
-32.97
-27.09
-15.58
-1.65
10.07
15.92
14.61
7.44
-2.60
-12.26
-18.95
-21.21
-18.62
-11.51
-0.90
11.74
24.59
35.77
43.62
47.09
45.95
40.95
33.72
26.45
21.34
20.03
23.11
29.92
38.87
47.94
55.31
59.76
60.87
58.96
54.89
49.80
44.90
41.18
39.21
38.93
39.81
41.05
42.04
42.53
42.67
42.69
42.70
42.48
41.72
40.15
37.76
34.80
31.56
28.18
24.56
20.32
14.82
7.35
-2.58
-15.00
-29.10
-43.27
-55.33
-63.22
-65.82
-63.37
-57.25
-49.32
-40.97
-32.83
-24.93
-17.15
-9.69
-3.10
2.06
5.82
9.00
12.94
18.68
26.12
34.06
40.72
44.46
44.42
40.71
34.21
26.20
18.04
10.74
5.56
3.71
5.65
10.40
15.67
18.70
17.88
13.49
7.16
2.05
1.40
6.71
16.77
28.33
37.49
41.63
40.02
32.60
21.46
9.97
1.00
-4.76
-9.15
-16.20
-30.27
-55.00
-92.97
-141.74
-193.18
-235.82
-258.70
-254.50
-221.91
-164.73
-84.67
4.44
82.59
134.45
156.67
155.25
142.46
124.15
103.44
82.50
61.94
42.98
26.92
14.53
4.67
-4.99
-16.71
-30.12
-42.68
-51.72
-54.29
-48.67
-35.99
-20.79
-9.07
-5.96
-12.51
-25.90
-41.57
-54.21
-59.78
-57.04
-47.91
-36.20
-26.00
-19.52
-17.34
-19.00
-23.14
-27.73
-30.70
-30.59
-27.04
-21.03
-13.87
-7.19
-2.46
-0.48
-1.01
-3.00
-4.95
-5.27
-2.57
4.72
17.24
34.05
52.47
69.07
81.13
87.64
89.46
88.62
88.18
90.34
95.87
103.84
112.50
120.19
125.61
127.66
120.53
100.83
69.01
30.10
-9.08
-42.69
-66.98
-80.31
-82.91
-76.63
-63.72
-47.69
-30.70
-15.19
-3.69
1.73
-0.14
-9.45
-25.37
-45.52
-66.66
-85.09
-96.39
-96.81
-84.48
-60.52
-29.08
3.92
33.10
55.00
68.37
73.34
70.49
60.44
43.94
21.99
-3.93
-31.83
-59.61
-85.06
-105.74
-118.98
-122.26
-114.62
-97.85
-76.39
-55.48
-38.99
-27.98
-20.86
-15.08
-8.91
-2.23
3.72
7.54
8.72
7.94
6.54
6.08
7.50
11.24
17.58
26.40
37.14
48.91
60.41
70.20
77.43
81.69
83.58
84.69
86.60
90.39
96.27
103.49
110.44
115.67
117.57
115.41
109.55
100.11
86.61
68.19
44.09
14.23
-19.83
-56.90
-95.99
-133.09
-163.07
-181.47
-185.22
-172.51
-148.16
-114.10
-74.47
-34.61
1.21
31.49
56.00
75.64
92.21
106.66
118.88
126.51
127.03
119.01
103.07
81.22
55.95
30.54
7.87
-10.43
-25.75
-41.41
-61.61
-88.97
-123.35
-161.78
-197.72
-223.45
-232.61
-223.30
-197.53
-159.85
-114.17
-59.13
0.59
56.71
101.19
129.98
142.29
144.17
138.51
127.99
115.01
100.50
85.38
68.20
49.63
31.18
15.47
5.09
2.40
7.61
17.93
29.72
39.67
46.52
50.91
55.25
61.58
70.47
79.63
84.54
81.61
69.67
50.69
28.09
5.01
-18.10
-43.70
-76.22
-119.40
-168.67
-212.94
-240.05
-245.21
-232.64
-210.29
-183.36
-151.94
-113.12
-65.32
-12.86
33.99
63.12
67.76
50.70
23.12
-1.26
-12.88
-10.21
0.37
11.18
17.18
18.25
18.03
20.33
26.07
32.59
35.57
31.35
19.45
2.98
-12.60
-21.93
-22.41
-15.39
-5.18
3.12
6.00
2.02
-7.14
-17.46
-24.33
-24.43
-16.94
-3.58
12.48
28.08
41.00
50.37
56.30
59.24
59.54
57.48
53.60
48.98
45.16
43.41
44.04
45.96
46.98
44.83
38.25
27.65
14.80
2.13
-8.44
-16.20
-21.62
-26.08
-31.06
-37.42
-45.11
-53.16
-60.05
-64.21
-64.46
-60.33
-52.25
-41.28
-28.80
-16.04
-3.82
7.50
17.81
26.96
34.64
40.39
43.91
45.32
45.29
44.89
45.25
47.23
51.15
56.69
62.94
68.55
71.78
70.60
63.14
48.32
26.65
0.49
-26.27
-49.43
-65.82
-74.44
-76.46
-74.23
-69.94
-64.63
-58.15
-49.88
-39.66
-28.22
-16.93
-7.07
0.82
7.04
12.33
17.29
22.07
26.32
29.57
31.56
32.41
32.49
32.17
31.51
30.15
27.54
23.12
16.77
8.95
0.73
-6.51
-11.51
-13.53
-12.61
-9.53
-5.55
-1.97
0.20
0.54
-0.75
-3.02
-5.32
-6.81
-7.04
-6.16
-4.92
-4.39
-5.53
-8.77
-13.80
-19.69
-25.34
-29.98
-33.39
-35.68
-36.80
-36.26
-33.19
-26.85
-17.16
-4.98
8.17
20.72
31.66
40.70
48.00
53.61
57.26
58.43
56.77
52.42
45.97
38.23
29.81
20.99
11.84
2.61
-6.02
-12.97
-17.23
-18.49
-17.43
-15.28
-13.18
-11.48
-9.55
-6.16
-0.19
8.54
18.91
29.21
38.15
45.47
51.83
58.23
65.31
73.09
80.81
86.93
90.28
90.90
90.02
89.30
89.96
92.35
95.94
99.88
102.06
100.51
94.55
85.02
73.63
62.07
51.29
41.04
30.43
15.84
-7.08
-41.11
-86.20
-139.89
-198.41
-257.98
-309.87
-341.16
-344.98
-325.72
-295.95
-267.90
-246.95
-231.00
-212.69
-187.30
-146.12
-88.01
-19.03
51.36
113.63
161.47
192.15
206.89
194.63
156.36
102.78
50.11
11.55
-9.19
-14.82
-12.65
-7.71
-2.07
6.97
20.89
37.06
52.36
63.85
71.56
77.53
84.94
96.25
114.24
138.80
167.36
196.20
213.69
211.97
189.36
151.43
106.96
64.55
28.70
-0.06
-23.53
-44.26
-62.71
-78.50
-90.82
-99.21
-103.59
-104.60
-103.40
-101.21
-98.98
-96.11
-91.72
-85.42
-76.96
-67.98
-60.75
-57.20
-58.20
-63.35
-70.54
-77.12
-80.76
-80.14
-75.26
-66.80
-55.87
-43.81
-31.88
-20.53
-9.20
3.52
19.26
38.73
61.15
83.98
103.70
116.96
122.05
119.19
110.08
96.83
81.12
64.12
46.98
31.34
19.06
11.82
10.27
13.65
20.10
27.28
33.33
37.39
39.73
40.68
40.35
38.38
34.41
28.50
21.20
13.24
5.31
-1.94
-8.42
-14.26
-19.83
-25.77
-33.35
-44.69
-62.66
-89.88
-122.94
-154.98
-177.46
-184.76
-176.91
-158.42
-135.20
-112.55
-93.69
-79.16
-68.11
-59.27
-51.98
-46.17
-42.10
-39.58
-38.39
-38.29
-39.01
-40.91
-44.38
-48.70
-51.03
-46.80
-32.11
-4.73
33.09
75.32
113.99
142.33
157.12
159.35
150.18
135.90
121.07
107.43
95.12
83.88
73.91
65.82
60.09
56.57
54.93
54.04
52.95
51.70
51.03
51.60
53.06
53.63
50.49
41.49
25.63
4.27
-19.05
-40.05
-55.41
-64.18
-67.12
-66.03
-62.50
-57.64
-51.85
-45.18
-37.88
-30.59
-24.12
-18.95
-15.06
-11.89
-8.89
-5.78
-2.79
-0.47
0.60
0.20
-1.34
-3.27
-4.72
-5.13
-4.45
-3.12
-1.80
-1.06
-1.05
-1.44
-1.64
-1.12
0.36
2.50
4.61
5.89
5.75
4.10
1.34
-1.81
-4.55
-6.29
-6.49
-5.00
-2.04
1.90
6.19
10.29
13.88
16.89
19.41
21.45
22.80
23.03
21.76
18.94
14.99
10.77
7.21
4.95
3.99
3.62
2.59
-0.56
-7.04
-17.29
-30.68
-45.32
-58.50
-67.30
-69.52
-64.49
-53.37
-38.69
-23.34
-9.60
1.59
10.53
18.27
25.79
33.32
40.26
45.59
48.59
49.30
48.58
47.50
46.88
46.88
46.72
45.12
40.99
34.14
25.39
16.28
8.12
1.58
-3.57
-8.38
-13.98
-20.98
-29.26
-38.77
-48.23
-57.52
-66.71
-74.81
-79.60
-79.04
-73.03
-63.82
-55.42
-51.33
-52.78
-57.94
-63.42
-66.44
-66.49
-65.32
-65.44
-68.94
-75.73
-82.96
-85.55
-78.01
-56.87
-22.58
19.91
63.38
100.99
127.94
143.13
148.81
148.68
145.77
141.26
132.52
120.95
108.26
96.76
88.52
83.81
80.40
74.50
62.59
43.53
19.92
-3.86
-23.16
-35.03
-39.35
-38.48
-35.72
-33.76
-33.80
-35.16
-36.93
-38.47
-39.19
-38.83
-37.37
-34.82
-31.37
-27.44
-23.42
-20.06
-17.78
-16.43
-15.34
-13.74
-11.18
-7.99
-5.18
-3.85
-4.60
-6.92
-9.21
-9.66
-7.27
-2.48
3.07
7.24
8.35
5.46
-1.91
-14.40
-32.40
-54.72
-77.28
-93.35
-95.91
-81.31
-51.89
-15.44
18.33
42.27
54.65
58.58
58.74
58.07
56.43
51.84
43.10
31.41
20.10
12.66
10.66
12.85
16.26
17.97
16.54
12.69
8.72
7.29
9.56
14.96
21.37
26.34
28.31
27.35
24.87
22.52
20.75
19.20
16.55
11.55
4.03
-5.06
-14.18
-22.04
-28.02
-32.12
-34.81
-36.19
-36.25
-34.95
-32.37
-28.74
-24.32
-19.47
-14.46
-9.55
-4.99
-1.11
1.94
4.20
5.92
7.40
8.84
10.33
11.82
13.32
14.81
16.36
18.02
19.71
21.19
22.13
22.27
21.60
20.34
18.74
16.97
15.05
12.90
10.44
7.73
4.93
2.09
-0.48
-2.72
-4.78
-6.84
-8.99
-11.18
-13.29
-15.22
-16.99
-18.67
-20.33
-21.89
-23.06
-23.45
-22.68
-20.61
-17.38
-13.43
-9.39
-5.98
-3.81
-3.22
-4.27
-6.73
-10.17
-14.01
-17.67
-20.56
-22.22
-22.34
-20.81
-17.76
-13.46
-8.31
-2.71
2.93
8.23
12.84
16.40
18.55
18.96
17.41
13.93
8.82
2.62
-3.94
-10.09
-15.19
-18.75
-20.51
-20.45
-18.82
-16.01
-12.54
-8.88
-5.35
-2.03
1.16
4.35
7.56
10.60
13.11
14.71
15.16
14.41
12.66
10.26
7.63
5.27
3.67
3.33
4.55
7.29
11.22
15.77
20.47
25.11
29.80
34.65
39.47
43.49
45.51
44.30
39.18
30.33
18.82
6.18
-6.09
-16.86
-25.53
-31.87
-35.78
-37.26
-36.35
-33.23
-28.34
-22.25
-15.61
-9.02
-2.97
2.20
6.29
9.24
11.09
11.98
12.08
11.54
10.50
8.94
6.89
4.45
1.85
-0.67
-2.92
-4.83
-6.36
-7.54
-8.42
-9.00
-9.27
-9.19
-8.94
-8.79
-9.03
-9.82
-11.11
-12.88
-15.10
-17.60
-20.08
-22.36
-24.26
-25.48
-25.57
-23.99
-20.69
-15.95
-10.17
-3.77
2.50
7.89
11.95
14.74
16.82
18.20
18.74
18.17
16.24
12.27
5.55
-4.21
-16.48
-29.94
-43.76
-57.16
-69.23
-76.27
-74.98
-64.63
-47.88
-30.79
-14.43
1.36
16.97
32.44
47.03
59.27
67.73
71.73
71.89
69.87
66.68
62.91
58.81
54.47
49.67
44.39
37.67
30.21
23.68
19.00
16.04
13.87
11.47
8.04
3.37
-2.13
-7.44
-11.54
-14.36
-16.27
-17.65
-18.74
-19.79
-20.92
-22.19
-23.30
-23.97
-24.18
-24.14
-24.18
-24.31
-24.91
-26.36
-28.83
-31.95
-34.91
-36.79
-36.82
-34.62
-30.33
-24.62
-18.30
-12.10
-6.42
-1.43
2.78
6.16
8.66
10.27
11.02
11.08
10.73
10.36
10.29
10.70
11.61
12.85
14.15
15.19
15.86
16.22
16.55
17.15
18.24
19.81
21.67
23.49
24.86
25.43
24.95
23.43
21.11
18.57
16.59
15.90
16.85
19.23
22.18
24.43
24.69
22.10
16.46
8.28
-1.32
-11.01
-19.49
-25.73
-29.16
-29.72
-27.88
-24.57
-21.00
-18.34
-17.28
-17.82
-19.31
-20.72
-21.14
-20.15
-17.92
-15.00
-11.97
-9.14
-6.55
-4.19
-2.16
-0.77
-0.32
-0.88
-2.12
-3.39
-3.97
-3.44
-1.72
0.87
3.88
6.86
9.52
11.70
13.29
14.21
14.43
14.04
13.28
12.46
11.89
11.78
12.18
13.02
14.13
15.28
16.23
16.72
16.59
15.80
14.50
12.98
11.59
10.62
10.21
10.32
10.81
11.44
11.99
12.24
12.00
11.18
9.81
8.07
6.17
4.33
2.71
1.34
0.20
-0.75
-1.50
-2.04
-2.30
-2.33
-2.25
-2.30
-2.71
-3.64
-5.12
-6.97
-8.96
-10.85
-12.50
-13.91
-15.18
-16.43
-17.73
-19.01
-20.08
-20.73
-20.75
-20.02
-18.57
-16.61
-14.41
-12.28
-10.42
-8.89
-7.59
-6.33
-4.98
-3.49
-1.95
-0.46
0.83
1.85
2.55
2.94
3.02
2.81
2.36
1.72
0.93
0.04
-0.94
-2.01
-3.15
-4.34
-5.54
-6.81
-8.16
-9.55
-10.86
-11.88
-12.54
-12.98
-13.48
-14.46
-16.13
-18.23
-19.94
-20.13
-17.80
-12.64
-5.17
3.56
12.26
19.96
26.18
30.91
34.31
36.65
38.02
38.51
38.17
37.16
35.40
32.50
28.09
21.71
14.06
6.21
-1.05
-6.62
-10.39
-13.02
-15.74
-19.77
-25.88
-33.97
-43.06
-51.49
-57.52
-60.04
-58.95
-55.06
-49.54
-43.39
-37.00
-30.40
-23.51
-16.52
-9.99
-4.47
-0.19
3.19
6.29
9.70
13.53
17.42
20.79
23.03
23.83
23.24
21.58
19.29
16.76
14.29
12.03
10.07
8.40
7.03
6.00
5.36
5.11
5.08
4.88
4.05
2.18
-0.85
-4.79
-9.08
-13.01
-15.97
-17.64
-18.00
-17.31
-15.93
-14.24
-12.59
-11.27
-10.46
-10.14
-10.03
-9.60
-8.28
-5.73
-1.98
2.48
6.97
10.96
14.35
17.53
21.04
25.12
29.45
33.20
35.42
35.52
33.57
30.20
26.20
22.06
17.78
13.03
7.53
1.37
-4.97
-10.75
-15.45
-18.88
-21.13
-22.38
-22.69
-21.93
-19.97
-16.85
-12.89
-8.59
-4.47
-0.86
2.17
4.73
7.01
9.12
10.97
12.23
12.40
10.95
7.71
3.05
-2.14
-6.61
-9.27
-9.61
-7.85
-4.74
-1.29
1.70
3.86
5.36
6.74
8.55
11.12
14.20
17.12
19.01
19.16
17.39
14.06
9.78
4.97
-0.42
-6.84
-14.76
-24.06
-33.86
-42.73
-49.28
-52.79
-53.49
-52.35
-50.41
-48.15
-45.20
-40.53
-33.17
-22.83
-10.13
3.69
17.43
30.29
42.03
52.72
62.42
70.80
77.15
80.74
81.26
79.02
74.80
69.30
62.74
54.92
45.28
33.49
20.03
6.41
-5.24
-13.12
-16.48
-15.86
-12.33
-7.16
-1.27
4.97
11.53
18.22
24.48
29.54
33.01
35.47
37.80
40.58
43.85
47.18
50.11
52.58
54.81
53.91
48.35
38.24
25.16
11.06
-2.54
-14.74
-24.81
-33.75
-42.67
-51.81
-60.90
-69.49
-77.36
-83.38
-87.08
-88.40
-88.06
-87.43
-87.85
-90.37
-95.04
-100.64
-104.76
-104.22
-95.92
-78.31
-51.92
-18.99
17.25
53.38
86.30
111.22
123.10
120.50
106.76
87.51
67.19
47.77
29.43
12.00
-4.21
-18.11
-28.33
-33.93
-35.11
-33.03
-29.31
-25.45
-22.63
-21.57
-22.21
-23.31
-23.91
-23.46
-21.87
-19.20
-15.46
-10.55
-4.37
3.03
11.17
18.84
24.24
25.72
22.76
16.31
8.53
1.91
-1.62
-1.38
1.89
6.50
10.70
13.38
14.36
14.33
14.43
15.87
19.61
26.00
34.71
44.72
54.41
61.84
65.10
62.69
53.95
39.30
20.05
-1.88
-24.46
-46.15
-65.94
-83.14
-96.88
-105.81
-108.26
-102.96
-89.83
-70.47
-47.96
-25.90
-7.23
6.50
15.27
20.00
21.79
21.37
19.07
15.09
9.89
4.36
-0.34
-3.07
-3.10
-0.29
4.93
11.67
18.89
25.77
31.88
37.23
42.08
46.58
50.63
53.81
55.67
55.94
54.66
51.99
47.92
42.19
34.40
24.46
12.77
0.28
-11.96
-23.25
-33.46
-42.81
-51.37
-58.68
-63.65
-65.07
-62.19
-55.16
-45.01
-33.17
-20.96
-9.27
1.36
10.50
17.62
22.10
23.47
21.63
16.90
10.04
2.00
-6.32
-14.15
-20.85
-25.86
-28.67
-28.81
-26.05
-20.59
-13.11
-4.66
3.57
10.51
15.48
18.31
19.20
18.56
16.76
14.08
10.72
6.94
3.09
-0.38
-3.06
-4.66
-5.14
-4.68
-3.64
-2.41
-1.39
-0.82
-0.84
-1.47
-2.62
-4.18
-5.98
-7.83
-9.51
-10.77
-11.34
-10.98
-9.63
-7.38
-4.50
-1.36
1.69
4.43
6.78
8.71
10.20
11.14
11.40
10.97
9.97
8.72
7.60
6.87
6.59
6.62
6.69
6.54
6.10
5.44
4.76
4.26
4.10
4.37
5.08
6.16
7.44
8.63
9.42
9.59
9.12
8.27
7.42
6.84
6.52
6.13
5.24
3.67
1.61
-0.48
-2.05
-2.72
-2.40
-1.32
0.24
2.00
3.82
5.43
6.41
6.29
4.82
2.27
-0.63
-2.99
-4.34
-4.97
-5.91
-8.44
-13.20
-19.57
-25.88
-30.21
-31.47
-29.70
-25.78
-19.90
-12.46
-4.08
4.24
11.29
15.90
17.42
16.14
13.41
10.97
10.10
11.29
14.34
18.76
24.12
30.49
37.63
45.05
51.91
57.08
59.71
59.39
56.21
50.69
43.60
35.72
27.75
20.08
12.60
4.84
-3.51
-12.64
-22.62
-33.36
-44.61
-55.79
-65.97
-74.01
-78.65
-78.78
-73.80
-63.91
-50.10
-34.05
-17.69
-2.77
9.39
18.13
23.37
25.41
24.79
22.15
18.11
13.29
8.20
3.18
-1.60
-6.15
-10.54
-14.77
-18.67
-21.89
-24.09
-25.03
-24.78
-23.72
-22.35
-21.10
-20.14
-19.40
-18.62
-17.55
-16.01
-13.88
-11.08
-7.52
-3.25
1.54
6.40
10.80
14.29
16.69
18.12
18.91
19.42
19.88
20.37
20.88
21.40
21.85
22.01
21.48
19.77
16.53
11.76
5.92
-0.17
-5.68
-9.97
-12.84
-14.44
-15.08
-15.12
-14.85
-14.41
-13.92
-13.44
-13.02
-12.67
-12.36
-12.03
-11.59
-10.94
-9.96
-8.59
-6.85
-4.82
-2.67
-0.47
1.80
4.34
7.39
11.07
15.23
19.48
23.36
26.47
28.67
30.04
30.81
31.13
31.00
30.26
28.68
26.13
22.58
18.14
12.94
7.13
0.84
-5.76
-12.45
-18.88
-24.60
-29.14
-32.07
-33.11
-32.17
-29.34
-24.93
-19.36
-13.13
-6.78
-0.83
4.34
8.44
11.29
12.85
13.19
12.45
10.79
8.43
5.62
2.58
-0.48
-3.46
-6.33
-9.08
-11.65
-13.92
-15.69
-16.78
-17.09
-16.65
-15.66
-14.32
-12.89
-11.58
-10.57
-9.95
-9.71
-9.73
-9.72
-9.34
-8.28
-6.42
-3.83
-0.79
2.36
5.31
7.87
9.97
11.61
12.84
13.68
14.15
14.29
14.16
13.86
13.46
13.05
12.61
12.10
11.43
10.52
9.31
7.83
6.15
4.39
2.63
0.91
-0.80
-2.55
-4.38
-6.30
-8.23
-10.08
-11.72
-13.05
-13.97
-14.41
-14.31
-13.66
-12.45
-10.66
-8.31
-5.40
-2.02
1.62
5.18
8.21
10.26
11.05
10.56
9.02
6.82
4.35
1.84
-0.63
-3.12
-5.67
-8.26
-10.78
-13.09
-15.04
-16.48
-17.33
-17.50
-16.97
-15.85
-14.34
-12.74
-11.31
-10.21
-9.33
-8.40
-7.06
-4.99
-2.09
1.47
5.30
8.89
11.82
13.83
14.91
15.18
14.86
14.11
13.05
11.77
10.35
8.87
7.34
5.71
3.83
1.57
-1.10
-4.02
-6.83
-9.04
-10.21
-10.09
-8.67
-6.14
-2.83
0.90
4.71
8.29
11.36
13.72
15.29
16.17
16.62
16.97
17.47
18.18
18.93
19.46
19.55
19.13
18.28
17.15
15.85
14.39
12.74
10.88
8.90
6.94
5.18
3.72
2.57
1.66
0.92
0.32
-0.12
-0.38
-0.55
-0.76
-1.14
-1.77
-2.62
-3.57
-4.54
-5.48
-6.43
-7.35
-8.08
-8.28
-7.56
-5.77
-3.06
0.04
2.85
4.78
5.60
5.41
4.59
3.52
2.51
1.74
1.35
1.48
2.25
3.63
5.45
7.35
8.95
9.95
10.29
10.06
9.47
8.70
7.81
6.72
5.30
3.36
0.80
-2.38
-6.03
-9.88
-13.60
-16.87
-19.47
-21.22
-22.06
-21.94
-20.90
-19.08
-16.73
-14.22
-12.02
-10.54
-10.06
-10.61
-12.08
-14.20
-16.73
-19.45
-22.15
-24.49
-25.95
-25.88
-23.70
-19.12
-12.32
-3.88
5.44
14.92
24.05
32.51
40.00
46.14
50.55
52.96
53.45
52.38
50.25
47.39
43.70
38.77
32.07
23.36
12.83
1.16
-10.71
-21.79
-31.30
-38.65
-43.48
-45.60
-45.01
-41.95
-36.90
-30.61
-23.95
-17.71
-12.47
-8.46
-5.52
-3.29
-1.34
0.57
2.44
4.07
5.26
5.92
6.20
6.42
6.98
8.15
10.06
12.58
15.46
18.33
20.84
22.70
23.80
24.25
24.36
24.55
25.10
26.05
27.10
27.67
27.14
25.01
21.14
15.78
9.54
3.21
-2.42
-6.82
-9.82
-11.66
-12.77
-13.56
-14.24
-14.72
-14.76
-14.24
-13.27
-12.28
-11.69
-11.78
-12.49
-13.50
-14.46
-15.14
-15.40
-15.06
-13.79
-11.19
-7.16
-2.12
2.91
6.74
8.49
8.05
6.10
3.77
2.04
1.44
1.82
2.61
3.06
2.56
0.80
-2.09
-5.64
-9.08
-11.66
-12.88
-12.73
-11.67
-10.45
-9.88
-10.60
-13.10
-17.69
-24.50
-33.34
-43.55
-53.88
-62.62
-68.16
-69.48
-66.65
-60.75
-53.48
-46.48
-40.68
-36.16
-32.36
-28.61
-24.60
-20.51
-16.83
-13.94
-11.90
-10.38
-8.87
-6.88
-4.11
-0.44
4.13
9.56
15.70
22.35
29.18
35.73
41.48
45.91
48.65
49.60
48.96
47.20
44.94
42.75
40.97
39.60
38.42
37.14
35.54
33.56
31.38
29.30
27.68
26.79
26.74
27.42
28.43
29.19
29.06
27.64
24.90
21.18
17.06
13.09
9.60
6.61
3.95
1.45
-0.95
-3.18
-5.12
-6.75
-8.12
-9.38
-10.61
-11.78
-12.80
-13.57
-14.11
-14.48
-14.70
-14.81
-14.71
-14.34
-13.64
-12.62
-11.36
-9.91
-8.31
-6.55
-4.59
-2.41
-0.03
2.49
5.00
7.36
9.41
11.02
12.06
12.49
12.33
11.69
10.73
9.69
8.74
7.98
7.37
6.80
6.11
5.22
4.15
3.02
2.03
1.28
0.83
0.59
0.39
0.05
-0.55
-1.42
-2.48
-3.56
-4.50
-5.30
-6.08
-7.16
-8.97
-11.94
-16.34
-22.12
-28.76
-35.34
-40.61
-43.36
-42.77
-38.55
-31.01
-20.86
-8.89
4.17
17.76
31.35
44.26
55.61
64.35
69.47
70.24
66.47
58.56
47.49
34.68
21.65
9.80
0.12
-6.94
-11.46
-13.84
-14.64
-14.39
-13.49
-12.25
-10.96
-9.96
-9.59
-10.10
-11.57
-13.82
-16.48
-19.10
-21.30
-22.91
-23.93
-24.47
-24.66
-24.59
-24.37
-24.10
-23.91
-23.93
-24.20
-24.64
-25.03
-25.11
-24.68
-23.68
-22.22
-20.52
-18.78
-17.14
-15.68
-14.44
-13.51
-12.93
-12.70
-12.69
-12.69
-12.44
-11.78
-10.70
-9.35
-7.97
-6.73
-5.71
-4.89
-4.24
-3.73
-3.35
-3.02
-2.61
-2.00
-1.10
-0.02
1.02
1.73
1.94
1.65
1.07
0.45
0.01
-0.17
-0.12
0.16
0.72
1.63
2.92
4.47
6.04
7.33
8.15
8.45
8.38
8.16
7.98
7.92
7.98
8.13
8.33
8.55
8.77
8.89
8.82
8.49
7.89
7.13
6.35
5.71
5.27
5.07
5.06
5.20
5.44
5.72
5.98
6.12
6.04
5.68
5.00
4.08
3.06
2.09
1.34
0.93
0.85
1.07
1.44
1.87
2.25
2.56
2.81
2.98
3.05
2.96
2.68
2.25
1.81
1.53
1.56
1.90
2.39
2.82
3.04
3.09
3.26
3.96
5.51
7.97
11.08
14.32
17.10
18.93
19.63
19.30
18.24
16.85
15.48
14.32
13.43
12.75
12.21
11.77
11.49
11.40
11.54
11.82
12.08
12.13
11.81
11.05
9.91
8.49
6.94
5.42
4.05
2.93
2.10
1.55
1.23
1.06
0.95
0.79
0.48
-0.05
-0.80
-1.66
-2.45
-2.98
-3.16
-3.09
-3.01
-3.19
-3.81
-4.83
-6.02
-7.07
-7.74
-7.92
-7.62
-6.91
-5.85
-4.49
-2.87
-1.11
0.63
2.14
3.23
3.79
3.79
3.30
2.45
1.42
0.39
-0.49
-1.16
-1.59
-1.83
-1.95
-2.04
-2.19
-2.47
-2.92
-3.50
-4.15
-4.75
-5.20
-5.43
-5.51
-5.51
-5.57
-5.74
-6.01
-6.29
-6.43
-6.30
-5.82
-5.02
-4.02
-3.01
-2.15
-1.55
-1.21
-1.06
-1.02
-1.00
-0.99
-1.00
-1.04
-1.15
-1.30
-1.46
-1.64
-1.84
-2.09
-2.32
-2.41
-2.14
-1.35
-0.03
1.65
3.33
4.63
5.25
5.07
4.09
2.40
0.08
-2.80
-6.08
-9.54
-12.83
-15.59
-17.53
-18.47
-18.44
-17.59
-16.14
-14.41
-12.69
-11.25
-10.27
-9.77
-9.60
-9.52
-9.27
-8.69
-7.75
-6.56
-5.30
-4.12
-3.10
-2.21
-1.39
-0.62
0.03
0.43
0.41
-0.16
-1.24
-2.74
-4.47
-6.25
-7.98
-9.59
-11.07
-12.35
-13.38
-14.06
-14.31
-14.07
-13.32
-12.07
-10.38
-8.33
-6.06
-3.70
-1.41
0.74
2.65
4.26
5.54
6.44
6.97
7.18
7.22
7.20
7.26
7.43
7.72
8.08
8.46
8.78
8.95
8.90
8.60
8.10
7.51
6.97
6.56
6.26
5.95
5.49
4.80
3.92
2.99
2.23
1.82
1.83
2.24
2.96
3.81
4.61
5.18
5.41
5.24
4.73
4.00
3.17
2.35
1.61
0.99
0.51
0.19
0.02
-0.05
-0.06
-0.07
-0.07
-0.03
0.10
0.33
0.64
0.95
1.17
1.26
1.20
1.02
0.72
0.32
-0.18
-0.75
-1.38
-2.06
-2.78
-3.53
-4.25
-4.81
-5.05
-4.82
-4.07
-2.88
-1.42
0.17
1.75
3.27
4.67
5.85
6.66
7.00
6.86
6.37
5.76
5.22
4.85
4.58
4.27
3.81
3.20
2.54
1.93
1.40
0.86
0.19
-0.67
-1.67
-2.65
-3.46
-4.05
-4.46
-4.83
-5.28
-5.81
-6.34
-6.68
-6.62
-6.05
-4.98
-3.55
-1.96
-0.44
0.88
1.94
2.77
3.41
3.87
4.10
4.03
3.62
3.00
2.31
1.74
1.33
1.03
0.70
0.23
-0.41
-1.13
-1.77
-2.22
-2.52
-2.76
-3.10
-3.61
-4.25
-4.91
-5.49
-5.93
-6.29
-6.62
-6.96
-7.25
-7.42
-7.39
-7.14
-6.72
-6.19
-5.61
-4.96
-4.18
-3.16
-1.87
-0.35
1.28
2.91
4.50
6.11
7.88
9.94
12.29
14.76
17.02
18.74
19.70
19.87
19.44
18.72
18.05
17.72
17.85
18.38
19.11
19.73
19.94
19.53
18.49
16.91
15.00
12.99
11.02
9.18
7.54
6.16
5.13
4.55
4.47
4.87
5.67
6.74
7.89
8.96
9.76
10.16
10.08
9.53
8.59
7.45
6.25
5.08
3.90
2.58
0.98
-1.00
-3.34
-5.90
-8.45
-10.68
-12.31
-13.09
-12.92
-11.88
-10.22
-8.34
-6.64
-5.45
-4.96
-5.19
-6.02
-7.24
-8.58
-9.71
-10.40
-10.45
-9.84
-8.66
-7.13
-5.56
-4.23
-3.35
-2.98
-3.04
-3.37
-3.77
-4.08
-4.23
-4.20
-4.01
-3.69
-3.21
-2.56
-1.75
-0.86
-0.02
0.56
0.74
0.48
-0.11
-0.77
-1.24
-1.34
-1.11
-0.74
-0.53
-0.81
-1.73
-3.35
-5.51
-7.98
-10.40
-12.41
-13.68
-14.00
-13.35
-11.88
-9.90
-7.76
-5.72
-3.98
-2.57
-1.47
-0.65
-0.09
0.25
0.40
0.42
0.42
0.48
0.63
0.80
0.91
0.90
0.79
0.66
0.60
0.70
0.92
1.17
1.32
1.29
1.06
0.64
0.12
-0.43
-0.94
-1.34
-1.61
-1.75
-1.79
-1.75
-1.67
-1.50
-1.18
-0.68
0.00
0.74
1.33
1.57
1.33
0.72
-0.01
-0.56
-0.73
-0.51
-0.07
0.35
0.58
0.60
0.44
0.18
-0.18
-0.61
-1.11
-1.57
-1.92
-2.09
-2.06
-1.84
-1.38
-0.53
0.86
2.83
5.24
7.84
10.39
12.80
15.19
17.81
20.89
24.58
28.87
33.66
38.65
43.37
47.11
49.07
48.56
45.25
39.36
31.67
23.23
15.08
7.94
2.11
-2.42
-5.82
-8.25
-9.79
-10.48
-10.39
-9.72
-8.74
-7.73
-6.92
-6.45
-6.37
-6.71
-7.43
-8.40
-9.39
-10.09
-10.21
-9.62
-8.39
-6.81
-5.21
-3.84
-2.82
-2.13
-1.62
-1.19
-0.77
-0.35
0.04
0.43
0.83
1.33
1.97
2.73
3.51
4.15
4.45
4.27
3.61
2.61
1.50
0.55
-0.05
-0.20
0.03
0.47
0.86
0.99
0.69
-0.05
-1.15
-2.45
-3.86
-5.36
-7.00
-8.84
-10.86
-12.99
-15.06
-16.90
-18.34
-19.28
-19.68
-19.56
-18.99
-18.11
-17.08
-15.99
-14.83
-13.50
-11.87
-9.84
-7.40
-4.63
-1.66
1.41
4.48
7.41
10.02
12.06
13.32
13.69
13.19
12.00
10.37
8.52
6.62
4.73
2.88
1.07
-0.70
-2.43
-4.13
-5.84
-7.63
-9.48
-11.33
-12.98
-14.23
-14.93
-15.06
-14.73
-14.09
-13.24
-12.17
-10.83
-9.20
-7.38
-5.61
-4.18
-3.24
-2.77
-2.60
-2.47
-2.24
-1.87
-1.49
-1.24
-1.25
-1.58
-2.17
-2.91
-3.63
-4.20
-4.51
-4.57
-4.49
-4.44
-4.60
-5.04
-5.76
-6.62
-7.39
-7.90
-8.01
-7.66
-6.88
-5.70
-4.19
-2.47
-0.69
0.96
2.31
3.33
4.08
4.76
5.53
6.51
7.70
9.04
10.47
12.00
13.61
15.21
16.56
17.37
17.34
16.33
14.38
11.69
8.54
5.20
1.99
-0.73
-2.55
-3.16
-2.48
-0.74
1.54
3.79
5.50
6.50
6.81
6.61
6.03
5.11
3.87
2.33
0.65
-0.99
-2.46
-3.73
-4.92
-6.26
-7.91
-9.95
-12.29
-14.69
-16.81
-18.30
-18.94
-18.67
-17.68
-16.31
-14.96
-13.92
-13.34
-13.16
-13.26
-13.46
-13.63
-13.70
-13.64
-13.50
-13.35
-13.30
-13.44
-13.86
-14.58
-15.45
-16.19
-16.42
-15.79
-14.07
-11.19
-7.31
-2.71
2.28
7.33
12.15
16.48
20.10
22.85
24.69
25.69
26.00
25.79
25.16
24.08
22.49
20.34
17.66
14.63
11.50
8.52
5.87
3.55
1.48
-0.44
-2.34
-4.25
-6.13
-7.91
-9.47
-10.68
-11.38
-11.50
-11.00
-10.00
-8.69
-7.29
-5.93
-4.67
-3.42
-2.11
-0.72
0.66
1.89
2.82
3.40
3.67
3.78
3.88
4.04
4.20
4.22
3.97
3.42
2.66
1.86
1.18
0.63
0.09
-0.63
-1.70
-3.13
-4.80
-6.47
-7.93
-9.02
-9.65
-9.80
-9.48
-8.72
-7.59
-6.17
-4.59
-2.95
-1.29
0.35
1.91
3.25
4.18
4.51
4.20
3.39
2.36
1.43
0.81
0.58
0.68
1.06
1.68
2.57
3.69
4.90
5.96
6.57
6.55
5.87
4.66
3.11
1.44
-0.28
-2.02
-3.84
-5.75
-7.65
-9.40
-10.79
-11.62
-11.74
-11.04
-9.42
-6.79
-3.12
1.54
7.06
13.20
19.71
26.29
32.61
38.24
42.64
45.19
45.35
42.80
37.56
30.14
21.47
12.81
5.36
-0.04
-3.27
-4.92
-6.05
-7.69
-10.34
-13.89
-17.75
-21.30
-24.17
-26.48
-28.54
-30.68
-32.94
-35.11
-36.85
-37.89
-38.06
-37.29
-35.51
-32.71
-28.93
-24.40
-19.45
-14.57
-10.15
-6.48
-3.71
-1.83
-0.76
-0.39
-0.57
-1.09
-1.70
-2.19
-2.43
-2.42
-2.28
-2.10
-1.92
-1.69
-1.32
-0.78
-0.18
0.28
0.36
-0.05
-0.95
-2.19
-3.61
-5.17
-6.90
-8.93
-11.31
-13.98
-16.72
-19.26
-21.38
-22.94
-23.87
-24.16
-23.77
-22.64
-20.70
-17.94
-14.45
-10.43
-6.12
-1.77
2.40
6.20
9.48
12.18
14.27
15.83
16.98
17.91
18.77
19.68
20.72
21.91
23.25
24.72
26.20
27.53
28.52
29.04
29.13
28.93
28.68
28.56
28.62
28.84
29.10
29.33
29.51
29.53
29.17
28.17
26.32
23.67
20.53
17.38
14.61
12.47
11.01
10.20
10.12
10.91
12.69
15.42
18.76
22.21
25.29
27.69
29.40
30.61
31.57
32.38
32.95
32.92
31.83
29.28
25.20
19.94
14.10
8.27
2.65
-3.05
-9.44
-17.00
-25.76
-35.21
-44.73
-53.97
-63.10
-72.56
-82.50
-92.34
-100.69
-105.85
-106.56
-102.43
-94.00
-82.23
-68.00
-51.92
-34.48
-16.51
0.73
15.67
27.04
34.38
38.21
39.65
39.86
39.46
38.31
35.90
31.78
26.06
19.48
13.17
8.10
4.64
2.52
1.01
-0.69
-2.96
-5.63
-8.10
-9.62
-9.65
-8.19
-5.63
-2.64
0.37
3.43
7.04
11.66
17.31
23.35
28.65
32.20
33.57
33.14
31.78
30.28
28.95
27.49
25.36
22.23
18.21
13.78
9.51
5.77
2.63
0.06
-1.93
-3.21
-3.66
-3.14
-1.78
0.10
2.11
3.90
5.38
6.66
7.94
9.32
10.70
11.85
12.56
12.79
12.66
12.35
11.94
11.36
10.45
9.09
7.34
5.44
3.66
2.21
1.15
0.36
-0.33
-1.04
-1.82
-2.58
-3.18
-3.45
-3.29
-2.73
-1.90
-1.00
-0.20
0.43
0.91
1.30
1.68
2.08
2.49
2.88
3.19
3.30
3.09
2.42
1.28
-0.16
-1.55
-2.44
-2.49
-1.67
-0.25
1.23
2.23
2.40
1.67
0.26
-1.48
-3.15
-4.36
-4.85
-4.48
-3.33
-1.76
-0.31
0.42
0.01
-1.65
-4.32
-7.51
-10.61
-13.12
-14.71
-15.32
-15.15
-14.55
-13.93
-13.55
-13.38
-13.07
-12.09
-10.02
-6.75
-2.62
1.79
5.84
9.09
11.39
12.80
13.45
13.45
12.90
11.90
10.60
9.16
7.72
6.37
5.15
4.14
3.46
3.26
3.62
4.58
6.04
7.92
10.23
13.04
16.51
20.62
25.10
29.27
32.14
32.65
30.04
24.07
15.16
4.18
-7.83
-19.85
-31.00
-40.43
-47.32
-50.94
-50.84
-47.16
-40.72
-32.85
-25.00
-18.32
-13.35
-10.07
-8.01
-6.61
-5.35
-3.91
-2.15
-0.12
2.02
4.08
5.88
7.32
8.44
9.37
10.27
11.33
12.66
14.28
16.13
18.04
19.78
21.08
21.68
21.42
20.20
18.09
15.21
11.80
8.15
4.57
1.34
-1.35
-3.45
-5.03
-6.20
-7.06
-7.61
-7.81
-7.62
-7.12
-6.56
-6.23
-6.40
-7.15
-8.34
-9.63
-10.66
-11.21
-11.23
-10.95
-10.70
-10.80
-11.46
-12.68
-14.20
-15.66
-16.59
-16.66
-15.70
-13.76
-11.11
-8.12
-5.22
-2.75
-0.95
0.08
0.40
0.07
-0.81
-2.15
-3.83
-5.65
-7.30
-8.44
-8.82
-8.30
-6.95
-4.98
-2.75
-0.65
0.94
1.67
1.40
0.22
-1.50
-3.23
-4.46
-4.91
-4.57
-3.68
-2.51
-1.19
0.27
1.98
3.98
6.19
8.36
10.20
11.46
12.02
11.92
11.30
10.33
9.24
8.19
7.31
6.65
6.18
5.82
5.49
5.13
4.72
4.28
3.79
3.17
2.33
1.21
-0.24
-1.97
-3.90
-5.92
-7.94
-9.86
-11.61
-13.14
-14.42
-15.46
-16.27
-16.81
-17.02
-16.78
-16.04
-14.80
-13.15
-11.24
-9.16
-6.96
-4.67
-2.34
-0.10
1.96
3.82
5.69
7.87
10.73
14.46
18.95
23.80
28.42
32.22
34.76
35.80
35.26
33.11
29.32
23.88
16.96
8.99
0.63
-7.38
-14.45
-20.29
-24.92
-28.50
-31.20
-33.03
-33.93
-33.87
-32.93
-31.23
-28.81
-25.51
-21.08
-15.45
-8.93
-2.29
3.47
7.46
9.26
9.05
7.42
5.08
2.61
0.37
-1.44
-2.71
-3.33
-3.31
-2.90
-2.58
-3.00
-4.68
-7.82
-12.15
-17.02
-21.60
-25.11
-27.03
-27.09
-25.31
-21.90
-17.25
-11.91
-6.46
-1.44
2.84
6.33
9.21
11.77
14.30
16.97
19.89
23.06
26.46
29.95
33.28
36.08
38.00
38.81
38.50
37.32
35.62
33.81
32.11
30.50
28.81
26.88
24.74
22.56
20.61
19.05
17.93
17.05
16.03
14.50
12.42
10.11
8.13
7.03
7.10
8.34
10.36
12.48
13.98
14.58
14.48
14.16
13.99
13.95
13.67
12.56
9.90
5.07
-2.12
-11.47
-22.57
-34.88
-47.59
-59.22
-66.71
-67.26
-60.43
-48.52
-34.90
-22.40
-12.53
-5.48
-0.71
2.61
4.93
6.35
7.03
7.48
8.47
10.65
14.57
19.69
25.13
29.87
33.06
34.43
34.28
33.36
32.24
31.04
29.36
26.70
22.57
16.76
9.45
1.27
-6.97
-14.81
-22.40
-30.67
-40.60
-52.62
-66.02
-78.89
-88.34
-91.25
-85.51
-70.89
-49.09
-22.88
4.59
30.32
51.32
63.51
64.84
56.94
43.74
29.12
15.73
4.91
-2.97
-8.14
-11.07
-12.13
-11.77
-10.74
-9.85
-9.55
-9.81
-10.29
-11.02
-11.40
-10.88
-9.20
-6.61
-3.63
-0.83
1.38
2.79
3.36
3.21
2.66
2.04
1.45
0.78
-0.16
-1.53
-3.43
-5.37
-7.04
-8.21
-8.83
-9.05
-9.16
-9.39
-9.84
-10.46
-11.08
-11.56
-11.81
-11.78
-11.51
-11.08
-10.57
-10.05
-9.58
-9.17
-8.81
-8.43
-7.89
-7.05
-5.80
-4.14
-2.16
-0.06
1.99
3.82
5.35
6.58
7.58
8.45
9.21
9.84
10.26
10.38
10.14
9.55
8.70
7.69
6.65
5.61
4.61
3.68
2.83
2.06
1.36
0.70
0.02
-0.71
-1.47
-2.20
-2.82
-3.32
-3.76
-4.25
-4.88
-5.67
-6.54
-7.33
-7.90
-8.16
-8.07
-7.67
-6.98
-6.01
-4.77
-3.26
-1.50
0.45
2.52
4.57
6.47
8.06
9.21
9.86
10.07
10.01
9.86
9.78
9.83
9.94
9.99
9.86
9.46
8.82
8.01
7.16
6.38
5.74
5.25
4.87
4.52
4.14
3.69
3.15
2.54
1.81
0.92
-0.18
-1.49
-2.90
-4.22
-5.19
-5.63
-5.49
-4.85
-3.88
-2.69
-1.34
0.18
1.90
3.80
5.75
7.59
9.13
10.24
10.83
10.91
10.60
10.04
9.42
8.91
8.56
8.34
8.12
7.79
7.29
6.64
5.89
5.13
4.39
3.72
3.11
2.55
1.97
1.27
0.38
-0.77
-2.17
-3.74
-5.38
-7.01
-8.56
-10.04
-11.43
-12.71
-13.81
-14.61
-14.97
-14.80
-14.11
-12.95
-11.48
-9.81
-8.05
-6.22
-4.28
-2.23
-0.11
1.92
3.65
4.93
5.67
5.94
5.91
5.73
5.51
5.23
4.78
4.12
3.24
2.22
1.18
0.19
-0.77
-1.74
-2.75
-3.74
-4.61
-5.23
-5.54
-5.59
-5.54
-5.53
-5.67
-5.99
-6.43
-6.93
-7.42
-7.87
-8.24
-8.53
-8.75
-8.88
-8.94
-8.88
-8.61
-7.98
-6.90
-5.32
-3.35
-1.17
0.99
2.92
4.52
5.76
6.70
7.39
7.88
8.21
8.38
8.40
8.28
8.03
7.68
7.24
6.79
6.42
6.22
6.27
6.55
6.92
7.19
7.13
6.63
5.76
4.66
3.57
2.69
2.10
1.73
1.45
1.09
0.51
-0.34
-1.41
-2.53
-3.51
-4.17
-4.44
-4.34
-4.03
-3.68
-3.39
-3.18
-2.95
-2.61
-2.14
-1.60
-1.11
-0.78
-0.67
-0.70
-0.74
-0.66
-0.37
0.10
0.62
1.04
1.25
1.19
0.91
0.48
0.01
-0.43
-0.81
-1.14
-1.47
-1.87
-2.39
-3.06
-3.87
-4.74
-5.60
-6.34
-6.83
-6.98
-6.69
-5.91
-4.70
-3.14
-1.44
0.23
1.74
3.04
4.17
5.17
6.07
6.87
7.55
8.13
8.63
9.08
9.47
9.75
9.84
9.69
9.28
8.70
8.01
7.31
6.67
6.11
5.64
5.25
4.91
4.54
4.09
3.55
2.96
2.44
2.13
2.08
2.25
2.48
2.65
2.65
2.47
2.20
1.96
1.84
1.83
1.90
1.98
2.08
2.26
2.55
2.97
3.47
3.92
4.23
4.33
4.25
4.10
3.95
3.83
3.68
3.44
3.09
2.63
2.09
1.49
0.80
-0.01
-0.88
-1.73
-2.44
-3.00
-3.53
-4.24
-5.30
-6.76
-8.48
-10.21
-11.75
-13.00
-14.03
-14.93
-15.75
-16.44
-16.86
-16.84
-16.29
-15.20
-13.65
-11.82
-9.88
-8.00
-6.34
-4.94
-3.82
-2.88
-2.07
-1.29
-0.50
0.29
1.06
1.78
2.42
3.01
3.57
4.13
4.71
5.30
5.88
6.45
7.02
7.58
8.12
8.62
9.01
9.21
9.21
8.98
8.56
8.02
7.37
6.57
5.57
4.28
2.68
0.85
-1.03
-2.69
-3.90
-4.55
-4.64
-4.31
-3.72
-3.04
-2.42
-1.96
-1.69
-1.60
-1.61
-1.66
-1.66
-1.53
-1.25
-0.86
-0.42
0.02
0.39
0.68
0.88
1.00
1.14
1.33
1.61
1.93
2.33
2.83
3.37
3.86
4.16
4.24
4.12
3.85
3.53
3.43
3.75
4.50
5.52
6.65
7.82
9.10
10.61
12.52
15.26
19.03
23.58
28.16
31.91
34.25
35.08
34.75
33.90
33.53
34.30
36.19
38.50
40.34
40.90
39.53
35.67
26.25
10.12
-11.10
-33.24
-51.87
-64.26
-69.96
-70.07
-66.35
-60.53
-53.49
-46.03
-38.55
-31.92
-26.92
-23.87
-22.36
-21.46
-20.16
-17.24
-11.90
-3.86
6.18
17.34
28.58
38.75
46.57
50.99
51.89
50.10
47.10
44.28
42.48
41.60
40.87
39.37
36.59
32.81
28.62
24.44
20.18
15.45
9.96
3.88
-2.08
-7.03
-10.25
-11.67
-11.86
-11.83
-12.46
-14.33
-17.50
-21.74
-26.61
-31.66
-36.50
-40.80
-44.41
-47.25
-49.31
-50.59
-51.07
-50.74
-49.59
-47.69
-45.11
-41.91
-38.00
-33.25
-27.60
-21.13
-14.12
-6.92
0.26
7.24
13.75
19.18
22.65
23.25
20.59
15.09
7.99
0.85
-4.98
-8.85
-10.72
-10.86
-9.53
-6.71
-2.24
3.99
11.69
20.11
28.04
34.16
37.36
37.17
33.94
28.73
22.88
17.54
13.29
10.10
7.51
4.93
1.92
-1.57
-5.27
-8.67
-11.29
-12.83
-13.20
-12.54
-11.02
-8.76
-5.86
-2.54
0.78
3.51
5.07
5.04
3.08
-1.17
-8.17
-18.24
-31.09
-45.26
-58.24
-67.17
-70.02
-66.49
-58.03
-47.21
-36.45
-27.11
-19.36
-12.64
-6.41
-0.42
5.23
10.50
15.50
20.25
24.39
27.21
28.19
27.78
27.76
30.59
38.29
51.10
66.91
82.00
92.32
94.91
88.72
74.47
53.97
29.64
4.25
-19.14
-37.32
-47.45
-47.87
-38.75
-22.20
-1.76
18.59
35.30
45.91
49.43
46.15
37.35
24.89
10.74
-3.33
-15.90
-26.05
-33.29
-37.64
-39.49
-39.53
-38.55
-37.31
-36.28
-35.70
-35.57
-35.77
-36.13
-36.56
-37.01
-37.49
-38.08
-38.88
-39.96
-41.26
-42.55
-43.36
-43.17
-41.42
-37.76
-32.06
-24.48
-15.44
-5.51
4.62
14.25
22.73
29.47
33.98
36.00
35.45
32.57
27.87
22.14
16.27
11.08
7.15
4.70
3.61
3.49
3.85
4.30
4.56
4.60
4.46
4.21
3.86
3.33
2.56
1.55
0.47
-0.48
-1.10
-1.37
-1.43
-1.52
-1.87
-2.54
-3.42
-4.29
-4.98
-5.43
-5.72
-6.03
-6.45
-6.97
-7.41
-7.55
-7.19
-6.29
-4.91
-3.23
-1.47
0.21
1.66
2.81
3.62
4.06
4.15
3.94
3.56
3.20
3.02
3.16
3.61
4.23
4.80
5.10
5.02
4.55
3.83
3.02
2.26
1.60
1.08
0.67
0.36
0.08
-0.25
-0.72
-1.44
-2.40
-3.44
-4.32
-4.75
-4.52
-3.62
-2.21
-0.60
0.90
2.11
3.00
3.69
4.36
5.13
6.02
6.98
7.93
8.80
9.57
10.22
10.76
11.17
11.43
11.51
11.39
11.06
10.50
9.77
8.93
8.10
7.32
6.56
5.68
4.49
2.93
1.07
-0.84
-2.50
-3.70
-4.41
-4.78
-5.00
-5.26
-5.60
-6.01
-6.42
-6.75
-6.98
-7.04
-6.87
-6.42
-5.71
-4.81
-3.90
-3.14
-2.62
-2.34
-2.20
-2.08
-1.96
-1.82
-1.70
-1.55
-1.31
-0.90
-0.28
0.44
1.08
1.43
1.36
0.83
-0.11
-1.39
-2.91
-4.55
-6.15
-7.44
-8.18
-8.15
-7.33
-5.87
-4.07
-2.23
-0.57
0.88
2.22
3.65
5.27
7.06
8.84
10.37
11.44
11.96
11.99
11.70
11.31
10.94
10.61
10.27
9.83
9.27
8.65
8.05
7.55
7.16
6.83
6.48
6.07
5.54
4.88
4.05
2.99
1.65
0.10
-1.51
-2.98
-4.06
-4.64
-4.68
-4.25
-3.45
-2.41
-1.23
-0.04
0.96
1.55
1.61
1.13
0.25
-0.78
-1.73
-2.43
-2.81
-2.80
-2.34
-1.37
0.13
2.05
4.15
6.10
7.63
8.53
8.78
8.46
7.75
6.84
5.92
5.05
4.23
3.37
2.39
1.25
0.07
-1.01
-1.85
-2.43
-2.82
-3.11
-3.37
-3.55
-3.55
-3.26
-2.67
-1.86
-0.98
-0.20
0.37
0.75
0.98
1.21
1.54
2.02
2.65
3.33
3.93
4.35
4.56
4.59
4.53
4.45
4.37
4.29
4.15
3.90
3.51
2.96
2.24
1.37
0.45
-0.43
-1.13
-1.56
-1.72
-1.70
-1.67
-1.82
-2.24
-2.90
-3.68
-4.41
-4.91
-5.11
-4.95
-4.48
-3.76
-2.83
-1.74
-0.56
0.64
1.78
2.76
3.53
4.03
4.27
4.31
4.20
4.03
3.84
3.63
3.41
3.19
2.98
2.79
2.62
2.44
2.22
1.94
1.59
1.22
0.89
0.61
0.39
0.20
-0.04
-0.38
-0.85
-1.38
-1.88
-2.24
-2.37
-2.29
-2.08
-1.87
-1.75
-1.74
-1.80
-1.81
-1.69
-1.38
-0.88
-0.17
0.74
1.81
3.04
4.42
5.95
7.70
9.73
12.08
14.65
17.21
19.38
20.79
21.16
20.44
18.79
16.46
13.75
10.83
7.82
4.76
1.75
-1.06
-3.52
-5.50
-7.01
-8.15
-9.10
-10.00
-10.90
-11.71
-12.25
-12.37
-11.99
-11.16
-10.11
-9.04
-8.16
-7.48
-6.96
-6.44
-5.83
-5.13
-4.39
-3.72
-3.20
-2.83
-2.57
-2.37
-2.17
-1.96
-1.79
-1.68
-1.68
-1.78
-1.98
-2.24
-2.52
-2.83
-3.19
-3.63
-4.17
-4.77
-5.37
-5.89
-6.28
-6.55
-6.78
-7.03
-7.32
-7.57
-7.66
-7.48
-6.99
-6.26
-5.42
-4.60
-3.85
-3.15
-2.38
-1.50
-0.50
0.49
1.31
1.82
1.95
1.73
1.26
0.71
0.24
-0.05
-0.11
0.02
0.26
0.52
0.73
0.85
0.84
0.70
0.43
0.02
-0.50
-1.16
-1.93
-2.80
-3.72
-4.62
-5.40
-5.99
-6.37
-6.59
-6.76
-6.92
-7.06
-7.09
-6.89
-6.42
-5.67
-4.73
-3.69
-2.67
-1.74
-0.95
-0.33
0.11
0.44
0.76
1.15
1.66
2.25
2.86
3.37
3.76
4.04
4.24
4.36
4.40
4.27
3.93
3.38
2.64
1.80
0.93
0.08
-0.75
-1.53
-2.25
-2.91
-3.51
-4.06
-4.58
-5.05
-5.42
-5.58
-5.39
-4.79
-3.79
-2.53
-1.19
0.04
1.03
1.77
2.33
2.74
3.01
3.08
2.90
2.48
1.96
1.51
1.26
1.26
1.44
1.67
1.87
2.01
2.14
2.32
2.55
2.73
2.75
2.48
1.89
1.09
0.26
-0.41
-0.83
-1.02
-1.18
-1.51
-2.14
-3.05
-4.00
-4.69
-4.83
-4.31
-3.22
-1.82
-0.37
0.88
1.86
2.60
3.19
3.74
4.30
4.85
5.34
5.71
5.92
5.97
5.83
5.52
5.04
4.42
3.68
2.90
2.14
1.45
0.84
0.31
-0.20
-0.75
-1.40
-2.19
-3.13
-4.20
-5.33
-6.40
-7.28
-7.88
-8.17
-8.21
-8.09
-7.85
-7.49
-6.91
-6.03
-4.83
-3.38
-1.86
-0.44
0.81
1.92
2.97
4.05
5.12
6.10
6.84
7.28
7.41
7.35
7.20
7.04
6.83
6.54
6.12
5.64
5.17
4.81
4.59
4.41
4.16
3.75
3.15
2.42
1.63
0.83
0.04
-0.75
-1.59
-2.51
-3.51
-4.59
-5.70
-6.72
-7.50
-7.89
-7.79
-7.17
-6.13
-4.78
-3.27
-1.67
-0.08
1.43
2.74
3.72
4.33
4.59
4.68
4.79
5.07
5.55
6.12
6.60
6.81
6.71
6.33
5.75
5.07
4.33
3.54
2.74
1.97
1.24
0.54
-0.15
-0.88
-1.64
-2.34
-2.86
-3.08
-2.95
-2.52
-1.88
-1.13
-0.31
0.59
1.60
2.71
3.87
4.95
5.80
6.32
6.46
6.29
5.95
5.59
5.32
5.18
5.12
5.06
4.94
4.72
4.37
3.94
3.45
2.96
2.55
2.27
2.16
2.15
2.12
1.97
1.61
1.08
0.47
-0.14
-0.72
-1.32
-2.03
-2.88
-3.84
-4.78
-5.56
-6.07
-6.28
-6.30
-6.29
-6.45
-6.93
-7.77
-8.83
-9.87
-10.58
-10.74
-10.26
-9.23
-7.82
-6.21
-4.50
-2.76
-1.00
0.72
2.29
3.62
4.64
5.34
5.77
6.01
6.12
6.14
6.12
6.12
6.18
6.34
6.59
6.84
6.97
6.88
6.47
5.75
4.80
3.72
2.66
1.74
1.04
0.58
0.35
0.26
0.17
-0.04
-0.49
-1.18
-2.04
-2.95
-3.79
-4.48
-5.01
-5.37
-5.61
-5.76
-5.95
-6.28
-6.86
-7.64
-8.43
-8.89
-8.74
-7.81
-6.23
-4.29
-2.38
-0.75
0.50
1.44
2.22
2.96
3.70
4.39
5.00
5.49
5.85
6.09
6.21
6.19
6.03
5.73
5.34
4.89
4.43
3.97
3.52
3.10
2.71
2.34
1.98
1.59
1.12
0.57
-0.02
-0.60
-1.11
-1.54
-1.92
-2.32
-2.79
-3.34
-3.91
-4.38
-4.67
-4.73
-4.65
-4.59
-4.77
-5.33
-6.27
-7.47
-8.67
-9.60
-10.08
-10.01
-9.43
-8.45
-7.18
-5.72
-4.13
-2.45
-0.75
0.92
2.48
3.88
5.12
6.24
7.29
8.33
9.35
10.30
11.12
11.79
12.33
12.81
13.26
13.64
13.86
13.80
13.35
12.54
11.46
10.28
9.16
8.21
7.47
6.90
6.41
5.89
5.27
4.53
3.71
2.88
2.02
1.06
-0.14
-1.72
-3.75
-6.17
-8.83
-11.50
-13.95
-15.95
-17.33
-17.95
-17.79
-16.92
-15.55
-13.92
-12.24
-10.64
-9.15
-7.70
-6.27
-4.83
-3.41
-2.07
-0.85
0.24
1.21
2.07
2.82
3.51
4.17
4.89
5.69
6.55
7.40
8.11
8.58
8.80
8.79
8.58
8.19
7.61
6.84
5.93
5.02
4.23
3.64
3.17
2.68
2.00
1.06
-0.12
-1.49
-3.04
-4.87
-7.09
-9.78
-12.88
-16.21
-19.54
-22.66
-25.41
-27.65
-29.27
-30.09
-29.98
-28.90
-26.98
-24.54
-21.95
-19.59
-17.65
-16.06
-14.49
-12.44
-9.37
-4.87
1.11
8.22
15.77
22.97
29.11
33.76
36.80
38.30
38.45
37.45
35.52
32.92
29.94
26.86
23.92
21.24
18.82
16.58
14.45
12.36
10.29
8.27
6.33
4.57
3.02
1.65
0.35
-1.03
-2.59
-4.28
-5.92
-7.26
-8.07
-8.27
-7.92
-7.22
-6.42
-5.70
-5.16
-4.80
-4.59
-4.47
-4.40
-4.38
-4.40
-4.45
-4.56
-4.76
-5.09
-5.57
-6.22
-6.98
-7.76
-8.44
-8.90
-9.07
-9.00
-8.77
-8.49
-8.24
-8.06
-7.93
-7.79
-7.63
-7.44
-7.21
-6.90
-6.45
-5.79
-4.88
-3.78
-2.65
-1.70
-1.11
-0.93
-1.08
-1.39
-1.61
-1.58
-1.21
-0.54
0.29
1.15
1.92
2.57
3.12
3.64
4.15
4.64
5.04
5.23
5.09
4.52
3.49
2.08
0.44
-1.22
-2.72
-3.93
-4.81
-5.38
-5.65
-5.63
-5.30
-4.67
-3.79
-2.81
-1.88
-1.11
-0.53
-0.11
0.20
0.42
0.48
0.30
-0.18
-0.99
-2.12
-3.46
-4.86
-6.16
-7.14
-7.67
-7.63
-7.03
-5.98
-4.64
-3.20
-1.80
-0.53
0.60
1.57
2.37
2.96
3.34
3.51
3.54
3.49
3.43
3.40
3.37
3.33
3.25
3.16
3.08
3.01
2.98
3.00
3.09
3.27
3.52
3.73
3.76
3.48
2.84
1.94
0.95
0.04
-0.74
-1.46
-2.24
-3.20
-4.31
-5.40
-6.24
-6.61
-6.38
-5.59
-4.35
-2.90
-1.46
-0.23
0.70
1.35
1.77
2.09
2.32
2.46
2.42
2.20
1.85
1.51
1.35
1.42
1.61
1.76
1.69
1.36
0.88
0.41
0.11
-0.02
-0.08
-0.22
-0.56
-1.11
-1.78
-2.47
-3.10
-3.63
-4.03
-4.30
-4.38
-4.22
-3.79
-3.07
-2.11
-1.00
0.15
1.21
2.07
2.68
3.01
3.11
3.03
2.88
2.75
2.77
3.05
3.60
4.35
5.10
5.63
5.76
5.46
4.84
4.13
3.53
3.18
3.11
3.22
3.35
3.35
3.14
2.75
2.27
1.83
1.52
1.36
1.26
1.11
0.80
0.35
-0.14
-0.56
-0.80
-0.88
-0.88
-0.93
-1.10
-1.40
-1.74
-2.05
-2.30
-2.56
-2.94
-3.51
-4.23
-4.91
-5.32
-5.25
-4.62
-3.53
-2.21
-0.86
0.35
1.39
2.25
2.90
3.29
3.33
3.01
2.41
1.75
1.28
1.17
1.46
2.02
2.59
2.92
2.90
2.59
2.18
1.90
1.89
2.15
2.55
2.93
3.18
3.28
3.28
3.25
3.20
3.07
2.78
2.25
1.47
0.49
-0.59
-1.72
-2.86
-4.05
-5.29
-6.59
-7.87
-8.98
-9.77
-10.10
-9.90
-9.20
-8.12
-6.81
-5.43
-4.10
-2.88
-1.76
-0.70
0.32
1.29
2.13
2.77
3.13
3.22
3.17
3.15
3.30
3.66
4.09
4.40
4.44
4.19
3.75
3.30
2.98
2.79
2.62
2.37
2.03
1.66
1.41
1.30
1.26
1.15
0.87
0.41
-0.08
-0.46
-0.68
-0.81
-1.05
-1.56
-2.38
-3.42
-4.48
-5.39
-6.05
-6.43
-6.51
-6.28
-5.69
-4.70
-3.32
-1.64
0.22
2.09
3.84
5.40
6.74
7.84
8.70
9.26
9.48
9.35
8.87
8.11
7.16
6.13
5.12
4.20
3.45
2.90
2.54
2.32
2.21
2.14
2.07
1.94
1.68
1.23
0.53
-0.40
-1.48
-2.56
-3.52
-4.30
-4.92
-5.44
-5.93
-6.43
-6.91
-7.33
-7.63
-7.77
-7.69
-7.38
-6.81
-5.99
-4.93
-3.67
-2.28
-0.85
0.50
1.67
2.60
3.31
3.88
4.39
4.87
5.25
5.38
5.08
4.23
2.86
1.15
-0.64
-2.25
-3.49
-4.30
-4.73
-4.90
-4.90
-4.79
-4.59
-4.29
-3.87
-3.33
-2.72
-2.07
-1.47
-0.98
-0.67
-0.63
-0.88
-1.35
-1.90
-2.29
-2.32
-1.88
-1.03
0.02
1.04
1.86
2.48
3.02
3.64
4.44
5.37
6.27
6.98
7.44
7.73
7.99
8.33
8.77
9.27
9.78
10.38
11.18
12.33
13.76
15.13
15.86
15.40
13.46
10.24
6.37
2.67
-0.17
-1.86
-2.50
-2.47
-2.25
-2.18
-2.40
-2.91
-3.62
-4.40
-5.08
-5.53
-5.65
-5.46
-5.10
-4.77
-4.60
-4.65
-4.85
-5.12
-5.35
-5.42
-5.15
-4.34
-2.81
-0.54
2.19
4.91
7.09
8.39
8.82
8.72
8.51
8.53
8.88
9.44
10.05
10.58
11.01
11.29
11.33
10.97
10.07
8.62
6.77
4.78
2.87
1.09
-0.64
-2.53
-4.67
-7.05
-9.42
-11.48
-12.99
-13.83
-14.08
-13.97
-13.72
-13.57
-13.70
-14.23
-15.20
-16.53
-18.04
-19.42
-20.38
-20.71
-20.34
-19.36
-17.90
-16.13
-14.13
-12.01
-9.92
-8.04
-6.51
-5.36
-4.44
-3.50
-2.28
-0.68
1.19
3.06
4.64
5.71
6.20
6.21
5.89
5.38
4.82
4.28
3.84
3.54
3.44
3.49
3.59
3.61
3.45
3.15
2.87
2.79
3.05
3.58
4.16
4.47
4.27
3.51
2.39
1.24
0.47
0.36
0.97
2.22
3.86
5.62
7.24
8.61
9.73
10.75
11.87
13.28
15.04
17.01
18.90
20.26
20.70
19.98
18.09
15.30
12.01
8.62
5.43
2.58
0.09
-2.08
-3.96
-5.57
-6.95
-8.10
-9.07
-9.91
-10.67
-11.39
-12.10
-12.80
-13.52
-14.23
-14.96
-15.74
-16.65
-17.74
-18.99
-20.26
-21.34
-22.04
-22.20
-21.84
-21.03
-19.85
-18.35
-16.53
-14.39
-11.95
-9.33
-6.69
-4.19
-1.92
0.09
1.89
3.56
5.18
6.82
8.50
10.19
11.83
13.29
14.48
15.33
15.87
16.18
16.36
16.47
16.48
16.29
15.77
14.88
13.71
12.47
11.44
10.84
10.70
10.89
11.13
11.12
10.63
9.62
8.16
6.43
4.55
2.57
0.47
-1.77
-4.09
-6.35
-8.38
-10.08
-11.40
-12.43
-13.24
-13.89
-14.33
-14.48
-14.26
-13.67
-12.80
-11.77
-10.69
-9.60
-8.49
-7.37
-6.27
-5.31
-4.62
-4.29
-4.31
-4.58
-4.92
-5.19
-5.35
-5.43
-5.55
-5.78
-6.11
-6.42
-6.55
-6.36
-5.82
-5.07
-4.27
-3.64
-3.29
-3.21
-3.31
-3.46
-3.56
-3.52
-3.30
-2.84
-2.10
-1.03
0.32
1.85
3.35
4.68
5.73
6.56
7.25
7.91
8.59
9.27
9.91
10.49
11.04
11.56
11.98
12.21
12.12
11.64
10.84
9.88
8.96
8.20
7.60
7.04
6.33
5.31
3.91
2.19
0.31
-1.51
-3.06
-4.18
-4.79
-4.90
-4.62
-4.11
-3.58
-3.18
-2.96
-2.87
-2.81
-2.67
-2.38
-1.93
-1.30
-0.44
0.74
2.29
4.19
6.25
8.23
9.87
11.01
11.65
11.85
11.76
11.46
11.04
10.50
9.88
9.21
8.54
7.89
7.28
6.71
6.22
5.85
5.64
5.60
5.68
5.73
5.57
5.04
4.07
2.74
1.24
-0.23
-1.56
-2.79
-4.03
-5.40
-6.95
-8.60
-10.20
-11.62
-12.77
-13.61
-14.16
-14.40
-14.31
-13.88
-13.16
-12.23
-11.20
-10.16
-9.16
-8.23
-7.41
-6.72
-6.19
-5.82
-5.50
-5.11
-4.51
-3.61
-2.45
-1.16
0.11
1.24
2.20
3.06
3.88
4.70
5.47
6.04
6.29
6.13
5.62
4.87
4.02
3.16
2.35
1.64
1.05
0.60
0.31
0.14
0.02
-0.13
-0.38
-0.72
-1.10
-1.41
-1.59
-1.62
-1.52
-1.28
-0.91
-0.38
0.30
1.12
1.99
2.82
3.55
4.12
4.53
4.81
4.95
4.95
4.78
4.44
3.94
3.36
2.77
2.25
1.90
1.73
1.73
1.88
2.10
2.37
2.62
2.80
2.79
2.54
2.03
1.33
0.57
-0.12
-0.69
-1.17
-1.69
-2.37
-3.20
-4.08
-4.80
-5.15
-5.07
-4.60
-3.88
-3.07
-2.25
-1.45
-0.66
0.10
0.79
1.37
1.82
2.15
2.44
2.74
3.07
3.39
3.63
3.73
3.63
3.34
2.91
2.40
1.91
1.51
1.23
1.03
0.82
0.53
0.17
-0.24
-0.63
-0.99
-1.34
-1.72
-2.16
-2.65
-3.15
-3.63
-4.09
-4.58
-5.08
-5.53
-5.79
-5.72
-5.27
-4.52
-3.63
-2.81
-2.12
-1.54
-0.95
-0.24
0.60
1.47
2.23
2.78
3.10
3.26
3.35
3.42
3.50
3.56
3.56
3.50
3.39
3.23
3.07
2.88
2.63
2.27
1.79
1.17
0.49
-0.21
-0.82
-1.31
-1.67
-1.92
-2.10
-2.25
-2.43
-2.67
-3.02
-3.52
-4.12
-4.72
-5.19
-5.36
-5.13
-4.49
-3.52
-2.37
-1.20
-0.17
0.62
1.14
1.43
1.59
1.74
1.95
2.25
2.59
2.92
3.20
3.42
3.56
3.63
3.58
3.39
3.08
2.72
2.43
2.29
2.29
2.32
2.22
1.86
1.18
0.20
-0.95
-2.10
-3.09
-3.79
-4.14
-4.19
-4.00
-3.70
-3.33
-2.90
-2.34
-1.59
-0.67
0.32
1.24
2.03
2.67
3.20
3.68
4.07
4.31
4.33
4.12
3.76
3.43
3.28
3.37
3.66
3.95
4.08
3.91
3.44
2.77
2.07
1.47
1.03
0.70
0.38
-0.00
-0.47
-0.97
-1.41
-1.75
-2.00
-2.25
-2.61
-3.13
-3.79
-4.54
-5.29
-6.02
-6.71
-7.36
-7.99
-8.57
-9.07
-9.43
-9.61
-9.60
-9.37
-8.94
-8.31
-7.52
-6.57
-5.49
-4.29
-3.04
-1.81
-0.68
0.34
1.32
2.39
3.67
5.18
6.81
8.37
9.67
10.62
11.17
11.35
11.14
10.51
9.42
7.91
6.15
4.34
2.72
1.41
0.43
-0.32
-0.93
-1.51
-2.11
-2.70
-3.24
-3.68
-3.99
-4.24
-4.50
-4.88
-5.42
-6.07
-6.72
-7.23
-7.47
-7.36
-6.86
-6.00
-4.85
-3.52
-2.13
-0.78
0.47
1.63
2.68
3.62
4.40
4.95
5.26
5.39
5.44
5.50
5.58
5.58
5.42
5.05
4.51
3.96
3.56
3.41
3.48
3.68
3.83
3.81
3.55
3.04
2.34
1.56
0.83
0.22
-0.26
-0.68
-1.17
-1.79
-2.50
-3.21
-3.76
-4.05
-4.05
-3.83
-3.45
-2.93
-2.21
-1.23
-0.01
1.36
2.67
3.74
4.44
4.75
4.73
4.47
4.06
3.57
3.10
2.75
2.59
2.63
2.79
2.92
2.94
2.80
2.59
2.38
2.22
2.06
1.82
1.40
0.82
0.13
-0.55
-1.13
-1.58
-1.92
-2.24
-2.64
-3.19
-3.90
-4.69
-5.41
-5.88
-5.97
-5.66
-5.07
-4.36
-3.69
-3.10
-2.54
-1.87
-1.03
-0.04
0.98
1.89
2.59
3.10
3.49
3.83
4.15
4.37
4.39
4.15
3.69
3.16
2.72
2.46
2.34
2.28
2.14
1.85
1.40
0.81
0.13
-0.56
-1.20
-1.71
-2.05
-2.21
-2.27
-2.38
-2.69
-3.30
-4.20
-5.31
-6.43
-7.32
-7.79
-7.72
-7.14
-6.19
-5.07
-3.97
-3.01
-2.21
-1.52
-0.91
-0.35
0.13
0.46
0.59
0.53
0.31
0.06
-0.07
0.01
0.33
0.81
1.28
1.59
1.67
1.60
1.49
1.48
1.60
1.81
1.99
2.08
2.03
1.88
1.64
1.28
0.76
0.05
-0.76
-1.56
-2.21
-2.70
-3.17
-3.83
-4.78
-5.90
-6.78
-6.95
-6.03
-3.99
-1.10
2.20
5.51
8.63
11.52
14.19
16.54
18.34
19.33
19.40
18.70
17.58
16.43
15.51
14.83
14.19
13.33
12.01
10.15
7.81
5.22
2.62
0.23
-1.86
-3.60
-5.03
-6.18
-7.03
-7.54
-7.70
-7.58
-7.33
-7.13
-7.11
-7.26
-7.43
-7.43
-7.05
-6.23
-5.03
-3.66
-2.41
-1.58
-1.39
-1.94
-3.13
-4.72
-6.41
-7.92
-9.06
-9.78
-10.07
-9.99
-9.56
-8.83
-7.84
-6.69
-5.48
-4.31
-3.20
-2.15
-1.14
-0.15
0.78
1.60
2.24
2.68
2.93
3.04
3.05
3.02
3.01
3.05
3.13
3.21
3.21
3.06
2.74
2.32
1.93
1.76
1.94
2.51
3.38
4.37
5.28
5.94
6.32
6.53
6.73
7.09
7.65
8.29
8.75
8.76
8.12
6.81
4.92
2.67
0.28
-2.05
-4.12
-5.75
-6.80
-7.19
-6.98
-6.28
-5.29
-4.17
-3.06
-2.04
-1.16
-0.42
0.20
0.70
1.08
1.28
1.20
0.79
0.04
-0.95
-2.03
-3.06
-3.91
-4.56
-5.01
-5.31
-5.49
-5.58
-5.61
-5.58
-5.49
-5.29
-4.93
-4.39
-3.66
-2.82
-1.95
-1.13
-0.42
0.17
0.67
1.09
1.45
1.77
2.10
2.46
2.87
3.31
3.72
4.03
4.20
4.22
4.10
3.86
3.52
3.05
2.44
1.67
0.71
-0.46
-1.85
-3.42
-5.07
-6.61
-7.83
-8.54
-8.70
-8.35
-7.65
-6.76
-5.79
-4.80
-3.77
-2.66
-1.45
-0.13
1.30
2.81
4.29
5.61
6.61
7.23
7.52
7.64
7.82
8.23
8.89
9.68
10.40
10.82
10.81
10.35
9.49
8.33
6.97
5.50
4.03
2.64
1.41
0.34
-0.65
-1.76
-3.14
-4.87
-6.90
-8.98
-10.81
-12.12
-12.78
-12.81
-12.39
-11.74
-11.03
-10.36
-9.75
-9.17
-8.57
-7.94
-7.26
-6.50
-5.63
-4.66
-3.68
-2.81
-2.22
-1.98
-2.04
-2.27
-2.46
-2.47
-2.27
-1.94
-1.64
-1.48
-1.52
-1.71
-1.95
-2.10
-2.08
-1.87
-1.53
-1.21
-1.04
-1.13
-1.51
-2.12
-2.86
-3.56
-4.07
-4.27
-4.07
-3.47
-2.55
-1.46
-0.37
0.54
1.22
1.74
2.20
2.72
3.29
3.80
4.14
4.26
4.20
4.06
3.95
3.88
3.81
3.65
3.38
3.02
2.64
2.24
1.80
1.26
0.61
-0.08
-0.72
-1.23
-1.59
-1.83
-2.01
-2.17
-2.32
-2.46
-2.59
-2.81
-3.17
-3.71
-4.37
-4.98
-5.30
-5.12
-4.34
-3.07
-1.53
0.02
1.36
2.46
3.36
4.14
4.83
5.35
5.59
5.50
5.16
4.72
4.33
4.07
3.88
3.68
3.43
3.18
3.04
3.10
3.31
3.54
3.62
3.41
2.92
2.26
1.57
0.95
0.40
-0.13
-0.71
-1.38
-2.14
-2.95
-3.77
-4.53
-5.19
-5.70
-6.03
-6.15
-6.01
-5.56
-4.77
-3.63
-2.25
-0.83
0.43
1.38
2.01
2.43
2.79
3.16
3.50
3.71
3.69
3.44
3.05
2.66
2.36
2.16
2.02
1.90
1.76
1.58
1.33
0.98
0.52
-0.03
-0.60
-1.11
-1.49
-1.77
-2.01
-2.33
-2.80
-3.42
-4.11
-4.73
-5.10
-5.11
-4.72
-3.98
-3.03
-2.00
-0.98
-0.02
0.89
1.77
2.62
3.46
4.29
5.14
6.03
6.94
7.79
8.47
8.90
9.03
8.91
8.57
8.10
7.54
6.95
6.35
5.78
5.23
4.67
4.06
3.39
2.66
1.88
1.11
0.35
-0.38
-1.06
-1.71
-2.38
-3.12
-4.02
-5.11
-6.35
-7.62
-8.75
-9.55
-9.94
-9.89
-9.48
-8.79
-7.92
-6.93
-5.84
-4.70
-3.58
-2.64
-1.99
-1.68
-1.66
-1.71
-1.61
-1.19
-0.42
0.54
1.48
2.17
2.52
2.55
2.36
2.08
1.83
1.69
1.70
1.86
2.12
2.41
2.67
2.86
3.00
3.14
3.30
3.47
3.57
3.49
3.17
2.65
2.09
1.67
1.55
1.75
2.17
2.65
3.05
3.28
3.36
3.36
3.35
3.33
3.26
3.08
2.75
2.29
1.75
1.18
0.61
0.05
-0.52
-1.05
-1.48
-1.71
-1.71
-1.52
-1.24
-1.04
-1.03
-1.23
-1.60
-2.02
-2.42
-2.75
-3.05
-3.38
-3.77
-4.23
-4.71
-5.18
-5.57
-5.85
-5.98
-5.91
-5.59
-4.99
-4.08
-2.90
-1.50
-0.03
1.39
2.65
3.69
4.52
5.16
5.63
5.89
5.92
5.69
5.25
4.68
4.12
3.66
3.36
3.23
3.25
3.40
3.64
3.91
4.14
4.23
4.10
3.73
3.18
2.53
1.88
1.26
0.68
0.14
-0.37
-0.86
-1.35
-1.87
-2.47
-3.16
-3.87
-4.47
-4.80
-4.73
-4.27
-3.49
-2.60
-1.75
-1.04
-0.45
0.08
0.59
1.04
1.32
1.34
1.08
0.66
0.32
0.26
0.60
1.24
1.98
2.60
3.05
3.38
3.75
4.27
4.87
5.38
5.66
5.64
5.39
5.08
4.80
4.53
4.16
3.56
2.69
1.61
0.41
-0.81
-1.99
-3.11
-4.11
-4.92
-5.51
-5.90
-6.16
-6.38
-6.56
-6.61
-6.38
-5.75
-4.74
-3.52
-2.40
-1.69
-1.61
-2.15
-3.11
-4.14
-4.89
-5.07
-4.55
-3.36
-1.65
0.34
2.35
4.11
5.40
6.11
6.26
5.98
5.45
4.85
4.30
3.87
3.61
3.58
3.80
4.24
4.80
5.34
5.68
5.72
5.47
5.04
4.62
4.38
4.42
4.70
5.15
5.67
6.15
6.58
6.99
7.40
7.81
8.13
8.23
7.98
7.29
6.17
4.73
3.14
1.53
-0.01
-1.52
-3.08
-4.74
-6.46
-8.11
-9.51
-10.52
-11.12
-11.38
-11.44
-11.41
-11.37
-11.30
-11.16
-10.96
-10.72
-10.49
-10.28
-10.06
-9.72
-9.22
-8.56
-7.80
-7.03
-6.30
-5.57
-4.74
-3.75
-2.60
-1.41
-0.36
0.44
1.00
1.37
1.71
2.10
2.59
3.19
3.84
4.46
4.94
5.16
5.06
4.63
3.98
3.20
2.39
1.57
0.78
0.05
-0.56
-0.97
-1.19
-1.30
-1.43
-1.63
-1.87
-2.05
-2.04
-1.84
-1.58
-1.47
-1.69
-2.29
-3.17
-4.09
-4.81
-5.12
-4.94
-4.32
-3.41
-2.37
-1.37
-0.49
0.27
0.95
1.61
2.24
2.82
3.33
3.77
4.20
4.67
5.17
5.64
5.96
5.99
5.68
5.09
4.33
3.60
3.03
2.66
2.48
2.39
2.32
2.18
1.92
1.53
0.98
0.28
-0.57
-1.55
-2.59
-3.61
-4.48
-5.08
-5.35
-5.28
-4.91
-4.33
-3.62
-2.81
-1.94
-1.07
-0.26
0.38
0.83
1.10
1.29
1.50
1.77
2.13
2.54
2.95
3.34
3.72
4.07
4.36
4.51
4.45
4.15
3.65
3.09
2.59
2.20
1.89
1.54
1.05
0.37
-0.44
-1.26
-1.94
-2.40
-2.70
-2.95
-3.27
-3.70
-4.19
-4.58
-4.70
-4.42
-3.74
-2.76
-1.65
-0.54
0.48
1.41
2.34
3.30
4.31
5.32
6.25
7.04
7.64
8.01
8.16
8.05
7.68
7.01
6.04
4.81
3.40
1.91
0.50
-0.71
-1.64
-2.25
-2.59
-2.74
-2.74
-2.60
-2.22
-1.54
-0.56
0.57
1.54
2.04
1.84
0.95
-0.38
-1.74
-2.82
-3.47
-3.73
-3.75
-3.65
-3.43
-3.00
-2.27
-1.24
-0.06
1.07
1.99
2.64
3.05
3.31
3.48
3.56
3.51
3.27
2.83
2.26
1.69
1.26
1.07
1.08
1.15
1.10
0.79
0.19
-0.58
-1.39
-2.13
-2.80
-3.45
-4.15
-4.93
-5.71
-6.38
-6.87
-7.16
-7.28
-7.30
-7.24
-7.07
-6.72
-6.09
-5.13
-3.87
-2.46
-1.05
0.21
1.25
2.08
2.76
3.32
3.77
4.03
4.08
3.88
3.52
3.08
2.68
2.40
2.30
2.36
2.54
2.70
2.70
2.38
1.70
0.70
-0.51
-1.79
-2.99
-4.02
-4.79
-5.29
-5.50
-5.51
-5.47
-5.54
-5.86
-6.43
-7.11
-7.64
-7.82
-7.50
-6.73
-5.64
-4.38
-3.09
-1.81
-0.57
0.60
1.64
2.45
3.00
3.27
3.34
3.29
3.23
3.19
3.17
3.14
3.12
3.09
3.08
3.08
3.04
2.93
2.71
2.42
2.09
1.75
1.39
0.96
0.43
-0.22
-0.89
-1.50
-1.97
-2.32
-2.63
-3.02
-3.57
-4.24
-4.94
-5.53
-5.87
-5.87
-5.48
-4.71
-3.59
-2.22
-0.76
0.63
1.78
2.60
3.09
3.34
3.47
3.58
3.71
3.82
3.89
3.93
3.95
4.02
4.17
4.39
4.59
4.64
4.46
4.03
3.43
2.78
2.23
1.86
1.68
1.55
1.38
1.04
0.52
-0.15
-0.86
-1.54
-2.16
-2.69
-3.16
-3.53
-3.76
-3.76
-3.44
-2.79
-1.86
-0.75
0.36
1.34
2.13
2.72
3.18
3.57
3.90
4.16
4.30
4.29
4.16
3.97
3.79
3.64
3.47
3.24
2.91
2.51
2.14
1.91
1.84
1.88
1.92
1.85
1.61
1.26
0.86
0.48
0.13
-0.23
-0.63
-1.09
-1.58
-2.06
-2.50
-2.89
-3.23
-3.51
-3.71
-3.81
-3.78
-3.62
-3.33
-2.93
-2.39
-1.68
-0.79
0.20
1.18
1.99
2.55
2.88
3.08
3.32
3.68
4.17
4.68
5.08
5.28
5.22
4.96
4.59
4.25
4.07
4.11
4.32
4.51
4.45
3.96
3.02
1.83
0.73
0.04
-0.11
0.22
0.78
1.31
1.70
1.97
2.29
2.81
3.66
4.82
6.23
7.80
9.47
11.09
12.44
13.19
13.00
11.64
9.16
5.87
2.28
-1.08
-3.83
-5.83
-7.10
-7.79
-8.09
-8.20
-8.35
-8.73
-9.44
-10.44
-11.52
-12.40
-12.88
-12.94
-12.69
-12.33
-12.02
-11.78
-11.57
-11.34
-11.11
-10.96
-10.96
-11.10
-11.26
-11.28
-10.99
-10.31
-9.25
-7.92
-6.46
-5.02
-3.67
-2.46
-1.37
-0.38
0.55
1.40
2.17
2.83
3.37
3.79
4.12
4.38
4.56
4.65
4.62
4.48
4.29
4.14
4.13
4.29
4.59
4.90
5.05
4.94
4.57
4.00
3.36
2.74
2.18
1.65
1.12
0.61
0.11
-0.38
-0.89
-1.43
-1.97
-2.42
-2.64
-2.49
-1.96
-1.20
-0.42
0.14
0.36
0.28
0.07
-0.08
-0.02
0.30
0.83
1.52
2.30
3.09
3.81
4.37
4.65
4.62
4.31
3.84
3.37
2.99
2.68
2.37
1.97
1.45
0.89
0.43
0.26
0.51
1.22
2.31
3.65
5.05
6.32
7.34
8.05
8.48
8.71
8.81
8.80
8.70
8.52
8.26
7.97
7.67
7.34
6.92
6.32
5.45
4.31
2.96
1.54
0.16
-1.08
-2.17
-3.16
-4.15
-5.23
-6.47
-7.91
-9.48
-11.07
-12.53
-13.74
-14.63
-15.21
-15.49
-15.53
-15.38
-15.05
-14.58
-14.03
-13.48
-12.98
-12.61
-12.41
-12.36
-12.46
-12.64
-12.81
-12.81
-12.48
-11.70
-10.43
-8.80
-7.02
-5.35
-3.99
-2.97
-2.19
-1.45
-0.57
0.54
1.80
3.05
4.13
4.94
5.50
5.90
6.22
6.53
6.81
7.01
7.07
6.95
6.67
6.26
5.76
5.21
4.63
4.06
3.50
2.94
2.37
1.77
1.14
0.49
-0.17
-0.88
-1.71
-2.72
-3.89
-5.04
-5.86
-6.04
-5.38
-3.96
-2.12
-0.31
1.10
1.99
2.52
3.00
3.68
4.60
5.57
6.35
6.79
6.92
6.93
7.05
7.39
7.91
8.52
9.15
9.81
10.52
11.26
11.89
12.17
11.90
10.99
9.53
7.73
5.80
3.85
1.91
-0.00
-1.87
-3.55
-4.89
-5.78
-6.26
-6.43
-6.47
-6.48
-6.48
-6.36
-6.01
-5.37
-4.48
-3.46
-2.45
-1.57
-0.89
-0.41
-0.07
0.22
0.57
1.07
1.73
2.46
3.05
3.32
3.19
2.75
2.21
1.81
1.69
1.83
2.07
2.23
2.17
1.88
1.38
0.78
0.14
-0.50
-1.10
-1.66
-2.19
-2.77
-3.45
-4.29
-5.23
-6.13
-6.78
-7.03
-6.82
-6.23
-5.40
-4.47
-3.52
-2.51
-1.39
-0.13
1.22
2.52
3.66
4.54
5.20
5.71
6.13
6.46
6.60
6.49
6.11
5.56
5.00
4.57
4.29
4.11
3.88
3.48
2.89
2.15
1.37
0.64
-0.01
-0.60
-1.20
-1.86
-2.61
-3.45
-4.34
-5.18
-5.89
-6.40
-6.70
-6.83
-6.87
-6.85
-6.74
-6.46
-5.91
-5.07
-3.98
-2.74
-1.47
-0.25
0.86
1.85
2.68
3.33
3.80
4.12
4.35
4.52
4.63
4.64
4.52
4.31
4.12
4.02
4.03
4.08
4.07
3.92
3.67
3.40
3.17
2.95
2.59
1.95
1.03
-0.05
-1.02
-1.68
-1.97
-2.08
-2.27
-2.76
-3.62
-4.71
-5.82
-6.75
-7.38
-7.65
-7.56
-7.06
-6.15
-4.91
-3.49
-2.07
-0.77
0.37
1.40
2.39
3.40
4.43
5.43
6.35
7.12
7.67
7.92
7.79
7.27
6.43
5.38
4.25
3.14
2.09
1.11
0.24
-0.43
-0.82
-0.89
-0.70
-0.40
-0.16
-0.08
-0.20
-0.45
-0.74
-0.96
-1.11
-1.18
-1.23
-1.31
-1.46
-1.71
-2.03
-2.33
-2.49
-2.38
-1.91
-1.07
0.06
1.34
2.63
3.82
4.87
5.77
6.49
7.02
7.34
7.46
7.43
7.32
7.23
7.22
7.31
7.48
7.64
7.66
7.40
6.80
5.88
4.81
3.85
3.19
2.90
2.89
2.93
2.80
2.39
1.75
1.01
0.38
-0.03
-0.20
-0.21
-0.19
-0.26
-0.51
-0.96
-1.52
-2.02
-2.29
-2.20
-1.74
-1.04
-0.24
0.56
1.35
2.23
3.30
4.59
6.04
7.49
8.82
10.02
11.16
12.34
13.58
14.80
15.82
16.49
16.79
16.83
16.81
16.95
17.23
17.50
17.54
17.13
16.18
14.64
12.56
9.99
7.03
3.67
0.01
-3.79
-7.52
-11.07
-14.44
-17.77
-21.23
-24.88
-28.93
-33.27
-37.46
-40.81
-42.69
-42.79
-41.31
-38.93
-36.51
-35.15
-35.48
-37.44
-40.44
-43.76
-46.88
-49.57
-51.78
-53.43
-54.87
-56.15
-57.01
-57.07
-55.99
-53.80
-50.70
-46.97
-39.64
-27.43
-11.21
6.25
21.98
34.38
43.16
48.90
52.46
54.71
55.76
55.62
54.82
53.48
51.86
50.17
48.66
47.52
46.91
46.44
45.80
44.91
43.87
42.98
41.94
40.70
39.24
37.61
35.69
33.43
30.94
28.28
25.59
22.88
20.22
17.68
15.33
13.11
10.94
8.73
6.37
3.70
0.49
-3.48
-8.36
-14.09
-20.24
-26.04
-30.57
-33.11
-33.34
-31.53
-28.32
-24.49
-20.66
-17.24
-14.48
-12.55
-11.66
-11.87
-13.03
-14.64
-16.02
-16.52
-15.84
-14.08
-11.75
-9.44
-7.57
-6.28
-5.39
-4.59
-3.62
-2.35
-0.81
0.83
2.38
3.68
4.59
5.08
5.17
4.95
4.55
4.05
3.44
2.67
1.77
0.89
0.22
-0.17
-0.34
-0.46
-0.73
-1.29
-2.10
-2.96
-3.60
-3.86
-3.76
-3.48
-3.21
-3.04
-3.04
-3.21
-3.42
-3.51
-3.23
-2.47
-1.18
0.70
3.14
5.72
8.04
9.92
11.47
13.13
14.99
16.99
18.97
20.69
21.25
19.96
16.77
12.34
8.06
4.54
2.06
0.65
0.10
-1.10
-4.42
-10.62
-19.49
-29.62
-40.59
-52.18
-64.15
-76.21
-89.30
-104.00
-119.81
-135.26
-147.94
-157.49
-164.35
-169.00
-163.41
-142.76
-108.20
-66.93
-32.03
-4.21
17.96
36.03
51.63
65.31
76.20
83.60
87.63
89.14
89.96
90.19
89.52
87.92
85.62
82.11
77.03
70.61
63.70
57.87
53.29
49.67
46.67
43.94
40.62
36.11
30.54
24.97
21.22
20.17
21.69
24.74
27.53
28.02
24.99
18.71
10.79
3.47
-1.85
-4.88
-6.14
-6.49
-6.65
-6.88
-6.99
-6.72
-5.94
-4.90
-3.94
-3.10
-2.18
-0.90
0.91
3.20
5.67
7.90
9.52
10.40
10.77
10.92
11.05
11.13
11.06
10.71
10.02
9.07
8.05
7.34
7.19
7.61
8.33
8.98
9.15
8.54
6.95
3.49
-1.72
-7.65
-12.79
-15.89
-16.33
-14.11
-9.78
-4.38
0.68
4.16
5.41
4.12
0.52
-4.61
-10.15
-15.04
-18.64
-20.81
-21.70
-21.60
-20.91
-19.54
-17.56
-15.16
-12.73
-10.81
-9.82
-9.83
-10.56
-11.61
-12.55
-13.22
-13.62
-13.90
-14.14
-14.29
-14.10
-13.31
-11.88
-9.88
-7.61
-5.41
-3.59
-2.36
-1.74
-1.59
-1.71
-1.90
-2.02
-2.07
-2.21
-2.64
-3.62
-5.23
-7.31
-9.47
-11.20
-12.02
-11.78
-10.59
-8.83
-6.90
-5.12
-3.65
-2.50
-1.68
-1.20
-1.07
-1.18
-1.33
-1.31
-0.94
-0.25
0.57
1.28
1.66
1.64
1.34
0.96
0.75
0.85
1.28
1.92
2.53
2.88
2.81
2.33
1.61
0.85
0.22
-0.25
-0.67
-1.24
-2.14
-3.41
-4.99
-6.74
-8.45
-9.90
-10.90
-11.33
-11.13
-10.40
-9.30
-8.06
-6.82
-5.67
-4.57
-3.45
-2.26
-1.09
-0.07
0.68
1.13
1.42
1.77
2.41
3.47
4.88
6.46
7.97
9.22
10.09
10.52
10.53
10.18
9.62
9.06
8.76
8.89
9.48
10.37
11.30
12.03
12.46
12.62
12.58
12.45
12.28
12.11
11.99
12.06
12.46
13.30
14.55
16.04
17.50
18.65
19.35
19.56
19.40
19.01
18.47
17.79
16.88
15.65
14.09
12.32
10.55
8.98
7.76
6.89
6.32
5.90
5.50
5.03
4.38
3.54
2.52
1.40
0.25
-0.86
-1.90
-2.87
-3.81
-4.75
-5.71
-6.66
-7.55
-8.38
-9.10
-9.65
-9.92
-9.76
-9.04
-7.70
-5.85
-3.69
-1.47
0.56
2.26
3.63
4.67
5.46
6.00
6.27
6.24
5.95
5.47
4.95
4.49
4.15
3.85
3.51
3.01
2.34
1.54
0.71
-0.10
-0.86
-1.62
-2.42
-3.26
-4.10
-4.86
-5.53
-6.14
-6.80
-7.57
-8.48
-9.44
-10.34
-11.02
-11.36
-11.33
-10.91
-10.15
-9.07
-7.67
-5.98
-4.06
-2.00
0.01
1.82
3.32
4.44
5.27
5.92
6.49
7.03
7.48
7.72
7.61
7.09
6.20
5.08
3.91
2.84
1.92
1.16
0.51
-0.06
-0.57
-1.05
-1.52
-2.03
-2.58
-3.16
-3.69
-4.16
-4.56
-4.97
-5.42
-5.81
-5.97
-5.68
-4.77
-3.28
-1.39
0.62
2.54
4.28
5.86
7.32
8.68
9.92
11.02
12.01
12.92
13.74
14.35
14.55
14.11
12.91
11.02
8.69
6.25
3.93
1.85
-0.05
-1.89
-3.79
-5.83
-7.96
-10.03
-11.85
-13.23
-14.06
-14.31
-14.02
-13.35
-12.44
-11.44
-10.48
-9.62
-8.86
-8.05
-7.00
-5.44
-3.22
-0.36
2.90
6.20
9.16
11.56
13.34
14.55
15.27
15.60
15.61
15.42
15.19
15.09
15.22
15.52
15.83
15.90
15.56
14.76
13.56
12.11
10.52
8.85
7.08
5.21
3.29
1.46
-0.19
-1.65
-2.97
-4.17
-5.21
-5.96
-6.27
-6.06
-5.47
-4.88
-4.71
-5.18
-6.13
-7.09
-7.50
-7.00
-5.42
-2.89
0.26
3.60
6.81
9.63
11.85
13.15
13.18
11.99
9.86
7.26
4.60
2.14
-0.11
-2.24
-4.47
-7.96
-12.90
-18.31
-22.62
-24.59
-23.59
-20.17
-15.00
-8.69
-1.67
5.38
11.86
17.16
20.82
22.58
22.45
20.78
18.05
14.86
11.92
9.84
8.93
9.16
10.30
11.94
13.77
15.48
16.80
17.56
17.65
16.97
15.44
13.06
9.95
6.34
2.47
-1.47
-5.28
-8.77
-11.79
-14.27
-16.21
-17.72
-18.92
-19.94
-20.82
-21.48
-21.81
-21.70
-21.19
-20.46
-19.75
-19.23
-18.99
-18.99
-19.14
-19.42
-19.82
-20.37
-21.02
-21.60
-21.87
-21.57
-20.57
-18.87
-16.62
-14.03
-11.29
-8.58
-6.00
-3.69
-1.78
-0.35
0.57
1.02
1.18
1.21
1.28
1.45
1.71
1.98
2.18
2.21
2.04
1.69
1.19
0.57
-0.15
-0.96
-1.87
-2.86
-3.92
-4.99
-6.03
-6.96
-7.71
-8.19
-8.30
-7.96
-7.12
-5.80
-4.13
-2.22
-0.26
1.59
3.19
4.46
5.32
5.76
5.84
5.64
5.30
4.93
4.54
4.07
3.39
2.33
0.88
-0.79
-2.33
-3.33
-3.51
-2.83
-1.55
-0.14
0.95
1.40
1.08
0.09
-1.40
-3.20
-5.16
-7.14
-9.08
-10.92
-12.67
-14.37
-16.05
-17.68
-19.18
-20.42
-21.23
-21.46
-21.01
-19.83
-17.97
-15.58
-12.88
-10.15
-7.68
-5.66
-4.18
-3.17
-2.43
-1.73
-0.85
0.30
1.72
3.28
4.83
6.21
7.33
8.13
8.63
8.81
8.68
8.25
7.52
6.55
5.44
4.32
3.34
2.64
2.26
2.16
2.25
2.38
2.38
2.17
1.71
1.02
0.17
-0.73
-1.54
-2.10
-2.27
-1.91
-0.96
0.52
2.35
4.27
6.06
7.56
8.75
9.66
10.34
10.76
10.85
10.58
10.01
9.34
8.78
8.47
8.38
8.33
8.09
7.54
6.67
5.62
4.55
3.61
2.91
2.49
2.41
2.68
3.24
3.88
4.33
4.26
3.53
2.15
0.41
-1.30
-2.55
-3.04
-2.64
-1.45
0.26
2.13
3.81
5.06
5.81
6.15
6.29
6.43
6.74
7.31
8.16
9.22
10.41
11.53
12.39
12.76
12.50
11.60
10.21
8.57
6.97
5.60
4.56
3.84
3.35
2.99
2.66
2.28
1.77
1.07
0.17
-0.92
-2.15
-3.46
-4.78
-6.01
-7.07
-7.83
-8.17
-7.97
-7.23
-6.02
-4.51
-2.89
-1.28
0.27
1.77
3.22
4.55
5.62
6.32
6.56
6.40
5.99
5.49
5.04
4.68
4.38
4.10
3.77
3.32
2.71
1.92
0.98
-0.01
-0.93
-1.68
-2.21
-2.55
-2.84
-3.17
-3.63
-4.20
-4.78
-5.25
-5.49
-5.44
-5.11
-4.61
-4.09
-3.72
-3.61
-3.68
-3.71
-3.37
-2.37
-0.55
2.03
5.10
8.27
11.14
13.37
14.74
15.19
14.83
13.89
12.74
11.67
10.89
10.40
10.09
9.81
9.51
9.24
9.09
9.14
9.34
9.55
9.60
9.38
8.92
8.36
7.87
7.64
7.74
8.13
8.68
9.24
9.70
10.05
10.38
10.75
11.17
11.46
11.36
10.62
9.12
6.96
4.38
1.63
-1.09
-3.72
-6.25
-8.69
-10.99
-13.09
-14.98
-16.68
-18.25
-19.74
-21.12
-22.30
-23.16
-23.66
-23.84
-23.88
-24.03
-24.52
-25.51
-26.98
-28.78
-30.76
-32.75
-34.74
-36.78
-38.91
-41.06
-43.02
-44.45
-45.00
-44.37
-42.36
-38.78
-33.43
-26.16
-16.98
-6.29
5.06
15.93
25.16
32.04
36.41
38.66
39.45
39.29
38.35
36.48
33.48
29.32
24.31
19.01
14.06
9.92
6.78
4.58
3.05
1.97
1.20
0.74
0.58
0.74
1.17
1.79
2.45
3.04
3.54
4.02
4.53
4.91
4.88
4.17
2.62
0.26
-2.70
-5.84
-8.68
-10.79
-12.09
-12.68
-12.74
-12.41
-11.86
-11.25
-10.67
-10.14
-9.66
-9.43
-9.61
-10.15
-10.83
-11.38
-11.53
-11.02
-9.56
-5.58
1.49
10.81
20.53
28.81
34.40
36.88
36.32
33.22
28.28
22.10
15.29
8.39
2.07
-3.23
-7.24
-9.93
-11.41
-11.96
-12.06
-12.26
-12.99
-13.77
-14.53
-15.22
-15.80
-16.15
-16.07
-15.53
-14.53
-13.14
-11.39
-9.44
-7.42
-5.49
-3.76
-2.46
-1.84
-2.13
-3.36
-5.31
-7.73
-10.34
-12.98
-15.58
-18.14
-20.59
-22.78
-24.51
-25.59
-26.02
-25.86
-25.15
-23.84
-21.81
-18.97
-15.33
-11.10
-6.68
-2.48
1.19
4.20
6.59
8.43
9.78
10.66
11.09
11.23
11.36
11.87
13.10
15.23
18.20
21.75
25.57
29.35
32.91
36.16
39.07
41.59
43.68
45.21
46.08
46.11
45.15
43.17
40.28
36.74
32.82
28.72
24.49
20.06
15.39
10.60
6.00
1.95
-1.30
-3.74
-5.59
-7.17
-8.75
-10.43
-12.13
-13.73
-15.17
-16.52
-17.92
-19.49
-21.21
-22.89
-24.21
-24.84
-24.52
-23.17
-20.87
-17.87
-14.48
-11.05
-7.87
-5.13
-2.92
-1.17
0.35
1.97
4.02
6.64
9.71
12.81
15.41
17.00
17.33
16.46
14.70
12.53
10.39
8.65
7.52
6.99
6.75
6.15
4.34
0.57
-5.37
-12.95
-20.96
-27.93
-32.66
-34.65
-34.17
-31.97
-28.93
-25.64
-22.33
-18.99
-15.55
-12.01
-8.48
-5.10
-1.97
0.88
3.43
5.60
7.22
8.11
8.14
7.33
5.88
4.14
2.44
1.00
-0.12
-0.95
-1.58
-1.97
-2.05
-1.70
-0.88
0.27
1.51
2.55
3.16
3.26
2.89
2.20
1.37
0.52
-0.23
-0.82
-1.24
-1.53
-1.79
-2.10
-2.52
-2.89
-2.95
-2.33
-0.76
1.78
5.05
8.56
11.77
14.26
15.86
16.61
16.71
16.41
15.98
15.61
15.44
15.47
15.53
15.34
14.60
13.06
10.67
7.57
4.05
0.47
-2.86
-5.70
-7.86
-9.32
-10.08
-10.25
-9.95
-9.28
-8.37
-7.29
-6.16
-5.06
-4.11
-3.33
-2.75
-2.35
-2.25
-2.62
-3.64
-5.41
-7.77
-10.36
-12.66
-14.21
-14.85
-14.71
-14.16
-13.64
-13.41
-13.49
-13.70
-13.76
-13.41
-12.52
-11.08
-9.18
-7.00
-4.74
-2.60
-0.73
0.83
2.08
3.07
3.83
4.40
4.78
4.95
4.89
4.60
4.06
3.24
2.18
0.90
-0.50
-1.93
-3.21
-4.16
-4.61
-4.37
-3.35
-1.59
0.70
3.19
5.53
7.47
8.99
10.23
11.49
12.96
14.70
16.54
18.19
19.34
19.84
19.70
19.09
18.24
17.31
16.42
15.57
14.73
13.85
12.90
11.85
10.68
9.36
7.92
6.37
4.77
3.17
1.62
0.18
-1.12
-2.27
-3.29
-4.28
-5.30
-6.44
-7.68
-8.94
-10.06
-10.86
-11.21
-11.10
-10.58
-9.73
-8.59
-7.22
-5.60
-3.79
-1.82
0.22
2.19
3.98
5.46
6.54
7.15
7.34
7.18
6.83
6.45
6.17
6.04
6.01
6.03
5.95
5.72
5.29
4.70
3.98
3.22
2.46
1.74
1.03
0.31
-0.43
-1.19
-1.94
-2.62
-3.21
-3.73
-4.25
-4.84
-5.51
-6.20
-6.79
-7.14
-7.15
-6.80
-6.10
-5.04
-3.64
-1.91
0.07
2.15
4.17
6.03
7.74
9.41
11.18
13.10
15.08
16.93
18.47
19.61
20.45
21.17
21.98
23.01
24.22
25.44
26.43
27.00
27.03
26.58
25.81
24.95
24.20
23.71
23.51
23.49
23.37
22.70
20.91
17.45
12.01
4.68
-4.03
-13.27
-22.12
-29.81
-35.81
-39.94
-42.31
-43.22
-43.17
-42.73
-42.38
-42.42
-42.88
-43.45
-43.70
-43.20
-41.67
-39.12
-35.81
-32.19
-28.79
-25.95
-23.78
-22.08
-20.43
-18.24
-14.94
-10.07
-3.31
5.32
15.41
26.16
36.48
45.36
52.14
56.66
59.16
59.98
59.27
56.92
52.75
46.82
39.62
32.01
24.86
18.79
13.93
10.04
6.70
3.61
0.69
-1.94
-4.08
-5.64
-6.67
-7.37
-7.95
-8.56
-9.18
-9.68
-9.88
-9.72
-9.27
-8.79
-8.61
-8.95
-9.84
-11.10
-12.41
-13.44
-14.02
-14.17
-14.07
-13.92
-13.85
-13.85
-13.82
-13.60
-13.12
-12.44
-11.76
-11.30
-11.24
-11.62
-12.38
-13.33
-14.24
-14.94
-15.34
-15.39
-15.08
-14.38
-13.27
-11.78
-9.96
-7.97
-5.96
-4.09
-2.44
-1.08
-0.03
0.70
1.11
1.22
1.11
0.91
0.76
0.74
0.85
0.99
1.06
0.97
0.75
0.48
0.29
0.26
0.37
0.54
0.62
0.48
0.04
-0.66
-1.57
-2.59
-3.61
-4.53
-5.24
-5.62
-5.57
-5.02
-4.01
-2.66
-1.15
0.32
1.58
2.55
3.22
3.58
3.69
3.59
3.36
3.09
2.91
2.87
2.91
2.91
2.76
2.44
1.99
1.54
1.22
1.03
0.90
0.72
0.43
0.00
-0.53
-1.13
-1.79
-2.49
-3.22
-3.93
-4.57
-5.17
-5.76
-6.38
-7.03
-7.62
-7.98
-7.94
-7.34
-6.14
-4.46
-2.50
-0.53
1.21
2.59
3.55
4.15
4.49
4.64
4.62
4.47
4.23
3.96
3.76
3.67
3.67
3.70
3.65
3.44
3.04
2.47
1.81
1.12
0.48
-0.09
-0.62
-1.14
-1.72
-2.40
-3.19
-4.08
-5.04
-6.02
-6.94
-7.71
-8.20
-8.26
-7.79
-6.73
-5.17
-3.26
-1.24
0.68
2.32
3.61
4.57
5.28
5.83
6.23
6.47
6.45
6.13
5.54
4.82
4.16
3.74
3.61
3.69
3.76
3.66
3.31
2.73
2.09
1.50
0.99
0.51
-0.09
-0.87
-1.80
-2.80
-3.74
-4.58
-5.36
-6.17
-7.01
-7.74
-8.10
-7.84
-6.80
-5.05
-2.87
-0.63
1.34
2.90
4.06
4.90
5.50
5.88
5.97
5.77
5.31
4.73
4.20
3.80
3.56
3.42
3.32
3.20
3.07
2.94
2.83
2.71
2.51
2.14
1.55
0.71
-0.32
-1.43
-2.44
-3.23
-3.76
-4.10
-4.46
-5.01
-5.77
-6.58
-7.10
-7.00
-6.12
-4.54
-2.52
-0.40
1.53
3.14
4.41
5.39
6.07
6.44
6.49
6.27
5.88
5.42
4.96
4.52
4.09
3.68
3.30
2.98
2.76
2.65
2.60
2.56
2.45
2.22
1.83
1.29
0.63
-0.09
-0.81
-1.49
-2.13
-2.78
-3.49
-4.30
-5.17
-5.98
-6.60
-6.88
-6.74
-6.14
-5.15
-3.85
-2.36
-0.79
0.76
2.22
3.54
4.68
5.58
6.15
6.35
6.18
5.70
5.08
4.47
4.01
3.72
3.54
3.34
3.05
2.63
2.14
1.67
1.25
0.85
0.41
-0.15
-0.83
-1.58
-2.27
-2.82
-3.27
-3.72
-4.36
-5.27
-6.37
-7.43
-8.12
-8.14
-7.38
-5.95
-4.11
-2.20
-0.45
1.03
2.27
3.30
4.11
4.65
4.84
4.67
4.24
3.71
3.24
2.93
2.79
2.82
2.94
3.11
3.23
3.24
3.03
2.54
1.76
0.76
-0.36
-1.45
-2.42
-3.17
-3.70
-4.05
-4.38
-4.84
-5.59
-6.66
-7.92
-9.07
-9.78
-9.77
-8.97
-7.47
-5.53
-3.39
-1.27
0.72
2.53
4.14
5.50
6.52
7.11
7.22
6.86
6.18
5.36
4.61
4.07
3.78
3.66
3.59
3.48
3.27
3.01
2.72
2.41
2.00
1.44
0.70
-0.15
-0.96
-1.61
-2.04
-2.35
-2.72
-3.33
-4.25
-5.40
-6.62
-7.67
-8.35
-8.52
-8.12
-7.13
-5.64
-3.82
-1.91
-0.17
1.22
2.21
2.93
3.52
4.13
4.78
5.36
5.78
5.95
5.90
5.74
5.55
5.38
5.23
5.03
4.76
4.40
3.99
3.59
3.24
2.91
2.58
2.19
1.70
1.09
0.35
-0.48
-1.36
-2.22
-2.98
-3.60
-4.10
-4.57
-5.10
-5.71
-6.32
-6.70
-6.61
-5.84
-4.38
-2.36
-0.07
2.17
4.16
5.81
7.15
8.28
9.26
10.10
10.76
11.19
11.43
11.53
11.64
11.85
12.21
12.63
12.95
12.99
12.63
11.90
10.87
9.63
8.13
6.21
3.65
0.29
-3.79
-8.37
-13.13
-17.83
-22.31
-26.52
-30.36
-33.58
-35.87
-36.88
-36.45
-34.62
-31.57
-27.55
-22.80
-17.55
-12.08
-6.83
-2.27
1.11
3.01
3.44
2.67
1.21
-0.39
-1.63
-2.14
-1.74
-0.40
1.76
4.43
7.23
9.77
11.77
13.12
13.93
14.33
14.48
14.43
14.12
13.45
12.34
10.76
8.74
6.34
3.65
0.74
-2.28
-5.28
-8.15
-10.74
-12.92
-14.57
-15.60
-15.98
-15.74
-14.97
-13.80
-12.32
-10.60
-8.71
-6.75
-4.89
-3.26
-1.97
-1.04
-0.41
0.02
0.34
0.63
0.89
1.13
1.32
1.43
1.39
1.14
0.66
0.02
-0.69
-1.35
-1.88
-2.29
-2.68
-3.12
-3.67
-4.34
-5.12
-5.97
-6.83
-7.69
-8.52
-9.29
-9.98
-10.58
-11.04
-11.29
-11.23
-10.82
-10.02
-8.87
-7.39
-5.64
-3.71
-1.69
0.24
1.92
3.25
4.19
4.78
5.10
5.19
5.08
4.77
4.24
3.46
2.42
1.17
-0.20
-1.48
-2.44
-2.89
-2.78
-2.24
-1.53
-0.90
-0.46
-0.15
0.16
0.52
0.78
0.68
-0.06
-1.47
-3.29
-5.01
-6.11
-6.24
-5.36
-3.68
-1.53
0.78
3.06
5.25
7.34
9.37
11.38
13.43
15.50
17.57
19.48
21.06
22.13
22.54
22.31
21.57
20.50
19.32
18.11
16.95
15.83
14.73
13.61
12.47
11.31
10.11
8.87
7.61
6.35
5.14
3.98
2.83
1.61
0.25
-1.32
-3.05
-4.85
-6.53
-7.89
-8.73
-8.94
-8.50
-7.47
-6.01
-4.29
-2.47
-0.71
0.94
2.48
3.89
5.18
6.35
7.35
8.18
8.84
9.37
9.79
10.14
10.38
10.47
10.37
10.15
9.91
9.82
9.95
10.27
10.63
10.80
10.61
10.01
9.11
8.06
7.00
5.97
4.86
3.57
2.07
0.37
-1.35
-2.91
-4.08
-4.72
-4.78
-4.32
-3.50
-2.52
-1.56
-0.72
-0.01
0.62
1.18
1.69
2.09
2.31
2.35
2.30
2.31
2.47
2.77
3.12
3.32
3.26
2.95
2.50
2.08
1.78
1.55
1.19
0.51
-0.61
-2.08
-3.67
-5.13
-6.28
-7.08
-7.59
-7.89
-7.99
-7.92
-7.68
-7.35
-7.05
-6.97
-7.23
-7.82
-8.55
-9.15
-9.34
-8.92
-7.89
-6.39
-4.68
-3.03
-1.61
-0.45
0.50
1.31
2.01
2.57
2.90
3.00
2.96
2.93
3.04
3.36
3.82
4.23
4.46
4.39
4.08
3.63
3.18
2.81
2.53
2.24
1.89
1.42
0.84
0.18
-0.58
-1.47
-2.54
-3.77
-5.10
-6.37
-7.42
-8.14
-8.50
-8.55
-8.37
-7.96
-7.24
-6.20
-4.87
-3.36
-1.90
-0.67
0.25
0.88
1.35
1.71
2.04
2.32
2.54
2.69
2.85
3.12
3.56
4.10
4.63
4.99
5.08
4.87
4.39
3.78
3.14
2.54
1.97
1.35
0.66
-0.11
-0.86
-1.52
-1.99
-2.25
-2.30
-2.16
-1.88
-1.49
-1.01
-0.43
0.25
1.03
1.92
2.90
3.90
4.82
5.50
5.82
5.78
5.47
5.06
4.65
4.28
3.91
3.45
2.84
2.08
1.24
0.39
-0.39
-1.11
-1.79
-2.47
-3.15
-3.83
-4.45
-4.95
-5.28
-5.45
-5.53
-5.68
-6.05
-6.73
-7.67
-8.73
-9.76
-10.57
-11.02
-11.01
-10.51
-9.48
-7.98
-6.15
-4.19
-2.31
-0.71
0.57
1.52
2.25
2.84
3.37
3.84
4.19
4.44
4.62
4.79
5.01
5.22
5.32
5.21
4.85
4.30
3.71
3.24
2.90
2.64
2.37
1.98
1.45
0.83
0.22
-0.30
-0.71
-1.07
-1.39
-1.72
-2.09
-2.52
-3.02
-3.59
-4.21
-4.78
-5.18
-5.27
-4.99
-4.35
-3.44
-2.38
-1.26
-0.22
0.71
1.42
1.88
2.02
1.80
1.27
0.56
-0.15
-0.71
-0.99
-0.99
-0.79
-0.51
-0.26
-0.07
0.08
0.24
0.41
0.51
0.38
-0.08
-0.86
-1.87
-2.86
-3.66
-4.16
-4.38
-4.45
-4.56
-4.82
-5.22
-5.68
-6.04
-6.20
-6.06
-5.58
-4.73
-3.46
-1.84
0.04
1.98
3.73
5.07
5.87
6.16
6.05
5.69
5.20
4.57
3.79
2.89
1.95
1.08
0.42
0.01
-0.17
-0.19
-0.17
-0.11
0.00
0.21
0.53
0.93
1.33
1.62
1.75
1.68
1.39
0.88
0.18
-0.68
-1.67
-2.67
-3.56
-4.20
-4.47
-4.30
-3.68
-2.67
-1.38
0.06
1.49
2.77
3.87
4.77
5.51
6.14
6.65
6.99
7.04
6.75
6.15
5.35
4.52
3.79
3.23
2.86
2.64
2.54
2.45
2.30
1.93
1.31
0.45
-0.45
-1.20
-1.68
-1.92
-2.05
-2.29
-2.73
-3.40
-4.18
-4.99
-5.74
-6.42
-7.04
-7.53
-7.78
-7.69
-7.21
-6.43
-5.53
-4.78
-4.38
-4.37
-4.67
-5.07
-5.37
-5.46
-5.31
-5.04
-4.71
-4.36
-3.90
-3.27
-2.41
-1.33
-0.08
1.30
2.80
4.49
6.37
8.44
10.58
12.60
14.38
15.86
17.09
18.21
19.33
20.43
21.40
21.97
21.87
20.86
18.90
16.13
12.87
9.50
6.31
3.46
0.97
-1.21
-3.10
-4.64
-5.63
-5.91
-5.33
-3.92
-1.84
0.56
2.90
4.76
5.83
5.89
4.92
3.01
0.39
-2.58
-5.53
-8.15
-10.29
-11.97
-13.34
-14.59
-15.76
-16.75
-17.34
-17.31
-16.61
-15.36
-13.79
-12.12
-10.43
-8.64
-6.63
-4.41
-2.17
-0.28
0.86
1.06
0.45
-0.58
-1.46
-1.80
-1.40
-0.41
0.86
2.13
3.25
4.25
5.31
6.51
7.82
9.01
9.77
9.91
9.43
8.59
7.75
7.28
7.36
7.96
8.87
9.81
10.62
11.23
11.69
12.10
12.50
12.89
13.15
13.14
12.71
11.75
10.16
7.94
5.18
2.04
-1.18
-4.12
-6.47
-8.14
-9.35
-10.64
-12.66
-15.78
-19.74
-23.52
-25.65
-24.69
-19.87
-11.48
-0.79
10.31
19.98
26.83
30.11
29.63
25.49
18.07
8.01
-3.63
-15.42
-25.80
-33.38
-37.47
-38.14
-36.24
-32.92
-29.23
-25.75
-22.55
-19.37
-15.89
-11.92
-7.54
-2.97
1.56
5.83
9.68
13.01
15.64
17.40
18.07
17.57
15.94
13.44
10.43
7.33
4.47
2.02
0.02
-1.60
-2.91
-3.93
-4.61
-4.88
-4.71
-4.16
-3.39
-2.59
-1.95
-1.54
-1.34
-1.24
-1.13
-0.92
-0.60
-0.22
0.20
0.64
1.15
1.77
2.56
3.49
4.47
5.34
5.91
6.05
5.75
5.08
4.24
3.43
2.75
2.19
1.68
1.08
0.33
-0.52
-1.35
-2.00
-2.39
-2.51
-2.38
-2.06
-1.53
-0.77
0.21
1.35
2.51
3.59
4.55
5.43
6.37
7.44
8.61
9.72
10.58
11.02
11.05
10.77
10.31
9.79
9.25
8.68
8.09
7.54
7.09
6.79
6.61
6.48
6.25
5.84
5.18
4.25
3.06
1.68
0.20
-1.24
-2.48
-3.40
-3.97
-4.30
-4.56
-4.91
-5.36
-5.82
-6.12
-6.14
-5.83
-5.26
-4.56
-3.79
-2.99
-2.14
-1.28
-0.48
0.17
0.64
1.00
1.42
2.06
2.93
3.96
4.97
5.88
6.68
7.47
8.33
9.24
10.05
10.54
10.53
9.97
8.96
7.71
6.42
5.26
4.30
3.50
2.68
1.60
-0.02
-2.33
-5.26
-8.60
-11.95
-14.77
-16.63
-17.35
-17.03
-16.05
-14.79
-13.50
-12.38
-11.38
-10.26
-8.83
-7.17
-5.65
-4.72
-4.65
-5.39
-6.88
-8.81
-10.75
-12.33
-13.44
-14.21
-14.85
-15.60
-16.64
-18.63
-22.12
-27.22
-33.43
-39.85
-45.43
-49.54
-52.48
-52.82
-50.74
-47.53
-44.48
-41.42
-36.71
-28.42
-15.77
0.30
17.75
33.99
47.30
57.36
64.90
70.40
73.87
75.23
74.48
72.06
68.42
64.17
59.82
55.58
51.19
45.69
38.69
30.31
21.12
11.76
2.77
-5.47
-12.98
-20.05
-27.07
-34.16
-41.16
-47.60
-52.93
-56.64
-58.42
-58.20
-56.28
-53.10
-49.04
-44.44
-39.53
-34.49
-29.41
-24.35
-19.36
-14.49
-9.80
-5.24
-0.73
3.83
8.52
13.29
17.96
22.25
25.93
28.93
31.39
33.53
35.57
37.64
39.69
41.57
43.02
43.77
43.53
42.11
39.49
35.80
31.37
26.53
21.62
16.81
12.18
7.71
3.38
-0.80
-4.82
-8.68
-12.42
-16.07
-19.60
-22.89
-25.68
-27.67
-28.67
-28.67
-27.88
-26.64
-25.31
-24.12
-23.18
-22.48
-21.90
-21.36
-20.83
-20.25
-19.60
-18.83
-17.87
-16.65
-15.14
-13.43
-11.66
-10.10
-9.01
-8.58
-8.82
-9.56
-10.48
-11.31
-11.86
-12.13
-12.25
-12.40
-12.75
-13.37
-14.25
-15.31
-16.44
-17.46
-18.22
-18.53
-18.23
-17.20
-15.40
-12.86
-9.76
-6.36
-2.98
0.11
2.79
5.05
7.01
8.79
10.40
11.70
12.56
12.88
12.73
12.29
11.82
11.46
11.24
11.03
10.66
10.03
9.15
8.08
6.92
5.74
4.58
3.48
2.48
1.65
1.04
0.62
0.30
-0.06
-0.59
-1.27
-1.95
-2.30
-1.96
-0.62
1.82
5.21
9.18
13.19
16.76
19.57
21.55
22.84
23.68
24.25
24.59
24.60
24.17
23.19
21.66
19.63
17.18
14.44
11.52
8.58
5.79
3.29
1.09
-1.00
-3.23
-5.81
-8.77
-11.87
-14.75
-16.97
-18.24
-18.39
-17.39
-15.37
-12.52
-9.08
-5.33
-1.54
2.08
5.38
8.33
10.93
13.15
14.99
16.46
17.63
18.58
19.34
19.83
19.92
19.49
18.53
17.21
15.84
14.73
14.08
13.88
13.96
14.07
14.00
13.66
13.09
12.35
11.49
10.54
9.44
8.15
6.61
4.83
2.86
0.84
-1.07
-2.70
-3.97
-4.90
-5.62
-6.38
-7.39
-8.76
-10.44
-12.24
-13.83
-14.92
-15.30
-14.91
-13.77
-12.00
-9.75
-7.22
-4.61
-2.16
-0.09
1.49
2.56
3.25
3.68
3.99
4.19
4.28
4.26
4.18
4.16
4.32
4.74
5.41
6.25
7.10
7.84
8.36
8.64
8.69
8.49
8.01
7.14
5.74
3.69
0.89
-2.71
-7.11
-12.24
-18.00
-24.10
-30.02
-35.13
-38.76
-40.47
-40.18
-38.12
-34.71
-30.34
-25.15
-19.13
-12.21
-4.39
4.07
12.78
21.25
28.98
35.55
40.60
43.91
45.36
45.05
43.22
40.21
36.41
32.16
27.74
23.34
19.13
15.29
12.06
9.63
8.09
7.36
7.17
7.18
7.12
6.93
6.78
7.03
7.99
9.63
11.58
13.16
13.81
13.34
12.05
10.65
9.86
9.96
10.71
11.45
11.47
10.41
8.49
6.27
4.40
3.30
3.05
3.45
4.28
5.38
6.63
7.92
9.06
9.81
10.03
9.77
9.30
9.02
9.16
9.72
10.39
10.68
10.20
8.75
6.36
3.30
-0.13
-3.68
-7.22
-10.69
-14.12
-17.47
-20.64
-23.44
-25.58
-26.77
-26.84
-25.80
-23.88
-21.52
-19.16
-17.19
-15.90
-15.47
-15.94
-17.23
-19.13
-21.37
-23.58
-25.41
-26.58
-26.98
-26.64
-25.69
-24.28
-22.50
-20.42
-18.07
-15.54
-12.92
-10.41
-8.20
-6.37
-4.79
-3.20
-1.58
-0.07
1.05
1.46
0.96
-0.38
-2.18
-3.81
-4.65
-4.70
-4.29
-3.96
-4.16
-5.18
-7.13
-9.83
-12.92
-15.89
-18.91
-22.24
-25.99
-30.02
-34.02
-37.73
-41.07
-44.21
-47.41
-51.78
-58.06
-66.17
-75.10
-83.55
-90.65
-96.37
-101.38
-101.30
-93.28
-76.63
-53.52
-27.54
-1.95
21.05
40.13
54.71
65.06
71.16
73.42
72.59
70.25
67.30
64.34
61.75
59.74
58.52
57.47
56.01
53.81
50.97
47.79
44.68
42.07
39.62
37.42
35.24
32.85
30.17
27.32
24.47
21.80
19.41
17.34
15.70
14.34
13.09
11.85
10.58
9.25
7.86
6.42
4.93
3.50
2.16
0.91
-0.24
-1.28
-2.20
-3.04
-3.86
-4.77
-5.74
-6.71
-7.55
-8.02
-7.97
-7.33
-6.20
-4.81
-3.40
-2.15
-1.12
-0.35
0.21
0.54
0.67
0.68
0.66
0.73
0.96
1.36
1.84
2.23
2.43
2.43
2.30
2.14
2.06
2.07
2.16
2.28
2.39
2.44
2.38
2.11
1.54
0.57
-0.80
-2.47
-4.28
-6.07
-7.69
-9.11
-10.29
-11.16
-11.62
-11.54
-10.84
-9.55
-7.85
-6.00
-4.30
-2.91
-1.89
-1.17
-0.67
-0.31
-0.06
0.11
0.24
0.37
0.59
0.96
1.46
2.00
2.48
2.77
2.80
2.57
2.14
1.63
1.18
0.88
0.75
0.68
0.52
0.10
-0.68
-1.78
-3.08
-4.34
-5.36
-5.97
-6.08
-5.69
-4.85
-3.65
-2.22
-0.72
0.74
2.05
3.21
4.19
5.02
5.67
6.15
6.46
6.66
6.80
6.97
7.22
7.56
7.93
8.25
8.42
8.33
7.96
7.47
7.20
7.65
9.19
11.73
14.61
16.75
17.03
14.74
9.88
3.06
-4.81
-12.86
-20.41
-26.85
-31.49
-33.64
-32.76
-28.80
-22.31
-14.28
-5.76
2.61
10.59
18.25
25.59
32.33
37.85
41.40
42.49
40.97
37.13
31.50
24.61
16.87
8.54
-0.22
-9.23
-18.23
-26.85
-34.70
-41.29
-46.12
-48.71
-48.71
-46.04
-40.99
-34.29
-26.98
-20.13
-14.64
-10.95
-8.95
-8.10
-7.61
-6.70
-4.82
-1.82
2.06
6.32
10.26
13.17
14.49
13.87
11.26
7.00
1.75
-3.65
-8.34
-11.73
-13.56
-13.93
-13.18
-11.62
-9.46
-6.74
-3.57
-0.25
2.70
4.65
5.10
3.90
1.36
-1.88
-5.02
-7.40
-8.73
-9.07
-8.78
-8.32
-8.12
-8.43
-9.27
-10.46
-11.66
-12.50
-12.71
-12.19
-11.11
-9.80
-8.59
-7.69
-7.09
-6.62
-6.12
-5.58
-5.27
-5.57
-6.83
-9.20
-12.60
-16.77
-21.34
-25.90
-29.93
-32.94
-34.44
-34.22
-32.36
-29.14
-24.93
-19.96
-14.36
-8.23
-1.83
4.25
9.14
11.96
12.21
9.93
5.73
0.73
-3.67
-5.88
-4.69
0.33
8.53
18.39
27.98
35.69
40.85
43.88
45.94
47.99
50.15
51.81
52.11
50.59
47.50
43.63
39.89
36.94
34.77
32.79
30.12
26.08
20.23
12.29
2.09
-10.58
-24.50
-36.99
-45.06
-47.00
-42.89
-34.35
-23.64
-12.87
-3.49
4.02
9.99
14.75
18.30
20.73
22.19
22.96
23.38
23.79
24.42
25.22
25.79
25.05
22.65
18.80
14.11
9.39
5.42
2.83
1.83
2.13
3.12
4.23
5.10
5.74
6.48
7.76
9.89
12.68
15.35
16.84
16.33
13.52
8.72
2.77
-3.40
-9.02
-13.74
-17.61
-20.85
-23.62
-25.88
-27.49
-28.24
-27.99
-26.81
-24.90
-22.57
-20.19
-18.15
-16.81
-16.46
-17.20
-18.86
-20.98
-22.94
-24.17
-24.29
-23.26
-21.29
-18.74
-16.02
-13.44
-11.14
-8.94
-6.31
-2.41
3.58
11.98
22.25
32.82
41.48
46.04
45.13
38.66
27.77
14.35
0.38
-12.53
-23.33
-31.37
-36.33
-38.12
-37.03
-33.82
-29.65
-25.74
-22.86
-21.13
-19.87
-18.13
-15.20
-11.00
-6.21
-1.88
1.06
2.28
2.13
1.45
1.14
1.83
3.67
6.40
9.53
12.59
15.17
17.02
18.02
18.11
17.30
15.69
13.48
10.99
8.55
6.47
4.91
3.96
3.53
3.46
3.53
3.55
3.40
3.08
2.67
2.25
1.90
1.59
1.22
0.74
0.10
-0.68
-1.52
-2.31
-2.94
-3.28
-3.20
-2.66
-1.67
-0.41
0.89
1.96
2.65
2.97
3.02
2.97
2.96
3.06
3.31
3.70
4.20
4.71
5.03
4.96
4.38
3.36
2.21
1.43
1.53
2.83
5.33
8.78
12.72
16.65
20.10
22.68
24.13
24.28
23.15
20.95
18.03
14.87
11.83
9.18
6.95
5.11
3.55
2.16
0.81
-0.73
-2.71
-5.34
-8.55
-11.97
-14.97
-16.91
-17.44
-16.70
-15.25
-13.80
-12.88
-12.58
-12.53
-12.16
-11.01
-8.95
-6.21
-3.24
-0.47
1.83
3.63
4.98
5.93
6.41
6.35
5.78
4.89
3.99
3.43
3.36
3.72
4.25
4.69
4.87
4.82
4.70
4.65
4.71
4.84
4.90
4.83
4.63
4.35
4.01
3.49
2.53
0.85
-1.66
-4.82
-8.18
-11.16
-13.33
-14.56
-15.02
-15.02
-14.80
-14.38
-13.60
-12.33
-10.61
-8.76
-7.23
-6.48
-6.65
-7.60
-8.94
-10.25
-11.19
-11.61
-11.55
-11.12
-10.43
-9.54
-8.50
-7.42
-6.37
-5.42
-4.53
-3.54
-2.23
-0.50
1.54
3.56
5.08
5.68
5.19
3.71
1.64
-0.51
-2.27
-3.34
-3.58
-3.02
-1.80
-0.15
1.68
3.42
4.80
5.64
5.89
5.61
5.01
4.33
3.77
3.46
3.40
3.57
3.87
4.23
4.57
4.84
5.02
5.14
5.24
5.35
5.54
5.78
6.08
6.39
6.67
6.87
6.89
6.61
5.95
4.96
3.82
2.83
2.28
2.30
2.85
3.69
4.58
5.38
6.09
6.91
8.03
9.55
11.42
13.47
15.46
17.14
18.31
18.79
18.48
17.39
15.61
13.28
10.60
7.72
4.80
1.94
-0.76
-3.29
-5.66
-7.96
-10.24
-12.49
-14.60
-16.35
-17.57
-18.20
-18.32
-18.04
-17.46
-16.56
-15.25
-13.45
-11.20
-8.67
-6.08
-3.71
-1.72
-0.19
0.88
1.59
2.07
2.44
2.82
3.30
3.88
4.55
5.20
5.78
6.21
6.49
6.60
6.59
6.45
6.22
5.89
5.49
5.03
4.52
3.92
3.24
2.47
1.68
0.91
0.25
-0.26
-0.60
-0.76
-0.71
-0.43
0.13
0.97
2.05
3.22
4.32
5.20
5.74
5.91
5.74
5.31
4.74
4.10
3.47
2.85
2.27
1.73
1.28
0.94
0.70
0.55
0.44
0.33
0.22
0.14
0.13
0.21
0.32
0.39
0.31
0.06
-0.34
-0.77
-1.11
-1.27
-1.20
-0.88
-0.35
0.36
1.17
1.96
2.64
3.07
3.13
2.74
1.87
0.52
-1.25
-3.29
-5.41
-7.37
-8.93
-9.95
-10.40
-10.37
-10.01
-9.46
-8.84
-8.23
-7.70
-7.33
-7.18
-7.26
-7.55
-7.89
-8.12
-8.08
-7.69
-6.96
-5.93
-4.67
-3.14
-1.31
0.83
3.15
5.43
7.39
8.85
9.73
10.10
10.05
9.63
8.80
7.52
5.84
3.94
2.08
0.47
-0.82
-1.86
-2.74
-3.50
-4.09
-4.42
-4.40
-4.07
-3.53
-2.99
-2.61
-2.45
-2.46
-2.54
-2.54
-2.39
-2.11
-1.77
-1.49
-1.38
-1.42
-1.54
-1.58
-1.40
-0.97
-0.28
0.54
1.37
2.10
2.61
2.80
2.59
2.00
1.08
-0.05
-1.22
-2.28
-3.12
-3.72
-4.11
-4.35
-4.57
-4.84
-5.19
-5.61
-5.97
-6.15
-6.06
-5.73
-5.25
-4.76
-4.35
-4.05
-3.75
-3.34
-2.67
-1.67
-0.33
1.32
3.20
5.22
7.31
9.36
11.23
12.78
13.80
14.15
13.80
12.83
11.47
10.03
8.71
7.62
6.71
5.83
4.93
4.00
3.18
2.56
2.16
1.89
1.57
1.11
0.52
-0.07
-0.49
-0.67
-0.67
-0.68
-0.87
-1.31
-1.89
-2.39
-2.60
-2.34
-1.65
-0.61
0.59
1.76
2.79
3.62
4.22
4.63
4.83
4.81
4.53
4.02
3.35
2.63
2.02
1.63
1.47
1.52
1.70
1.97
2.27
2.55
2.74
2.72
2.44
1.84
1.00
0.02
-0.99
-1.97
-2.91
-3.82
-4.67
-5.37
-5.80
-5.88
-5.59
-5.04
-4.40
-3.79
-3.30
-2.87
-2.40
-1.84
-1.15
-0.42
0.17
0.53
0.57
0.35
-0.01
-0.38
-0.64
-0.68
-0.46
0.01
0.66
1.40
2.14
2.83
3.46
4.07
4.67
5.20
5.58
5.69
5.44
4.84
3.97
2.92
1.82
0.74
-0.25
-1.07
-1.64
-1.89
-1.80
-1.43
-0.87
-0.23
0.43
1.05
1.59
1.98
2.13
1.98
1.48
0.72
-0.17
-1.03
-1.72
-2.23
-2.64
-3.09
-3.68
-4.46
-5.29
-6.03
-6.51
-6.61
-6.35
-5.80
-5.12
-4.44
-3.86
-3.44
-3.19
-3.11
-3.16
-3.30
-3.39
-3.31
-2.89
-2.07
-0.87
0.53
1.88
2.98
3.75
4.20
4.48
4.68
4.88
5.07
5.15
5.06
4.76
4.24
3.55
2.75
1.91
1.09
0.30
-0.43
-1.13
-1.80
-2.43
-3.05
-3.66
-4.33
-5.04
-5.78
-6.41
-6.80
-6.84
-6.58
-6.18
-5.85
-5.77
-5.93
-6.17
-6.23
-5.90
-5.11
-3.96
-2.68
-1.47
-0.44
0.39
1.07
1.62
1.98
2.02
1.64
0.85
-0.21
-1.31
-2.20
-2.74
-2.95
-3.04
-3.27
-3.83
-4.77
-5.92
-6.97
-7.66
-7.82
-7.55
-7.07
-6.67
-6.54
-6.68
-6.96
-7.21
-7.31
-7.27
-7.19
-7.11
-7.00
-6.74
-6.10
-4.94
-3.23
-1.08
1.26
3.50
5.39
6.81
7.73
8.17
8.18
7.81
7.08
6.08
4.94
3.88
3.11
2.83
3.12
3.92
5.02
6.18
7.17
7.82
8.08
7.92
7.44
6.74
5.99
5.35
4.92
4.75
4.75
4.78
4.67
4.34
3.78
3.09
2.39
1.83
1.54
1.61
2.07
2.88
3.92
5.03
6.06
6.89
7.48
7.84
7.94
7.76
7.24
6.37
5.21
3.91
2.63
1.50
0.58
-0.15
-0.76
-1.33
-1.94
-2.60
-3.29
-3.98
-4.56
-4.95
-5.10
-5.00
-4.71
-4.35
-4.01
-3.76
-3.58
-3.42
-3.22
-2.98
-2.71
-2.41
-2.02
-1.44
-0.58
0.62
2.06
3.58
4.94
5.96
6.55
6.75
6.67
6.45
6.20
5.91
5.49
4.82
3.83
2.54
1.11
-0.26
-1.40
-2.26
-2.90
-3.44
-3.94
-4.36
-4.62
-4.64
-4.45
-4.17
-3.95
-3.91
-4.04
-4.20
-4.23
-4.05
-3.65
-3.14
-2.61
-2.12
-1.62
-1.04
-0.31
0.56
1.51
2.45
3.33
4.12
4.78
5.29
5.57
5.61
5.43
5.09
4.67
4.17
3.56
2.79
1.84
0.76
-0.35
-1.45
-2.50
-3.53
-4.55
-5.45
-6.12
-6.43
-6.39
-6.10
-5.79
-5.66
-5.84
-6.31
-6.92
-7.42
-7.54
-7.08
-5.96
-4.25
-2.19
-0.09
1.76
3.19
4.16
4.80
5.24
5.61
5.98
6.33
6.62
6.75
6.66
6.30
5.74
5.06
4.43
3.94
3.59
3.34
3.06
2.71
2.30
1.89
1.55
1.26
1.00
0.72
0.39
0.01
-0.41
-0.95
-1.67
-2.63
-3.80
-4.99
-5.96
-6.44
-6.25
-5.36
-3.87
-2.00
0.01
1.94
3.61
4.92
5.88
6.51
6.86
6.99
6.89
6.59
6.08
5.36
4.45
3.35
2.06
0.62
-0.90
-2.42
