1563378605.00
64.000000
-0.00
-0.00
-0.00
-0.00
-0.00
-0.00
-0.00
-0.00
-0.00
-0.00
0.00
0.01
0.01
-0.00
-0.03
-0.05
-0.05
0.00
0.13
0.36
0.66
1.01
1.37
1.72
2.06
2.40
2.79
3.25
3.80
4.43
5.08
5.71
6.31
6.89
7.49
8.18
8.99
9.98
11.08
12.17
13.16
14.02
14.83
15.75
17.01
18.73
21.10
23.91
26.89
29.75
32.37
34.86
37.56
40.90
45.14
50.60
56.87
63.46
69.85
75.82
81.52
87.50
94.38
102.55
112.40
123.32
134.56
145.43
155.59
165.32
175.28
186.70
197.98
211.06
226.30
243.85
262.79
280.64
293.48
296.87
287.30
263.44
227.09
181.63
131.30
79.59
28.66
-20.60
-67.81
-112.64
-154.77
-193.91
-231.11
-267.88
-305.35
-343.08
-378.52
-407.40
-425.14
-428.58
-416.75
-391.50
-356.29
-315.14
-272.19
-231.20
-195.06
-165.33
-141.82
-122.48
-104.47
-85.28
-63.96
-41.49
-20.00
-1.43
13.68
26.32
38.47
51.64
66.18
81.16
95.14
107.11
116.89
124.62
129.65
130.01
122.63
105.23
78.17
45.39
13.16
-12.78
-30.20
-41.55
-52.55
-69.18
-94.54
-127.61
-164.44
-200.49
-232.93
-261.16
-285.99
-307.34
-323.93
-333.42
-333.50
-323.04
-302.42
-273.28
-237.40
-195.88
-148.44
-94.16
-32.51
35.53
106.85
176.66
239.30
289.86
324.47
342.61
345.93
337.07
318.24
290.30
253.04
205.51
147.76
80.52
6.22
-70.55
-142.83
-202.01
-241.11
-255.00
-242.64
-207.79
-157.89
-101.50
-45.99
3.85
45.76
78.97
103.30
118.41
124.37
122.30
114.70
105.17
96.55
89.64
82.64
71.57
51.15
16.51
-34.74
-100.65
-174.22
-244.05
-296.74
-320.49
-309.02
-264.57
-198.10
-126.50
-67.39
-33.19
-27.17
-42.83
-67.04
-85.17
-86.34
-66.34
-27.79
21.92
73.89
120.56
157.20
182.28
196.83
203.81
207.37
212.18
222.44
240.99
268.67
303.75
342.21
378.70
407.93
425.79
431.44
426.12
412.27
392.69
369.19
342.30
311.61
276.52
236.64
192.43
145.09
96.14
47.25
-0.84
-48.64
-98.08
-152.05
-212.98
-280.75
-351.70
-418.93
-473.96
-510.63
-527.57
-528.72
-519.79
-507.37
-495.67
-485.60
-478.15
-471.99
-465.98
-459.86
-452.52
-443.17
-430.86
-414.24
-392.53
-365.16
-330.95
-288.64
-236.68
-173.44
-97.57
-8.50
93.33
205.04
320.50
430.87
525.52
594.77
632.86
639.69
620.60
586.65
547.45
509.02
473.61
440.80
409.47
379.13
350.22
322.74
296.99
272.44
248.26
223.47
197.11
168.57
137.41
103.11
64.70
21.11
-28.26
-81.58
-133.49
-175.95
-201.12
-205.07
-190.26
-164.99
-139.86
-123.50
-119.08
-124.07
-132.70
-139.33
-140.92
-137.06
-128.75
-116.84
-101.81
-84.37
-66.37
-50.88
-41.07
-38.70
-42.78
-49.68
-54.39
-52.80
-43.47
-28.36
-12.00
0.43
5.42
2.53
-5.63
-14.81
-21.20
-22.83
-19.98
-14.35
-7.75
-1.20
5.21
11.70
17.98
22.87
24.60
21.89
15.00
6.15
-1.31
-4.34
-1.85
4.74
12.21
17.21
17.98
14.98
10.35
6.31
3.80
1.98
-0.90
-6.02
-12.76
-18.75
-21.07
-17.89
-9.59
1.23
10.96
16.62
17.14
13.68
8.73
4.79
3.09
3.10
3.23
2.06
-0.65
-3.67
-4.99
-3.11
1.96
8.45
13.61
15.15
12.53
7.31
2.35
0.13
1.38
4.61
7.06
6.37
2.05
-4.12
-9.09
-10.31
-7.20
-1.59
3.31
4.63
1.36
-5.09
-11.82
-16.01
-16.44
-13.96
-10.78
-8.95
-9.09
-10.01
-9.55
-6.08
0.14
6.89
11.16
10.80
5.64
-2.58
-11.41
-19.24
-26.05
-33.18
-42.02
-52.62
-62.94
-69.25
-67.67
-56.04
-35.28
-9.48
15.47
34.22
44.12
46.20
44.46
43.59
46.50
52.89
59.67
62.91
60.11
51.48
39.70
28.29
19.85
15.04
12.82
11.62
10.61
10.13
11.16
14.17
18.19
20.75
18.97
11.06
-2.35
-17.99
-31.01
-37.08
-34.38
-24.47
-11.60
-0.50
5.81
7.31
6.39
5.92
7.27
9.57
10.64
8.80
4.36
-0.41
-2.56
-0.40
5.59
13.07
19.46
23.53
26.01
28.81
33.60
40.59
48.19
53.98
55.93
53.65
48.84
44.53
43.71
47.82
56.01
65.53
73.31
77.20
77.02
74.68
72.99
74.34
79.67
88.09
96.86
102.07
98.56
81.59
48.74
1.69
-53.53
-108.24
-154.56
-188.63
-210.54
-224.99
-238.23
-254.35
-273.33
-291.44
-303.64
-306.10
-299.32
-283.54
-257.96
-220.21
-167.86
-100.94
-24.09
53.17
119.31
164.06
182.98
178.65
159.26
134.54
111.33
91.06
70.40
44.49
10.88
-28.12
-66.22
-95.80
-111.05
-109.84
-93.57
-65.53
-29.17
12.32
54.80
91.44
112.98
110.90
82.10
32.54
-22.86
-65.16
-79.33
-61.00
-18.64
30.39
68.20
84.33
79.20
61.88
43.75
32.45
29.07
29.74
29.65
26.51
21.71
18.51
19.51
24.91
32.65
39.95
44.99
47.49
48.36
48.86
49.83
51.20
51.94
50.58
45.81
37.35
26.50
15.87
8.17
4.75
4.76
5.65
4.76
0.97
-4.68
-9.84
-12.51
-12.28
-10.48
-9.04
-9.22
-10.74
-12.19
-12.10
-9.96
-6.57
-3.41
-1.76
-1.84
-2.76
-3.03
-1.51
1.82
5.74
8.31
8.05
4.85
0.16
-3.66
-4.63
-2.35
1.73
5.13
5.78
3.29
-0.86
-4.21
-4.95
-2.95
0.19
2.25
1.85
-0.71
-3.77
-5.33
-4.45
-1.72
1.06
2.06
0.45
-3.00
-6.35
-7.56
-5.67
-1.35
3.30
5.86
4.92
0.95
-3.79
-6.41
-5.04
0.03
6.33
10.57
10.52
6.34
0.46
-3.93
-4.74
-2.15
1.63
3.82
2.82
-0.93
-5.34
-7.98
-7.58
-4.66
-1.09
1.13
1.01
-0.89
-2.95
-3.42
-1.59
1.93
5.43
7.12
6.19
3.19
-0.22
-2.27
-2.11
-0.27
1.71
2.17
0.27
-3.52
-7.72
-10.58
-10.91
-8.64
-4.69
-0.59
2.29
3.24
2.57
1.22
0.26
0.23
0.81
1.11
0.36
-1.31
-2.82
-2.66
-0.14
4.05
7.91
9.23
7.00
2.08
-3.28
-6.79
-7.48
-6.20
-4.91
-5.23
-7.36
-9.87
-10.64
-8.20
-2.72
3.92
9.05
10.55
8.00
2.81
-2.43
-5.30
-4.87
-2.08
0.86
1.89
0.43
-2.23
-3.68
-1.89
3.35
10.22
15.74
17.48
14.83
9.21
3.22
-0.95
-2.45
-2.02
-1.27
-1.57
-3.30
-5.71
-7.29
-6.66
-3.34
1.88
7.15
10.33
10.09
6.56
1.43
-2.91
-4.66
-3.63
-1.18
0.62
0.36
-1.91
-4.75
-6.38
-5.88
-3.64
-1.08
0.31
-0.29
-2.65
-5.84
-8.83
-10.96
-12.02
-12.13
-11.51
-10.37
-8.91
-7.40
-6.16
-5.60
-6.05
-7.66
-10.15
-12.69
-14.12
-13.46
-10.64
-6.84
-4.31
-5.23
-10.44
-18.23
-24.26
-23.11
-10.70
12.99
42.53
67.87
77.54
63.16
23.40
-34.58
-97.07
-148.54
-176.98
-177.55
-153.22
-112.48
-65.59
-21.38
14.60
40.25
56.16
64.63
68.72
71.38
74.65
79.20
83.98
86.78
85.34
78.90
68.92
58.73
52.22
51.94
57.96
67.87
78.07
85.44
88.65
88.37
86.25
83.94
82.27
81.12
79.81
77.67
74.20
68.75
60.64
49.04
33.55
14.40
-7.49
-30.90
-54.79
-78.66
-102.86
-128.00
-154.49
-181.47
-206.26
-224.03
-229.38
-218.97
-194.03
-161.22
-130.36
-109.76
-102.07
-102.85
-103.07
-93.92
-71.66
-38.80
-1.49
34.28
65.06
89.14
104.12
105.68
89.80
57.32
17.19
-14.93
-23.18
0.53
51.90
115.82
173.48
211.01
224.46
219.21
204.70
188.97
175.35
163.08
149.80
133.70
113.83
89.01
56.86
14.65
-38.53
-98.89
-156.95
-199.51
-213.63
-192.18
-137.59
-62.18
15.28
75.41
104.09
96.16
56.03
-4.58
-70.40
-126.64
-161.98
-170.34
-151.52
-110.48
-56.50
-1.17
43.95
70.48
75.74
63.38
41.30
17.82
-1.98
-18.13
-34.55
-55.43
-82.01
-111.03
-136.16
-151.63
-154.45
-144.91
-124.68
-94.80
-55.51
-8.35
41.17
83.24
107.26
107.62
88.09
61.70
45.08
50.43
79.03
120.55
157.78
174.37
161.61
120.53
60.20
-6.66
-67.74
-113.62
-137.93
-137.14
-110.58
-60.87
4.81
74.55
132.98
164.22
157.00
109.18
30.47
-59.34
-135.85
-178.03
-175.37
-131.27
-61.25
12.66
68.98
92.61
78.33
31.11
-36.00
-105.67
-160.48
-187.01
-178.55
-136.74
-71.19
2.24
65.06
100.73
99.73
63.04
2.76
-61.23
-107.69
-121.21
-97.42
-43.83
23.96
88.67
137.40
164.61
171.42
162.69
143.96
119.38
91.27
60.76
29.06
-2.19
-30.74
-54.17
-70.31
-77.97
-77.35
-70.13
-58.93
-46.33
-33.60
-20.59
-6.54
8.85
24.40
37.83
47.04
51.60
53.41
55.75
61.68
72.48
87.09
102.90
117.08
128.09
135.94
141.58
145.77
148.50
149.06
146.60
140.81
132.20
121.78
110.41
98.14
83.80
64.97
38.48
1.52
-46.72
-103.52
-162.30
-213.65
-247.84
-257.58
-240.20
-198.49
-139.84
-74.41
-13.13
33.94
59.00
57.77
30.65
-16.83
-74.55
-129.91
-171.07
-189.65
-182.45
-151.19
-101.42
-41.30
19.21
69.33
98.99
101.80
78.11
36.66
-7.01
-35.89
-38.40
-13.82
27.35
68.17
93.09
94.48
74.76
42.99
9.00
-21.13
-46.36
-67.90
-85.52
-95.50
-91.77
-70.36
-33.41
9.31
43.36
55.51
39.63
-0.46
-53.02
-103.60
-141.20
-161.88
-168.31
-165.84
-157.99
-143.82
-119.34
-81.68
-32.85
18.93
61.77
85.13
84.97
66.21
41.57
26.46
32.70
63.96
114.31
171.24
220.83
252.53
261.57
248.15
214.95
165.38
103.35
34.56
-32.37
-86.36
-116.92
-118.15
-91.74
-47.27
1.22
39.84
58.78
54.36
28.72
-12.04
-59.46
-104.01
-136.66
-150.36
-142.20
-114.78
-75.92
-36.53
-6.60
8.56
10.03
3.74
-2.57
-2.85
5.83
23.15
46.99
74.62
102.57
127.44
143.63
144.42
124.45
82.22
23.22
-41.51
-98.47
-136.34
-148.98
-136.53
-103.62
-56.76
-2.31
54.54
109.22
158.21
198.66
229.51
251.13
264.18
268.27
262.02
246.83
225.77
204.47
189.10
183.62
187.13
193.27
193.03
179.19
149.01
104.46
50.88
-6.01
-62.31
-116.35
-167.80
-216.06
-259.62
-296.38
-325.14
-346.06
-360.88
-372.27
-382.46
-392.62
-402.39
-410.05
-413.44
-411.02
-402.33
-388.12
-370.94
-352.53
-333.87
-315.06
-295.52
-274.53
-251.80
-227.58
-202.68
-178.07
-154.31
-131.53
-109.40
-87.35
-65.06
-42.76
-21.25
-1.70
14.91
28.33
39.07
48.24
57.04
66.21
75.41
83.65
89.71
92.81
93.23
92.24
91.65
93.03
96.97
102.82
109.08
114.39
118.19
121.41
126.02
134.08
147.07
165.57
189.79
220.11
256.66
298.05
340.08
375.88
397.90
401.19
385.80
356.83
321.75
286.63
253.64
221.37
187.64
152.43
118.86
91.26
71.99
59.28
47.93
32.79
12.61
-8.45
-22.60
-22.44
-5.35
24.70
58.22
83.57
91.39
78.02
46.76
6.49
-31.53
-57.92
-68.58
-65.95
-57.75
-53.74
-62.08
-86.65
-126.10
-174.75
-224.42
-266.49
-293.86
-302.17
-290.38
-260.62
-217.57
-167.39
-116.46
-69.82
-29.77
4.58
36.80
71.56
112.36
159.71
210.85
261.02
305.57
342.88
374.59
403.78
432.73
461.20
486.42
504.82
513.40
511.11
498.39
476.01
444.50
404.17
355.85
301.22
244.81
189.98
139.03
92.95
51.33
12.64
-24.91
-62.66
-101.01
-139.25
-176.23
-210.49
-240.93
-267.29
-290.04
-310.14
-327.71
-342.71
-354.98
-364.81
-372.83
-379.97
-387.13
-394.48
-401.19
-405.29
-404.39
-396.61
-381.83
-361.97
-340.56
-321.58
-307.96
-300.67
-298.42
-298.81
-299.26
-297.63
-292.18
-281.13
-263.04
-237.95
-208.55
-179.71
-156.69
-142.09
-133.89
-125.84
-110.47
-82.98
-42.56
6.46
57.85
106.97
152.86
197.60
243.74
291.74
339.25
382.03
415.85
438.34
449.06
449.09
439.98
423.25
400.09
372.74
341.63
306.25
266.09
220.53
168.98
110.46
44.08
-29.88
-108.34
-183.13
-243.84
-281.28
-291.66
-278.40
-251.18
-222.00
-200.39
-190.31
-190.03
-196.17
-203.41
-207.48
-205.67
-196.65
-179.75
-154.48
-120.88
-80.02
-32.94
17.13
64.85
106.28
138.69
160.64
172.03
173.54
166.53
153.06
136.28
119.88
107.75
102.12
102.67
106.65
110.19
110.33
106.50
100.66
96.05
95.51
99.16
104.26
106.39
101.23
86.23
61.30
28.20
-10.23
-50.57
-89.02
-121.25
-142.63
-149.94
-143.30
-127.77
-112.26
-105.92
-113.41
-131.70
-150.97
-159.19
-148.85
-121.50
-87.06
-58.38
-43.77
-42.20
-44.54
-39.64
-21.63
5.94
32.27
45.85
41.41
23.13
1.78
-11.76
-12.63
-4.19
4.94
6.81
-0.86
-13.70
-23.75
-24.76
-15.75
-1.70
9.51
11.41
2.08
-15.17
-34.09
-48.50
-55.04
-54.22
-49.21
-43.63
-39.47
-35.93
-29.82
-17.77
1.56
25.86
49.37
65.39
69.66
63.10
51.64
43.28
43.42
51.73
61.96
65.36
55.98
34.35
7.67
-14.01
-22.95
-17.54
-2.84
12.62
21.50
21.43
15.47
10.06
10.88
19.43
32.04
41.78
42.71
33.73
19.97
10.32
12.25
26.88
47.15
61.16
58.81
38.37
8.22
-17.20
-25.48
-13.47
10.78
32.70
39.98
29.58
9.41
-7.30
-10.38
0.72
16.96
25.72
19.08
-0.92
-23.90
-37.85
-36.66
-23.59
-8.58
-1.49
-6.07
-18.11
-28.79
-30.52
-21.44
-6.20
7.04
11.22
4.08
-10.97
-26.81
-36.43
-36.18
-27.58
-16.47
-9.87
-12.22
-22.74
-35.69
-43.47
-40.73
-27.59
-9.34
6.48
14.21
12.88
6.15
-0.41
-2.52
0.64
6.50
11.26
12.22
9.45
5.47
3.39
4.99
9.45
13.95
15.32
12.30
6.38
1.10
-0.07
4.08
11.60
18.47
20.88
17.53
10.40
3.65
1.14
4.26
11.20
18.17
21.50
19.69
13.88
7.08
2.20
0.55
1.34
2.48
2.06
-0.58
-4.45
-7.68
-8.68
-6.97
-3.43
0.30
2.66
2.94
1.47
-0.60
-2.06
-2.20
-1.20
0.07
0.68
0.24
-0.77
-1.21
-0.03
2.96
6.72
9.38
9.22
5.77
0.31
-4.46
-5.80
-2.36
4.92
13.01
18.25
18.20
13.00
5.39
-0.76
-2.73
-0.52
3.29
5.19
3.24
-1.61
-6.00
-6.51
-2.06
4.98
10.06
9.38
2.46
-7.34
-14.67
-15.45
-9.40
-0.16
6.89
7.84
2.50
-5.86
-12.48
-14.09
-10.63
-4.81
-0.41
0.03
-3.41
-8.37
-11.51
-10.42
-4.86
2.91
9.35
11.35
8.07
1.46
-4.73
-7.01
-4.18
1.91
7.44
9.14
6.37
1.50
-1.55
0.04
6.16
13.73
18.52
17.69
11.43
2.71
-4.25
-6.32
-2.89
3.89
10.15
12.11
7.83
-1.88
-13.64
-22.97
-26.27
-22.47
-13.50
-3.10
5.29
10.24
12.73
14.64
16.83
17.86
14.74
5.08
-10.54
-27.90
-40.66
-43.53
-35.03
-18.29
0.46
15.01
21.91
21.69
17.77
14.15
12.96
13.67
13.84
11.20
5.58
-0.65
-3.91
-1.70
5.43
13.87
18.75
16.69
7.60
-5.34
-17.61
-25.66
-28.49
-27.37
-24.44
-21.17
-17.66
-12.99
-6.33
2.29
11.60
19.50
23.95
23.80
19.40
12.66
6.29
2.66
2.52
4.67
6.60
6.03
2.48
-2.33
-5.46
-4.58
0.34
6.91
11.65
12.15
8.46
3.01
-1.03
-1.76
0.24
2.45
2.10
-2.02
-8.69
-14.99
-17.93
-16.17
-10.57
-3.67
1.83
4.47
4.56
3.64
3.36
4.36
5.89
6.39
4.54
0.21
-5.29
-9.75
-11.21
-8.84
-3.48
2.72
7.16
7.91
4.60
-1.28
-7.04
-9.96
-8.64
-3.85
1.85
5.54
5.70
3.23
0.91
1.51
5.72
11.52
15.16
13.72
7.09
-1.69
-8.20
-9.31
-5.03
1.56
6.37
6.67
2.71
-2.67
-5.84
-4.69
0.21
5.95
9.01
7.42
1.93
-4.25
-7.25
-4.83
2.13
9.93
14.16
12.20
4.99
-3.60
-9.08
-9.13
-4.88
-0.03
1.69
-1.07
-6.59
-11.32
-12.26
-8.71
-2.58
2.90
5.14
3.49
-0.57
-4.50
-6.06
-4.57
-1.00
2.68
4.65
4.30
2.49
0.96
1.19
3.37
6.10
7.24
5.20
0.12
-6.03
-10.41
-10.92
-7.27
-1.21
4.33
6.70
4.70
-0.93
-7.94
-13.63
-15.93
-14.22
-9.41
-3.59
0.93
2.68
1.66
-0.77
-2.73
-2.97
-1.73
-0.37
-0.44
-2.30
-4.69
-5.54
-3.46
0.97
5.34
6.66
3.39
-3.59
-11.24
-16.00
-15.64
-10.51
-3.24
2.68
4.61
2.24
-2.50
-6.56
-7.49
-4.96
-0.91
1.68
0.75
-3.33
-7.72
-8.84
-4.61
4.03
13.29
18.56
17.04
9.75
1.24
-2.60
2.13
14.88
30.56
42.23
44.99
38.95
29.23
22.84
24.57
34.00
45.48
51.41
46.54
31.32
11.72
-3.79
-8.73
-2.01
11.48
23.63
27.42
20.84
7.74
-4.65
-10.32
-8.14
-2.45
-0.08
-5.75
-18.76
-33.43
-42.59
-42.04
-32.75
-19.94
-9.57
-5.01
-5.43
-6.94
-5.28
1.33
10.98
18.77
19.43
10.32
-6.52
-24.74
-36.69
-37.46
-27.76
-13.73
-3.59
-3.05
-12.23
-25.88
-36.77
-39.91
-35.04
-26.05
-18.14
-14.51
-14.90
-16.40
-15.65
-11.05
-3.58
4.06
9.13
10.58
9.53
8.52
9.89
14.37
20.61
25.85
27.46
24.43
17.83
10.31
4.69
2.56
3.55
5.59
6.08
3.41
-2.08
-8.05
-11.34
-9.69
-3.14
5.87
13.65
17.24
15.87
11.11
5.74
1.95
0.18
-0.82
-2.79
-6.60
-11.50
-15.41
-16.16
-12.77
-6.04
1.78
7.99
10.64
9.32
5.11
-0.04
-4.30
-6.69
-7.31
-6.98
-6.56
-6.47
-6.42
-5.83
-4.35
-2.32
-0.71
-0.50
-1.97
-4.39
-6.34
-6.53
-4.73
-2.02
-0.33
-1.27
-5.07
-10.35
-14.81
-16.60
-15.42
-12.73
-10.82
-11.36
-14.24
-17.44
-17.80
-12.91
-2.50
11.13
23.98
31.70
30.81
19.42
-2.63
-33.67
-70.33
-107.81
-140.62
-163.92
-174.97
-173.97
-163.33
-145.94
-123.27
-95.43
-62.62
-26.91
7.09
33.87
49.96
56.54
58.27
62.60
75.95
100.34
132.33
164.78
190.53
205.60
210.03
206.41
197.81
185.95
171.06
152.71
131.13
107.64
84.60
64.32
48.18
36.34
27.71
20.54
13.25
5.10
-3.61
-11.81
-18.39
-22.73
-24.93
-25.70
-26.10
-26.98
-28.69
-30.93
-33.08
-34.51
-34.89
-34.28
-33.08
-31.79
-30.80
-30.26
-30.03
-29.80
-29.26
-28.27
-26.83
-25.09
-23.25
-21.51
-19.96
-18.61
-17.37
-16.13
-14.79
-13.26
-11.57
-9.75
-7.92
-6.21
-4.72
-3.43
-2.27
-1.01
0.67
2.73
5.08
7.43
9.47
10.99
11.98
12.73
13.73
15.43
18.02
21.31
24.69
27.36
28.70
28.51
26.98
24.76
22.42
20.10
17.29
13.14
6.52
-3.06
-15.07
-27.96
-39.43
-47.42
-50.59
-48.88
-43.33
-35.58
-27.45
-20.77
-17.37
-18.35
-23.50
-30.66
-35.98
-35.25
-26.09
-9.51
10.41
27.09
35.52
34.21
25.48
13.78
3.19
-4.36
-9.13
-12.47
-15.41
-17.70
-18.33
-16.53
-12.62
-7.89
-3.96
-2.13
-2.64
-4.62
-6.65
-7.56
-6.61
-4.09
-0.96
1.61
2.78
2.44
1.09
-0.34
-1.03
-0.55
0.90
2.74
4.32
5.15
5.16
4.62
3.99
3.71
3.98
4.72
5.67
6.51
7.05
7.22
7.15
6.99
6.91
6.98
7.20
7.46
7.72
7.91
8.02
8.08
8.11
8.14
8.17
8.20
8.22
8.22
8.20
8.14
8.06
7.92
7.74
7.48
7.15
6.70
6.12
5.40
4.54
3.57
2.50
1.33
0.02
-1.51
-3.32
-5.49
-8.04
-10.95
-14.14
-17.56
-21.23
-25.19
-29.56
-34.47
-39.98
-46.10
-52.74
-59.75
-67.03
-74.60
-82.60
-91.27
-100.82
-111.33
-122.61
-134.17
-145.27
-155.22
-163.47
-169.67
-173.60
-174.98
-173.33
-167.85
-157.87
-142.36
-120.82
-93.62
-62.20
-28.83
3.98
34.20
60.80
83.83
104.07
122.23
138.38
151.73
161.02
165.25
164.42
159.87
153.92
148.97
146.56
147.06
149.97
154.47
159.62
164.14
165.69
161.04
147.18
123.06
90.94
56.07
24.83
1.94
-11.34
-17.25
-19.67
-21.86
-24.87
-27.58
-28.04
-25.23
-20.28
-16.23
-16.62
-23.33
-35.12
-47.47
-54.48
-51.95
-39.97
-23.54
-10.22
-6.11
-12.21
-23.58
-32.27
-32.14
-22.59
-8.80
1.60
3.34
-3.30
-12.93
-18.50
-15.78
-5.77
5.97
12.89
11.47
3.24
-6.26
-10.92
-7.54
2.39
13.76
20.61
19.14
9.60
-4.04
-16.13
-22.05
-20.32
-13.20
-5.53
-2.15
-5.42
-13.72
-22.20
-25.49
-20.85
-9.97
1.77
8.34
6.83
-0.70
-8.42
-10.30
-3.98
7.67
18.22
21.81
16.63
6.22
-2.78
-4.71
1.77
12.91
22.22
24.21
17.39
4.94
-7.29
-14.09
-13.53
-7.59
-0.77
2.62
0.75
-4.84
-10.16
-11.04
-5.65
4.13
13.35
16.48
10.62
-2.30
-16.30
-24.30
-22.20
-11.48
1.46
9.10
7.23
-2.44
-13.43
-18.58
-14.47
-3.42
8.19
14.04
11.78
4.25
-2.68
-4.02
1.19
9.34
14.66
12.75
3.51
-8.75
-17.74
-18.58
-10.77
1.65
12.37
16.39
12.79
5.10
-1.06
-1.54
3.85
11.29
15.47
12.97
4.34
-6.19
-13.25
-13.38
-6.76
3.11
11.41
14.37
10.93
2.98
-5.64
-10.99
-10.76
-5.52
1.55
6.12
5.19
-1.09
-9.28
-14.47
-13.41
-6.66
1.56
5.96
3.58
-4.16
-12.15
-14.85
-9.82
0.54
10.39
14.02
9.23
-1.30
-11.62
-16.02
-12.19
-2.29
8.51
14.88
14.19
7.49
-1.34
-7.78
-9.01
-4.99
1.73
7.54
9.69
7.74
3.70
0.92
2.04
7.12
13.08
15.36
10.54
-0.97
-14.57
-23.64
-23.34
-13.91
-0.96
7.66
6.55
-3.85
-17.17
-24.95
-21.88
-9.09
6.47
16.30
15.52
5.81
-5.94
-11.86
-8.12
2.87
14.08
18.20
12.19
-0.64
-12.73
-16.78
-10.24
3.03
14.97
18.12
10.04
-5.17
-19.27
-24.86
-19.51
-7.17
4.26
7.82
1.24
-12.06
-25.32
-32.43
-31.17
-23.91
-15.83
-11.78
-13.90
-21.06
-29.83
-36.71
-39.76
-39.42
-38.13
-39.11
-44.65
-54.91
-67.64
-79.06
-85.95
-87.45
-85.88
-85.58
-90.38
-101.13
-114.85
-126.73
-133.26
-135.03
-136.30
-141.91
-153.53
-167.44
-175.69
-170.35
-148.20
-112.69
-72.70
-37.20
-10.59
9.10
28.20
54.21
91.92
141.49
198.51
255.74
306.38
345.70
371.04
381.01
374.30
348.84
302.49
238.22
159.60
73.56
-9.80
-80.11
-130.17
-158.61
-170.11
-172.85
-174.70
-180.54
-190.02
-198.30
-199.33
-187.31
-158.21
-109.84
-41.21
47.68
154.49
272.49
390.91
495.77
572.91
612.45
612.05
577.56
520.14
450.98
378.53
307.24
238.77
174.25
115.81
65.80
25.26
-5.30
-30.82
-57.74
-91.24
-133.54
-182.90
-233.76
-278.51
-309.92
-323.99
-321.71
-307.42
-288.50
-272.55
-264.09
-262.65
-263.32
-259.11
-245.19
-219.26
-184.31
-145.90
-110.20
-81.70
-61.81
-49.13
-39.82
-29.29
-14.30
5.72
29.02
52.94
75.62
96.42
115.16
131.03
141.95
145.76
141.42
130.08
114.71
98.87
85.25
74.36
65.52
55.76
41.83
21.21
-7.06
-41.62
-78.25
-109.89
-128.08
-125.58
-99.85
-54.75
-0.74
48.26
79.91
87.85
73.33
43.27
6.68
-28.24
-54.81
-67.18
-59.75
-28.16
27.95
102.13
179.88
241.00
266.71
247.59
187.86
103.90
17.55
-52.23
-94.88
-110.03
-106.36
-95.97
-88.37
-87.18
-90.89
-96.15
-101.16
-106.37
-113.49
-123.56
-135.23
-145.41
-151.08
-151.06
-146.67
-141.09
-137.74
-138.84
-144.65
-153.32
-162.04
-168.29
-170.69
-169.26
-164.76
-157.88
-148.78
-137.99
-124.52
-107.49
-86.56
-62.17
-35.26
-6.74
22.76
52.69
82.15
109.78
133.61
151.78
163.32
168.90
170.90
172.90
178.32
189.07
204.80
222.50
237.61
245.58
243.65
231.98
213.73
193.45
174.80
158.55
140.96
116.67
80.76
31.81
-26.55
-85.74
-134.73
-163.42
-165.87
-142.55
-100.47
-52.08
-11.83
8.28
3.03
-23.86
-60.67
-91.71
-103.71
-91.10
-58.75
-19.70
10.87
23.00
16.93
2.90
-4.31
6.37
36.28
75.85
109.62
123.96
113.48
83.07
44.65
11.33
-8.38
-12.61
-5.22
7.36
19.66
28.81
34.84
39.22
42.96
44.74
40.47
25.02
-4.51
-45.64
-90.02
-126.03
-143.54
-138.21
-113.34
-78.79
-47.54
-31.68
-38.88
-69.77
-117.13
-167.45
-205.00
-216.94
-198.02
-152.20
-90.96
-28.56
22.85
56.27
70.17
67.25
53.37
36.53
25.27
25.94
39.95
62.40
83.89
95.74
95.35
88.57
86.28
97.67
123.10
152.26
168.65
158.58
119.62
63.38
11.05
-16.94
-10.65
24.75
71.83
109.93
124.85
114.77
89.09
62.32
45.52
41.10
42.17
37.05
15.49
-25.81
-80.33
-136.08
-176.88
-189.29
-167.59
-116.58
-50.78
9.97
47.10
50.31
21.08
-27.95
-78.54
-114.11
-125.13
-111.11
-79.05
-39.64
-3.81
19.74
26.81
18.59
1.73
-14.01
-19.63
-11.79
4.78
19.07
19.32
0.45
-32.08
-63.74
-78.01
-65.12
-27.63
20.73
61.16
77.90
64.96
28.03
-18.49
-57.65
-76.58
-71.07
-46.11
-14.07
10.09
15.01
-3.05
-39.33
-83.69
-125.94
-160.36
-187.08
-208.69
-228.56
-247.42
-262.47
-268.66
-262.10
-242.82
-217.27
-191.49
-168.98
-149.64
-130.19
-107.07
-78.54
-44.63
-6.40
36.32
85.34
141.39
200.98
255.52
293.42
305.07
287.47
246.34
193.98
144.46
107.58
85.83
75.52
70.64
67.11
64.75
66.17
73.36
84.40
93.03
91.62
76.17
49.50
20.72
0.31
-5.65
1.42
14.41
25.28
30.00
30.19
30.78
35.66
44.46
52.73
54.76
46.96
29.66
6.35
-18.18
-39.36
-53.53
-58.24
-52.82
-39.08
-21.48
-5.31
6.17
14.13
23.86
41.33
68.11
98.06
118.77
117.52
88.47
37.58
-18.67
-60.42
-73.80
-57.24
-20.98
19.01
49.35
64.51
66.92
62.84
57.12
50.19
39.04
20.95
-3.10
-27.16
-42.76
-43.45
-28.30
-2.82
23.51
41.64
46.54
38.61
22.94
6.47
-4.66
-7.20
-0.98
12.57
32.05
57.33
89.58
130.17
178.61
231.19
280.80
318.44
336.29
331.04
305.40
267.01
225.35
188.01
158.47
136.42
119.20
104.17
89.84
75.61
61.28
46.22
29.56
10.85
-9.17
-28.52
-44.29
-54.00
-56.69
-53.66
-48.17
-44.09
-44.03
-48.17
-54.30
-59.03
-59.83
-56.52
-51.20
-47.08
-46.72
-50.82
-58.37
-67.68
-77.63
-88.24
-100.11
-113.44
-127.24
-139.53
-148.36
-153.48
-156.66
-161.41
-171.27
-188.38
-212.56
-241.70
-272.51
-301.27
-324.58
-339.42
-343.65
-336.61
-320.10
-298.30
-276.51
-257.95
-241.72
-223.10
-196.49
-159.44
-115.16
-71.70
-38.01
-20.05
-17.93
-26.76
-40.62
-56.04
-73.36
-95.06
-122.77
-155.35
-189.17
-218.99
-240.03
-249.93
-249.34
-241.52
-230.77
-220.21
-204.64
-177.75
-133.33
-68.01
15.91
109.88
201.51
278.77
333.90
365.09
375.36
372.23
363.86
356.58
353.67
354.67
355.29
349.44
331.68
299.71
256.10
209.26
170.51
149.42
149.77
168.16
195.93
222.79
239.75
241.18
225.95
196.48
156.84
110.98
62.18
13.73
-30.43
-66.43
-91.43
-104.68
-108.17
-105.95
-102.73
-101.94
-104.73
-110.09
-115.83
-119.71
-120.52
-118.66
-115.86
-114.36
-115.75
-120.49
-127.91
-136.60
-145.20
-152.86
-159.63
-166.26
-173.80
-182.84
-193.39
-204.71
-215.53
-224.40
-229.88
-230.82
-226.37
-217.09
-202.55
-182.42
-156.66
-125.76
-90.76
-53.20
-15.00
21.79
55.12
83.40
105.26
119.75
126.35
125.05
116.36
101.22
80.94
57.10
31.52
5.96
-18.01
-39.02
-55.89
-67.58
-73.42
-73.05
-66.53
-54.30
-37.47
-17.67
3.10
22.78
39.84
53.35
63.21
69.97
74.59
78.04
81.03
83.95
85.96
86.76
86.57
86.07
86.07
87.02
88.60
89.62
88.51
84.12
76.49
66.99
58.07
52.40
52.14
58.87
74.07
99.55
137.03
186.99
246.97
310.90
370.02
415.15
439.12
438.34
412.93
365.93
302.50
229.89
157.10
93.99
49.19
27.55
28.38
45.22
67.40
82.99
83.02
64.90
33.46
-0.59
-24.83
-30.22
-14.51
17.40
56.38
93.43
124.39
150.40
175.01
200.20
223.90
240.34
245.16
234.49
207.13
165.07
112.71
55.70
-0.05
-50.17
-92.20
-125.80
-153.58
-179.64
-207.47
-238.51
-272.00
-306.17
-339.71
-372.44
-404.91
-437.44
-468.89
-496.69
-517.87
-530.51
-534.42
-530.92
-521.87
-509.47
-494.23
-474.87
-449.02
-414.36
-369.75
-315.93
-255.49
-192.21
-130.06
-72.09
-19.97
26.15
67.07
103.87
137.28
167.81
195.97
222.56
248.04
272.01
292.52
306.17
309.15
299.00
276.00
243.36
206.27
169.94
137.93
111.56
90.65
75.03
65.31
62.43
66.52
75.84
86.93
96.03
101.01
102.23
102.82
107.35
119.45
140.22
167.91
198.87
229.10
255.32
275.31
287.61
291.34
286.17
272.60
252.26
227.71
201.86
177.03
154.20
132.85
111.77
89.93
67.35
45.36
25.98
10.61
-0.89
-9.89
-20.30
-36.31
-60.70
-93.76
-133.38
-175.81
-216.49
-251.23
-277.08
-293.27
-301.74
-306.88
-314.21
-327.85
-347.83
-368.48
-379.39
-369.19
-331.02
-266.57
-186.78
-108.16
-46.40
-10.33
0.75
-4.91
-15.68
-21.56
-17.59
-4.49
13.94
34.25
55.31
77.91
102.97
129.62
154.55
173.06
181.37
178.41
166.27
149.78
134.36
124.33
121.16
123.14
126.24
126.17
119.94
106.59
87.62
63.93
36.12
5.17
-26.43
-54.14
-72.62
-78.44
-73.19
-63.71
-59.60
-68.30
-91.33
-123.21
-154.13
-174.52
-177.39
-162.33
-133.91
-98.44
-60.56
-22.77
13.31
45.55
71.19
88.28
96.50
98.06
96.62
96.13
98.59
103.31
107.57
108.20
103.59
93.83
81.40
68.27
55.55
42.42
26.47
4.77
-25.28
-64.22
-111.15
-162.05
-210.96
-250.03
-271.22
-269.07
-243.63
-204.14
-161.82
-129.02
-114.60
-120.39
-140.26
-163.50
-179.98
-183.03
-173.29
-154.93
-131.49
-102.52
-64.34
-13.73
47.76
112.35
168.52
206.11
221.64
218.73
205.77
191.36
180.37
172.81
165.55
155.39
141.27
125.29
110.89
100.75
95.52
93.61
92.02
88.13
80.80
70.70
60.13
51.58
46.55
44.97
45.30
45.52
43.91
39.82
33.65
26.64
20.30
16.13
15.45
18.79
24.89
30.44
30.80
20.75
-2.13
-36.11
-75.76
-113.98
-144.51
-163.51
-169.42
-162.07
-142.10
-111.05
-72.37
-31.77
3.93
29.12
41.50
42.92
38.06
31.90
27.70
26.45
27.22
28.55
29.43
29.52
29.06
28.50
28.29
28.75
29.88
31.42
32.83
33.67
33.67
32.95
31.92
31.14
31.16
32.55
35.71
40.57
46.01
49.52
47.96
39.14
23.06
2.38
-18.66
-36.17
-48.33
-55.33
-58.45
-58.28
-54.09
-44.43
-28.43
-6.96
17.12
39.64
56.48
64.07
60.42
45.43
21.22
-7.84
-36.04
-57.75
-69.05
-69.02
-59.96
-46.28
-32.99
-23.95
-20.58
-21.99
-25.84
-29.56
-31.71
-32.58
-33.55
-36.15
-40.64
-44.95
-45.38
-38.18
-21.33
4.23
34.28
61.93
79.73
82.14
68.53
43.29
14.01
-11.52
-28.81
-37.97
-42.29
-45.41
-49.64
-54.69
-58.52
-59.03
-55.14
-46.57
-32.99
-13.83
11.60
41.68
71.31
92.91
99.13
85.95
54.84
12.67
-30.31
-63.52
-78.93
-73.44
-49.51
-15.02
18.88
41.37
45.53
30.63
2.12
-30.45
-57.70
-73.80
-78.34
-75.39
-70.36
-67.26
-66.38
-66.19
-62.60
-52.89
-36.61
-16.08
3.40
16.98
22.08
19.47
12.38
5.33
0.24
-2.50
-3.73
-4.29
-3.72
-0.40
7.15
18.97
33.41
47.36
57.98
63.49
63.93
61.07
57.55
55.27
54.72
55.28
55.53
54.53
52.29
49.84
48.72
50.00
52.74
54.01
50.11
38.12
17.57
-9.20
-37.78
-64.97
-85.55
-96.29
-97.05
-90.55
-80.87
-71.86
-66.08
-64.27
-65.32
-66.36
-64.19
-56.40
-42.17
-22.27
1.30
25.57
47.41
64.55
76.54
84.04
87.78
88.04
85.53
81.87
78.91
77.98
79.71
84.26
91.18
98.84
104.85
108.18
110.02
112.21
115.72
120.45
125.75
130.43
131.42
123.43
101.90
65.51
15.64
-44.44
-109.93
-175.18
-226.80
-248.63
-238.32
-209.57
-177.61
-149.78
-126.28
-104.34
-81.32
-56.47
-33.68
-17.47
-11.76
-16.86
-30.66
-50.49
-73.41
-95.89
-114.06
-116.55
-98.31
-62.25
-17.28
25.62
57.86
76.29
83.56
85.37
86.50
87.02
84.46
77.23
66.31
55.15
48.20
49.09
57.10
68.58
77.57
79.88
75.52
67.69
59.79
53.00
45.67
34.92
19.98
3.16
-10.20
-14.97
-10.00
0.70
11.95
17.26
13.17
1.64
-12.22
-23.90
-33.25
-44.84
-65.09
-97.48
-133.04
-157.79
-161.16
-143.67
-114.12
-82.78
-56.29
-36.69
-22.28
-10.17
1.06
11.18
19.14
24.48
26.37
25.86
23.53
19.71
14.63
7.63
-2.68
-18.07
-37.17
-59.06
-80.44
-95.82
-98.92
-85.42
-55.90
-16.32
24.21
57.16
77.24
84.06
80.86
72.28
62.46
53.89
47.27
42.71
40.78
42.46
47.89
55.51
62.08
63.52
56.47
39.57
14.73
-12.91
-37.21
-53.86
-63.08
-68.41
-73.72
-79.47
-82.57
-77.02
-57.34
-22.24
23.71
70.68
107.10
123.65
120.24
103.93
85.37
73.40
71.43
77.91
83.40
78.72
58.68
23.61
-22.45
-72.25
-117.87
-153.97
-172.29
-171.46
-157.66
-146.43
-141.67
-143.49
-150.07
-159.70
-167.41
-169.92
-165.03
-150.66
-119.26
-73.70
-27.56
6.04
22.60
26.09
21.84
15.31
5.91
-5.06
-14.14
-16.99
-9.16
12.65
47.44
90.22
133.48
170.69
199.93
222.53
241.59
261.02
284.66
316.02
352.43
385.03
402.23
395.31
360.41
299.81
221.33
122.92
22.01
-57.63
-103.45
-119.92
-118.29
-107.80
-93.56
-80.37
-69.01
-58.86
-51.76
-49.84
-53.01
-57.11
-56.09
-39.73
-4.90
43.64
96.20
140.82
171.05
182.17
171.56
139.42
86.87
16.42
-62.57
-137.85
-199.65
-242.65
-265.56
-268.96
-255.28
-231.68
-207.16
-189.06
-181.60
-185.50
-197.31
-210.88
-219.80
-220.70
-217.46
-215.56
-216.89
-219.00
-216.51
-203.30
-175.48
-132.95
-64.84
20.68
102.04
161.86
197.76
216.99
226.47
227.57
217.97
195.87
161.10
119.39
80.65
52.86
35.98
25.85
16.73
4.56
-11.26
-30.32
-49.66
-63.51
-66.15
-54.75
-29.09
7.96
50.32
88.89
114.14
116.54
93.82
53.29
8.43
-24.79
-34.36
-16.98
20.43
63.50
97.61
114.75
114.77
100.72
76.56
44.95
7.28
-35.35
-81.29
-127.66
-169.93
-194.55
-192.73
-165.34
-123.21
-79.30
-42.01
-13.60
7.52
25.15
42.79
60.71
77.02
89.34
96.35
98.37
96.89
93.50
90.63
89.71
89.39
86.79
79.12
64.99
44.70
22.15
0.35
-17.81
-30.44
-37.90
-42.10
-45.40
-49.43
-54.60
-59.98
-64.13
-65.16
-62.06
-55.66
-48.35
-43.13
-42.27
-46.28
-53.50
-61.02
-65.57
-65.08
-59.87
-52.49
-46.56
-45.18
-49.95
-60.52
-74.77
-88.85
-98.15
-97.59
-83.29
-54.54
-15.44
25.05
55.18
64.51
48.56
11.19
-35.93
-77.68
-101.40
-101.50
-80.63
-47.22
-11.72
19.60
43.72
60.91
72.96
81.79
88.29
93.11
97.39
102.71
110.76
122.35
136.72
151.22
161.39
161.97
149.17
123.32
90.10
59.02
38.86
33.15
37.73
42.61
37.29
16.84
-15.10
-48.29
-70.76
-75.72
-64.61
-44.89
-24.93
-9.62
0.95
9.60
18.81
29.37
39.71
47.48
51.28
51.54
50.16
49.44
50.74
53.76
56.92
57.80
54.43
46.06
33.68
19.48
5.92
-5.16
-13.33
-18.92
-23.02
-26.74
-30.88
-35.58
-40.55
-45.43
-48.46
-50.84
-53.33
-56.44
-60.19
-64.38
-68.54
-72.02
-74.35
-75.35
-75.48
-75.06
-74.49
-73.91
-73.61
-73.83
-74.56
-75.69
-76.94
-78.14
-78.81
-79.61
-78.92
-75.89
-70.06
-61.07
-48.85
-33.63
-16.01
3.20
23.06
42.71
61.65
78.29
91.83
102.17
109.64
114.84
118.45
121.03
122.94
123.91
123.23
119.93
113.23
102.58
88.21
70.69
50.90
29.84
8.25
-12.52
-32.12
-49.91
-66.26
-79.09
-86.55
-87.12
-80.24
-66.57
-48.02
-27.24
-6.85
10.91
25.10
35.35
41.50
43.32
40.30
31.63
16.77
-2.77
-26.39
-52.86
-80.68
-107.44
-129.34
-141.49
-139.40
-121.20
-89.17
-49.94
-12.02
17.28
34.51
40.71
39.92
36.45
32.83
29.56
25.76
21.04
16.06
12.21
10.58
11.18
12.79
13.72
12.53
8.80
3.30
-2.52
-7.22
-10.06
-11.20
-11.66
-12.68
-15.16
-19.38
-24.86
-30.65
-35.85
-40.26
-43.81
-47.01
-50.53
-54.75
-59.69
-64.88
-69.51
-72.78
-74.04
-72.88
-69.23
-63.46
-55.61
-45.84
-34.44
-21.81
-8.50
4.74
17.18
28.07
36.83
43.17
47.02
48.59
48.21
46.37
43.54
40.19
36.67
33.21
29.98
27.03
24.31
21.74
19.23
16.62
13.82
10.73
7.26
3.40
-0.82
-5.32
-10.04
-14.88
-19.78
-24.60
-29.30
-33.88
-38.34
-42.61
-46.69
-50.64
-54.56
-58.60
-62.90
-67.64
-72.96
-79.03
-85.72
-92.93
-100.55
-108.44
-116.49
-124.55
-132.51
-140.25
-147.72
-154.53
-160.34
-164.87
-167.82
-168.88
-167.69
-163.75
-156.38
-147.13
-136.70
-125.65
-114.46
-103.52
-93.18
-83.72
-75.35
-68.25
-62.58
-58.11
-54.67
-52.12
-50.32
-49.16
-48.58
-48.51
-48.94
-49.86
-51.02
-52.23
-53.37
-54.34
-55.13
-55.74
-56.23
-56.67
-57.17
-57.69
-58.23
-58.86
-59.68
-60.84
-62.48
-64.74
-67.69
-71.33
-75.50
-80.02
-84.68
-89.33
-93.87
-98.19
-102.17
-105.55
-107.98
-108.93
-107.90
-104.46
-98.42
-89.82
-78.85
-65.75
-50.60
-33.24
-13.31
9.53
35.37
63.83
94.02
124.68
154.53
182.66
208.74
233.04
256.20
278.83
301.15
322.95
343.73
362.96
380.48
396.61
412.05
427.74
444.71
463.91
485.97
510.72
536.64
560.70
578.87
587.37
584.17
569.89
547.77
522.42
498.04
476.98
459.26
443.13
426.20
406.44
382.48
353.49
318.80
277.85
230.46
177.30
120.10
61.54
4.66
-47.94
-94.66
-135.08
-169.62
-198.93
-223.41
-243.04
-257.56
-266.82
-271.20
-271.57
-269.21
-265.43
-261.28
-257.36
-253.72
-249.94
-245.21
-238.62
-229.49
-217.76
-204.13
-189.79
-176.01
-163.58
-152.50
-142.13
-131.56
-120.24
-108.24
-96.21
-84.94
-74.87
-65.91
-57.54
-49.25
-40.97
-33.03
-26.01
-20.21
-15.40
-10.81
-5.50
1.11
8.98
17.37
25.22
31.52
35.63
37.32
36.61
33.70
28.88
22.51
15.04
6.97
-1.21
-9.16
-16.65
-23.55
-29.74
-35.07
-39.35
-42.40
-44.08
-44.30
-42.97
-40.00
-35.34
-29.04
-21.36
-12.83
-4.15
3.94
10.78
15.91
19.09
20.20
19.19
16.08
10.99
4.20
-3.77
-12.31
-20.82
-28.86
-36.24
-42.97
-49.07
-54.39
-58.45
-60.55
-60.05
-56.65
-50.66
-42.76
-33.81
-24.43
-14.90
-5.31
4.24
13.40
21.63
28.43
33.52
36.96
38.97
39.75
39.28
37.40
34.05
29.47
24.25
19.11
14.72
11.55
9.78
9.52
10.79
13.54
17.60
22.65
28.26
34.06
39.88
45.74
51.69
57.68
63.34
68.16
71.67
73.69
74.40
74.16
73.27
71.70
69.13
65.11
59.35
51.94
43.26
33.81
23.96
13.84
3.44
-7.22
-17.78
-27.50
-35.40
-40.60
-42.65
-41.79
-38.90
-35.18
-31.76
-29.33
-28.01
-27.35
-26.64
-25.13
-22.29
-17.95
-12.30
-5.88
0.60
6.38
10.88
13.93
15.86
17.46
19.80
23.84
30.07
38.31
47.83
57.59
66.64
74.34
80.53
85.43
89.58
93.55
97.91
102.93
108.31
113.05
115.45
113.62
106.06
92.28
73.00
49.92
25.14
0.66
-22.04
-41.98
-58.55
-71.48
-80.76
-86.78
-90.30
-92.31
-93.79
-95.39
-97.34
-99.53
-101.64
-103.34
-104.36
-104.59
-104.02
-102.78
-100.96
-98.59
-95.49
-91.27
-85.39
-77.32
-66.83
-54.16
-40.07
-25.68
-12.14
-0.34
9.32
16.96
23.05
28.22
32.96
37.52
41.82
45.38
47.41
46.89
42.79
34.40
21.74
5.75
-11.75
-28.54
-42.63
-52.87
-59.15
-62.23
-63.17
-62.87
-61.75
-59.81
-56.93
-53.11
-48.55
-43.56
-38.40
-33.24
-28.19
-23.39
-19.08
-15.45
-12.56
-10.22
-8.04
-5.65
-3.02
-0.45
1.39
1.73
0.02
-3.90
-9.65
-16.41
-23.14
-28.81
-32.47
-33.61
-32.17
-28.56
-23.52
-17.86
-12.33
-7.45
-3.49
-0.25
2.52
5.03
7.38
9.64
11.87
14.16
16.56
19.00
22.00
25.91
30.96
37.22
44.61
52.92
61.85
71.08
80.21
89.89
100.59
112.42
125.05
137.78
149.96
161.34
172.29
183.61
197.53
215.59
238.01
263.45
289.60
314.15
335.94
355.66
365.89
361.85
340.18
299.81
242.67
173.41
98.11
22.79
-47.64
-109.81
-160.37
-197.47
-220.84
-232.01
-234.25
-232.19
-230.66
-233.56
-242.77
-256.64
-271.57
-283.13
-287.52
-282.74
-269.01
-248.33
-223.62
-197.82
-172.58
-148.87
-127.24
-108.28
-92.63
-80.78
-72.66
-67.43
-63.74
-59.95
-55.11
-49.31
-43.53
-38.99
-36.52
-36.10
-36.92
-37.92
-38.10
-37.09
-34.97
-32.06
-28.63
-24.78
-20.48
-15.84
-11.23
-7.14
-4.07
-2.20
-1.28
-0.78
-0.00
1.54
4.00
7.04
10.07
12.16
12.73
11.76
9.85
8.01
7.17
7.91
10.12
13.30
16.74
20.03
22.99
25.60
27.59
28.54
27.98
25.54
21.25
15.31
8.23
0.60
-7.11
-14.57
-21.55
-27.89
-33.38
-37.77
-40.77
-42.11
-41.73
-39.90
-37.14
-34.04
-31.12
-28.55
-26.17
-23.63
-20.56
-16.64
-11.70
-5.68
1.28
8.71
15.83
21.63
25.13
25.79
23.79
19.87
15.21
10.83
7.36
5.00
3.59
2.90
2.86
3.46
4.69
6.33
7.88
8.78
8.69
7.47
5.21
2.07
-1.74
-5.94
-10.18
-14.19
-17.69
-20.44
-22.32
-23.43
-24.12
-25.09
-27.14
-30.34
-35.00
-41.07
-47.99
-54.83
-60.74
-65.29
-68.68
-71.58
-74.71
-78.50
-82.66
-86.32
-88.37
-87.94
-84.58
-78.38
-69.79
-59.29
-47.36
-34.20
-19.97
-5.03
9.97
24.26
37.07
47.89
56.65
63.63
69.43
74.71
80.08
85.97
92.46
99.27
105.83
111.54
115.91
118.80
120.39
120.98
120.82
120.04
118.82
117.42
116.41
116.31
117.24
118.54
118.90
116.76
110.94
101.22
88.18
73.04
57.10
41.36
26.38
12.42
-0.50
-12.40
-23.35
-33.49
-42.88
-51.42
-58.93
-65.15
-69.89
-73.09
-74.63
-74.35
-72.21
-68.30
-63.10
-57.40
-51.96
-47.38
-43.99
-41.66
-40.19
-39.35
-39.01
-39.02
-39.09
-38.55
-36.61
-32.75
-26.86
-19.53
-11.93
-5.47
-1.56
-1.14
-4.52
-11.62
-21.85
-34.27
-47.81
-61.67
-75.40
-89.33
-104.03
-120.03
-137.58
-155.90
-173.25
-186.95
-194.31
-193.13
-182.96
-164.71
-140.91
-115.01
-90.15
-68.14
-49.09
-32.37
-17.04
-2.83
10.77
24.85
38.84
51.39
61.26
68.14
71.65
73.99
74.89
74.39
73.37
73.10
75.38
78.97
83.55
88.66
93.86
98.54
102.64
106.29
109.61
112.94
116.71
121.70
128.05
135.14
141.32
144.77
143.83
137.33
125.13
108.01
87.65
65.65
43.25
21.07
-0.36
-20.61
-39.22
-55.65
-69.34
-79.79
-87.11
-91.94
-95.26
-97.86
-100.16
-102.16
-103.49
-103.43
-101.34
-96.97
-90.52
-82.35
-72.82
-62.10
-50.16
-36.75
-20.96
-1.99
20.15
44.36
68.53
89.98
106.13
115.02
115.72
109.04
96.17
77.83
54.17
25.51
-6.89
-40.52
-72.06
-98.04
-114.13
-117.58
-107.98
-87.19
-58.20
-24.00
12.83
49.89
84.90
117.36
146.47
170.76
188.78
200.47
207.72
213.36
219.20
213.78
189.51
146.65
93.53
40.12
-7.39
-47.13
-80.01
-107.83
-131.49
-148.65
-156.74
-155.22
-146.72
-135.87
-128.64
-126.59
-128.82
-132.66
-133.71
-128.99
-118.30
-103.85
-88.52
-72.04
-55.37
-39.14
-23.94
-9.79
2.98
14.09
23.83
33.17
43.47
55.02
66.61
76.04
81.64
82.92
80.57
77.15
73.39
70.03
67.25
65.01
63.16
61.65
60.42
59.00
56.96
53.96
50.26
46.36
43.15
41.49
42.01
45.01
49.98
56.27
62.94
69.35
74.94
79.52
83.18
86.08
88.08
87.49
82.42
71.37
54.11
30.03
-0.42
-35.81
-74.68
-111.68
-142.92
-166.00
-180.41
-187.24
-188.72
-186.97
-183.59
-179.31
-173.96
-167.44
-159.44
-149.94
-139.35
-128.51
-118.09
-108.50
-99.87
-91.89
-84.38
-77.05
-69.88
-63.25
-57.98
-54.44
-52.82
-53.09
-54.84
-57.36
-59.59
-60.44
-58.98
-54.91
-47.84
-37.86
-25.65
-11.82
3.15
19.02
35.38
51.42
65.70
77.34
85.84
91.22
92.40
89.14
83.34
78.53
80.20
88.33
101.28
117.44
132.81
144.79
152.15
154.80
153.31
148.48
140.63
130.43
118.36
104.53
89.40
73.81
58.70
44.75
32.02
19.72
7.26
-5.73
-19.30
-32.69
-44.71
-54.25
-60.71
-64.15
-65.26
-64.46
-61.93
-57.71
-51.74
-44.31
-36.13
-28.33
-22.03
-17.99
-16.11
-15.59
-15.34
-14.31
-11.96
-8.39
-4.26
-0.45
2.18
3.23
2.73
1.06
-1.13
-3.24
-4.79
-5.53
-5.40
-4.57
-3.34
-2.11
-1.30
-1.23
-2.03
-3.54
-5.34
-6.84
-7.46
-6.76
-4.63
-1.24
2.96
7.39
11.46
14.65
16.66
17.45
17.18
16.19
14.91
13.72
12.89
12.52
12.62
13.14
14.05
15.32
16.88
18.55
20.07
21.14
21.60
21.47
20.98
20.46
20.17
20.28
20.75
21.39
21.82
21.57
20.08
17.00
12.24
6.05
-1.00
-8.23
-15.00
-20.81
-25.28
-28.20
-29.59
-29.68
-28.92
-27.81
-26.80
-26.04
-25.50
-25.01
-24.51
-24.01
-23.54
-23.02
-22.17
-20.65
-18.25
-15.05
-11.36
-7.67
-4.35
-1.55
0.76
2.70
4.34
5.71
6.83
7.70
8.27
8.56
8.68
8.73
8.75
8.74
8.67
8.50
8.14
7.40
6.21
4.76
3.25
1.70
-0.05
-2.20
-5.01
-8.67
-13.55
-19.51
-25.70
-31.08
-34.84
-36.60
-36.39
-34.59
-31.77
-28.92
-26.35
-23.34
-19.16
-13.84
-8.16
-3.48
-1.40
-3.21
-10.11
-21.41
-34.09
-44.25
-48.67
-45.38
-34.17
-16.66
8.55
37.60
62.92
77.98
80.28
71.03
53.72
32.43
10.99
-7.64
-22.56
-36.12
-48.86
-61.60
-75.77
-91.72
-108.30
-123.25
-134.12
-139.92
-140.69
-137.05
-126.56
-110.09
-89.39
-66.60
-44.15
-24.68
-10.99
-4.50
-4.15
-6.93
-8.95
-7.03
-0.70
7.40
13.00
12.42
4.91
-6.69
-17.46
-21.77
-16.48
-2.81
14.46
29.66
38.72
40.39
36.08
28.61
23.07
23.39
30.67
43.78
61.15
82.23
107.08
135.35
165.57
198.28
233.29
268.88
302.33
331.15
353.40
366.91
369.20
340.26
272.81
178.24
81.23
3.25
-47.96
-76.48
-91.11
-99.57
-106.33
-110.37
-110.18
-108.28
-108.82
-113.93
-121.53
-126.72
-125.08
-115.33
-97.99
-76.75
-57.45
-45.71
-43.78
-49.41
-57.87
-65.02
-68.93
-68.93
-66.24
-63.60
-63.59
-66.90
-71.57
-73.91
-70.03
-57.83
-37.73
-13.88
5.74
12.12
-1.02
-34.55
-83.31
-137.45
-184.66
-212.84
-213.13
-183.12
-126.29
-49.59
39.19
132.91
225.08
309.96
381.80
435.04
462.91
460.13
426.37
367.47
293.69
216.26
144.87
85.55
40.52
5.44
-27.46
-65.08
-110.52
-163.12
-220.01
-277.26
-331.64
-366.57
-368.42
-336.63
-284.86
-229.12
-178.21
-134.04
-96.00
-64.93
-43.08
-31.89
-32.18
-40.76
-50.26
-52.94
-45.28
-29.24
-12.04
-0.17
-1.69
-21.03
-56.58
-102.32
-151.74
-200.25
-237.96
-267.68
-280.88
-270.53
-233.44
-172.37
-96.30
-18.07
49.89
100.04
130.39
145.98
152.06
152.34
148.65
141.83
132.83
123.32
115.40
109.88
107.74
107.51
106.54
102.53
94.41
82.65
68.89
55.10
42.28
31.55
22.70
15.07
8.13
1.77
-3.78
-8.22
-11.42
-13.79
-15.29
-15.88
-15.05
-11.98
-5.99
2.94
13.91
25.10
34.18
39.47
40.41
37.92
33.98
31.11
31.43
36.20
45.22
56.98
69.66
81.81
92.65
101.94
110.13
117.94
126.50
136.44
147.38
158.69
169.91
181.02
191.98
203.46
215.91
229.73
243.60
254.13
257.99
253.84
243.11
228.22
212.02
194.95
175.23
147.84
106.09
46.03
-30.87
-117.70
-206.58
-289.84
-362.84
-415.80
-435.82
-419.61
-378.46
-329.62
-285.21
-255.88
-237.74
-224.02
-206.44
-178.60
-137.99
-83.56
-19.01
49.36
111.04
155.67
175.20
166.82
131.64
73.97
0.92
-82.27
-158.07
-210.23
-233.45
-233.89
-220.73
-201.90
-182.82
-167.03
-156.76
-152.40
-155.41
-166.91
-184.92
-204.95
-221.38
-228.12
-221.22
-200.07
-166.85
-127.36
-87.57
-50.40
-13.99
18.73
47.22
71.16
89.93
103.38
111.34
114.63
115.36
115.85
117.19
119.95
123.37
126.37
128.94
132.08
137.90
149.32
168.84
197.28
233.52
273.39
310.23
336.82
347.51
340.23
317.21
283.80
246.40
210.92
180.93
157.37
139.31
125.04
113.05
102.43
92.82
83.94
75.53
66.76
56.35
43.06
26.47
7.53
-11.55
-28.09
-40.06
-46.68
-48.62
-47.38
-44.46
-40.84
-37.04
-33.28
-29.97
-27.84
-27.86
-30.96
-37.67
-47.95
-61.18
-76.36
-92.37
-108.19
-123.13
-136.89
-149.58
-161.54
-173.08
-184.16
-194.16
-202.02
-206.61
-207.39
-204.92
-200.85
-197.52
-196.94
-200.16
-206.95
-216.16
-226.16
-235.08
-240.89
-241.21
-233.66
-216.83
-191.32
-160.14
-127.74
-98.15
-73.10
-51.44
-30.09
-6.30
20.37
47.43
70.70
86.63
94.44
96.76
98.54
104.73
118.18
138.72
163.68
189.70
214.27
236.55
256.77
275.13
290.73
301.35
304.46
298.69
284.73
265.33
244.26
224.99
209.91
200.33
196.95
200.27
210.37
226.37
246.01
266.00
283.02
295.08
302.25
306.52
310.69
317.00
326.10
336.81
346.47
351.88
350.15
339.39
319.09
290.14
254.42
214.20
171.43
127.34
82.58
37.78
-5.88
-46.63
-82.52
-112.11
-134.98
-151.94
-164.72
-175.44
-185.89
-197.04
-208.78
-220.35
-230.42
-237.67
-241.33
-241.40
-238.26
-232.15
-222.83
-209.98
-194.21
-177.26
-161.67
-149.83
-142.86
-140.10
-139.38
-138.33
-135.74
-132.92
-132.35
-136.13
-144.90
-157.65
-172.14
-185.53
-195.18
-199.40
-199.71
-197.99
-195.37
-192.11
-188.48
-185.13
-182.67
-181.37
-181.16
-185.70
-196.64
-212.07
-227.62
-239.52
-246.54
-249.65
-250.88
-252.26
-261.32
-281.48
-309.67
-338.55
-361.92
-377.70
-387.12
-392.74
-396.70
-408.09
-430.72
-460.04
-485.90
-499.74
-498.91
-486.57
-469.64
-403.71
-275.44
-108.07
55.65
187.57
283.77
352.39
401.47
435.32
456.13
457.73
438.72
405.31
368.30
336.84
315.91
307.55
312.34
329.08
348.59
362.66
367.72
364.90
356.40
343.21
324.87
300.26
268.39
224.96
169.33
106.44
44.81
-7.92
-47.71
-74.38
-90.62
-97.18
-98.84
-100.45
-104.26
-108.38
-107.28
-93.94
-63.28
-15.48
42.59
97.85
137.44
154.02
148.25
126.93
98.69
69.90
43.00
17.57
-7.75
-32.66
-54.88
-71.47
-80.88
-84.21
-85.01
-87.50
-94.37
-105.62
-118.18
-127.13
-127.92
-118.35
-99.54
-75.44
-51.16
-30.85
-16.04
-4.97
6.44
22.58
45.97
75.75
107.76
136.10
155.29
162.01
155.79
138.68
114.45
88.01
64.88
50.42
48.52
59.88
80.68
102.91
116.74
114.32
93.36
58.34
18.56
-15.76
-37.72
-45.80
-43.30
-35.56
-27.07
-19.93
-14.27
-9.81
-7.25
-8.55
-15.58
-28.36
-44.27
-58.66
-66.75
-65.75
-55.97
-40.44
-23.41
-8.54
2.40
9.68
14.79
19.40
24.43
29.80
34.73
38.30
40.01
40.02
38.96
37.50
35.82
33.43
29.26
22.19
11.60
-2.29
-18.42
-35.26
-51.18
-65.00
-76.09
-84.50
-90.82
-95.99
-101.06
-106.88
-113.92
-122.04
-130.47
-137.85
-142.50
-142.87
-138.00
-127.54
-111.60
-90.25
-63.01
-29.08
12.00
59.40
110.56
161.60
208.28
246.85
274.29
288.24
287.20
271.38
243.73
210.29
178.79
155.83
144.04
140.85
139.99
134.84
121.92
102.43
81.20
63.77
53.55
50.55
52.03
54.47
55.24
53.63
50.52
47.48
45.87
46.18
48.21
51.28
54.49
56.69
56.34
51.49
40.18
21.08
-5.77
-38.40
-73.13
-105.31
-130.55
-145.88
-150.57
-146.23
-136.19
-124.45
-114.41
-108.00
-105.27
-104.64
-103.58
-99.54
-90.82
-77.07
-59.42
-40.03
-21.34
-5.21
7.71
18.08
27.32
36.86
47.49
59.09
70.80
81.43
89.85
95.24
97.12
95.43
90.48
82.95
73.76
63.82
53.81
44.04
34.45
24.82
15.01
5.14
-4.42
-13.17
-20.68
-26.73
-31.36
-34.74
-37.17
-38.93
-40.35
-41.75
-43.39
-45.42
-47.84
-50.54
-53.40
-56.43
-59.67
-63.06
-66.21
-68.30
-68.19
-64.80
-57.55
-46.67
-33.21
-18.75
-4.90
7.06
16.42
23.00
27.02
28.82
28.81
27.32
24.68
21.25
17.45
13.73
10.48
7.99
6.35
5.55
5.53
6.18
7.42
9.10
10.97
12.68
13.92
14.42
14.14
13.15
11.60
9.57
7.10
4.23
1.07
-2.14
-5.13
-7.69
-9.83
-11.76
-13.77
-16.09
-18.73
-21.52
-24.13
-26.33
-27.94
-29.06
-29.91
-30.89
-32.42
-34.83
-38.13
-41.78
-44.72
-45.47
-42.64
-35.48
-24.22
-10.11
4.92
18.89
30.32
38.58
43.71
46.25
46.80
45.83
43.64
40.46
36.53
32.21
27.91
24.04
20.90
18.62
17.14
16.31
15.98
16.03
16.41
17.10
17.99
18.80
19.12
18.54
16.77
13.82
10.07
6.07
2.39
-0.65
-3.03
-5.02
-7.02
-9.40
-12.30
-15.61
-19.09
-22.40
-25.34
-27.82
-29.93
-31.81
-33.72
-35.91
-38.66
-42.19
-46.49
-51.11
-55.06
-56.94
-55.28
-49.07
-38.24
-23.77
-7.50
8.45
22.23
32.69
39.47
42.83
43.37
41.82
38.84
35.08
31.08
27.32
24.12
21.62
19.80
18.55
17.72
17.22
16.99
17.05
17.36
17.83
18.32
18.62
18.52
17.82
16.39
14.15
11.19
7.66
3.86
0.12
-3.31
-6.28
-8.77
-10.93
-12.99
-15.17
-17.66
-20.49
-23.56
-26.67
-29.54
-31.93
-33.76
-35.12
-36.30
-37.74
-39.88
-42.99
-46.93
-51.03
-54.10
-54.64
-51.29
-43.31
-30.91
-15.33
1.48
17.38
30.58
40.00
45.45
47.35
46.54
43.89
40.14
35.81
31.29
26.89
22.93
19.67
17.27
15.70
14.80
14.34
14.13
14.09
14.25
14.60
15.07
15.45
15.45
14.84
13.50
11.46
8.92
6.14
3.37
0.79
-1.54
-3.67
-5.74
-7.89
-10.23
-12.78
-15.51
-18.37
-21.25
-24.05
-26.62
-28.82
-30.53
-31.79
-32.79
-33.93
-35.65
-38.34
-42.09
-46.48
-50.52
-52.73
-51.56
-45.86
-35.46
-21.31
-5.30
10.32
23.56
33.28
39.23
41.87
41.93
40.12
37.01
33.08
28.78
24.57
20.86
17.88
15.73
14.32
13.56
13.34
13.55
14.05
14.72
15.35
15.83
16.05
15.96
15.51
14.58
13.03
10.73
7.68
4.06
0.21
-3.50
-6.77
-9.48
-11.73
-13.73
-15.73
-17.89
-20.27
-22.77
-25.20
-27.40
-29.22
-30.62
-31.63
-32.39
-33.15
-34.26
-36.06
-38.73
-42.03
-45.17
-46.84
-45.51
-40.03
-30.11
-16.59
-1.27
13.60
26.05
34.86
39.78
41.33
40.42
37.91
34.50
30.65
26.68
22.88
19.52
16.83
14.92
13.80
13.40
13.60
14.26
15.29
16.59
17.98
19.26
20.10
20.19
19.30
17.39
14.66
11.51
8.38
5.64
3.37
1.41
-0.57
-2.84
-5.49
-8.36
-11.09
-13.36
-15.00
-16.11
-16.99
-18.06
-19.61
-21.67
-24.08
-26.49
-28.58
-30.19
-31.38
-32.42
-33.73
-35.76
-38.81
-42.80
-47.15
-50.66
-51.77
-49.03
-41.56
-29.55
-14.31
2.07
17.37
29.76
38.25
42.74
43.77
42.20
38.91
34.68
30.15
25.80
22.02
19.11
17.18
16.26
16.22
16.82
17.79
18.86
19.85
20.66
21.30
21.80
22.15
22.23
21.82
20.68
18.70
15.96
12.77
9.57
6.67
4.24
2.15
0.13
-2.10
-4.68
-7.47
-10.18
-12.46
-14.09
-15.07
-15.69
-16.40
-17.64
-19.63
-22.28
-25.18
-27.80
-29.71
-30.76
-31.18
-31.41
-32.05
-33.62
-36.41
-40.35
-44.78
-48.55
-50.08
-47.89
-41.04
-29.58
-14.66
1.75
17.39
30.35
39.45
44.41
45.63
44.00
40.53
36.13
31.51
27.15
23.37
20.34
18.20
16.97
16.59
16.87
17.58
18.47
19.36
20.19
20.93
21.54
21.90
21.76
20.88
19.12
16.53
13.33
9.89
6.61
3.79
1.52
-0.26
-1.76
-3.23
-4.84
-6.66
-8.60
-10.45
-12.00
-13.13
-13.89
-14.48
-15.22
-16.39
-18.12
-20.32
-22.71
-24.96
-26.86
-28.34
-29.53
-30.66
-32.00
-33.82
-36.34
-39.59
-43.27
-46.54
-48.14
-46.65
-41.02
-31.01
-17.47
-2.07
13.09
26.16
35.93
41.94
44.37
43.81
40.96
36.58
31.44
26.28
21.74
18.29
16.16
15.25
15.27
15.84
16.62
17.37
18.03
18.64
19.28
19.95
20.57
20.96
20.91
20.20
18.72
16.47
13.61
10.40
7.18
4.22
1.72
-0.28
-1.84
-3.14
-4.35
-5.64
-7.12
-8.79
-10.56
-12.28
-13.80
-15.06
-16.13
-17.17
-18.40
-19.97
-21.91
-24.09
-26.29
-28.28
-29.89
-31.10
-32.06
-33.13
-34.72
-37.21
-40.61
-44.43
-47.59
-48.58
-45.95
-38.87
-27.53
-13.22
1.97
15.83
26.61
33.43
36.36
36.12
33.75
30.23
26.29
22.42
18.91
15.96
13.76
12.41
11.93
12.22
13.02
14.06
15.08
16.00
16.84
17.71
18.62
19.41
19.76
19.33
17.91
15.55
12.61
9.54
6.75
4.46
2.64
1.12
-0.33
-1.82
-3.37
-4.95
-6.49
-7.91
-9.14
-10.13
-10.86
-11.41
-11.95
-12.67
-13.71
-15.07
-16.59
-18.08
-19.36
-20.37
-21.17
-21.96
-23.01
-24.60
-27.00
-30.26
-34.00
-37.34
-39.00
-37.67
-32.48
-23.42
-11.47
1.75
14.44
25.17
33.10
38.01
40.08
39.64
37.13
33.07
28.05
22.74
17.77
13.58
10.44
8.42
7.52
7.63
8.61
10.26
12.28
14.34
16.14
17.45
18.12
18.07
17.29
15.82
13.74
11.23
8.47
5.64
2.84
0.12
-2.48
-4.85
-6.89
-8.55
-9.96
-11.32
-12.91
-14.87
-17.09
-19.28
-21.05
-22.18
-22.72
-22.93
-23.26
-24.14
-25.92
-28.75
-32.51
-36.65
-40.16
-41.69
-39.90
-33.94
-23.85
-10.67
3.80
17.53
28.80
36.63
40.85
41.91
40.64
37.90
34.45
30.84
27.45
24.50
22.10
20.25
18.91
17.99
17.43
17.20
17.30
17.68
18.25
18.86
19.28
19.27
18.62
17.25
15.18
12.56
9.62
6.59
3.64
0.88
-1.67
-3.98
-6.05
-7.84
-9.34
-10.56
-11.62
-12.69
-13.97
-15.62
-17.71
-20.14
-22.69
-25.04
-26.93
-28.22
-29.05
-29.78
-30.94
-33.03
-36.25
-40.31
-44.27
-46.76
-46.28
-41.73
-32.83
-20.34
-5.83
8.73
21.50
31.22
37.33
39.95
39.60
37.09
33.24
28.83
24.54
20.79
17.80
15.62
14.16
13.34
13.07
13.28
13.89
14.81
15.90
16.98
17.88
18.39
18.35
17.65
16.25
14.25
11.81
9.16
6.51
4.01
1.74
-0.36
-2.36
-4.37
-6.43
-8.49
-10.40
-12.05
-13.41
-14.59
-15.79
-17.22
-18.99
-21.03
-23.14
-25.06
-26.59
-27.70
-28.59
-29.61
-31.19
-33.68
-37.05
-40.77
-43.79
-44.72
-42.30
-35.82
-25.49
-12.45
1.59
14.75
25.55
33.10
37.19
38.13
36.56
33.26
29.06
24.69
20.74
17.57
15.30
13.87
13.15
13.00
13.29
13.97
14.95
16.09
17.21
18.12
18.70
18.83
18.49
17.67
16.38
14.63
12.47
9.98
7.26
4.48
1.84
-0.45
-2.22
-3.48
-4.35
-5.09
-5.96
-7.14
-8.60
-10.20
-11.72
-13.00
-13.98
-14.74
-15.39
-16.12
-17.14
-18.70
-20.98
-23.93
-27.13
-29.70
-30.51
-28.49
-23.10
-14.58
-3.97
7.21
17.42
25.53
30.98
33.81
34.40
33.21
30.68
27.15
22.97
18.51
14.18
10.36
7.35
5.32
4.34
4.38
5.35
7.04
9.16
11.35
13.22
14.43
14.76
14.17
12.72
10.56
7.86
4.76
1.47
-1.80
-4.78
-7.31
-9.31
-10.91
-12.33
-13.85
-15.65
-17.74
-19.93
-21.97
-23.63
-24.82
-25.60
-26.14
-26.61
-27.24
-28.25
-29.90
-32.40
-35.73
-39.37
-42.32
-43.22
-40.77
-34.29
-23.97
-10.97
2.97
15.96
26.50
33.78
37.64
38.49
37.03
34.07
30.37
26.59
23.21
20.55
18.73
17.69
17.22
17.06
16.97
16.80
16.47
16.05
15.62
15.25
14.93
14.60
14.16
13.50
12.55
11.29
9.70
7.78
5.56
3.12
0.58
-1.93
-4.29
-6.42
-8.31
-9.94
-11.32
-12.44
-13.35
-14.13
-14.93
-15.92
-17.12
-18.46
-19.76
-20.84
-21.68
-22.42
-23.43
-25.09
-27.61
-30.85
-34.14
-36.40
-36.42
-33.23
-26.50
-16.73
-5.16
6.64
17.15
25.30
30.60
33.12
33.23
31.48
28.41
24.56
20.40
16.40
12.91
10.18
8.28
7.15
6.59
6.43
6.53
6.83
7.33
8.02
8.85
9.66
10.22
10.30
9.76
8.57
6.84
4.77
2.62
0.65
-0.99
-2.27
-3.31
-4.30
-5.46
-6.94
-8.73
-10.71
-12.65
-14.34
-15.64
-16.51
-17.08
-17.60
-18.42
-19.87
-22.15
-25.10
-28.10
-30.06
-29.71
-26.02
-18.66
-8.22
3.91
15.89
26.06
33.33
37.38
38.50
37.36
34.68
31.10
27.15
23.26
19.79
17.00
15.00
13.75
13.13
12.95
13.06
13.40
13.89
14.48
15.00
15.25
14.99
14.11
12.59
10.53
8.13
5.57
3.03
0.56
-1.79
-4.06
-6.21
-8.16
-9.79
-11.03
-11.94
-12.75
-13.79
-15.31
-17.39
-19.81
-22.16
-24.06
-25.29
-25.95
-26.39
-27.06
-28.39
-30.61
-33.72
-37.37
-40.83
-42.99
-42.61
-38.65
-30.74
-19.39
-5.98
7.60
19.47
28.31
33.58
35.47
34.74
32.26
28.86
25.17
21.59
18.39
15.74
13.72
12.35
11.59
11.36
11.56
12.12
12.98
14.07
15.26
16.36
17.11
17.30
16.76
15.49
13.61
11.34
8.91
6.55
4.40
2.57
1.04
-0.26
-1.50
-2.84
-4.34
-5.93
-7.39
-8.48
-9.12
-9.40
-9.66
-10.32
-11.65
-13.64
-16.06
-18.49
-20.58
-22.16
-23.31
-24.28
-25.43
-27.07
-29.31
-31.96
-34.48
-35.98
-35.47
-32.13
-25.65
-16.42
-5.46
5.83
16.08
24.24
29.83
32.80
33.41
32.03
29.01
24.77
19.78
14.64
9.99
6.47
4.51
4.32
5.78
8.55
12.13
15.94
19.48
22.28
24.05
24.64
24.05
22.46
20.13
17.35
14.35
11.29
8.26
5.31
2.50
-0.10
-2.37
-4.22
-5.62
-6.66
-7.50
-8.35
-9.38
-10.61
-11.95
-13.22
-14.23
-14.93
-15.39
-15.79
-16.39
-17.47
-19.34
-22.24
-26.14
-30.61
-34.62
-36.79
-35.70
-30.52
-21.40
-9.52
3.23
14.86
23.86
29.52
31.91
31.63
29.50
26.32
22.79
19.44
16.66
14.66
13.45
12.88
12.70
12.67
12.64
12.58
12.55
12.64
12.83
13.03
13.08
12.81
12.13
11.05
9.70
8.21
6.73
5.31
3.93
2.52
0.97
-0.73
-2.53
-4.30
-5.97
-7.48
-8.90
-10.40
-12.15
-14.28
-16.74
-19.33
-21.74
-23.67
-24.95
-25.56
-25.69
-25.66
-25.88
-26.76
-28.54
-31.15
-34.05
-36.24
-36.44
-33.54
-26.99
-17.14
-5.20
7.12
18.14
26.63
32.09
34.58
34.59
32.73
29.62
25.88
22.06
18.65
15.99
14.20
13.22
12.88
12.99
13.41
14.06
14.84
15.66
16.33
16.66
16.44
15.56
13.99
11.88
9.44
6.89
4.41
2.06
-0.20
-2.44
-4.71
-6.95
-9.01
-10.74
-12.07
-13.02
-13.76
-14.50
-15.42
-16.60
-17.97
-19.35
-20.54
-21.37
-21.78
-21.87
-21.93
-22.35
-23.53
-25.67
-28.56
-31.44
-33.17
-32.44
-28.33
-20.70
-10.28
1.48
12.88
22.46
29.36
33.35
34.64
33.67
30.91
26.85
22.05
17.16
12.84
9.63
7.78
7.21
7.61
8.54
9.67
10.77
11.75
12.62
13.38
13.98
14.34
14.30
13.68
12.32
10.13
7.18
3.75
0.27
-2.85
-5.31
-7.07
-8.37
-9.57
-11.02
-12.87
-15.04
-17.26
-19.15
-20.43
-20.98
-20.96
-20.78
-20.98
-22.05
-24.17
-26.99
-29.60
-30.77
-29.27
-24.41
-16.31
-5.92
5.25
15.64
24.03
29.77
32.79
33.40
32.07
29.32
25.62
21.47
17.32
13.61
10.64
8.55
7.35
6.93
7.14
7.81
8.78
9.88
10.94
11.83
12.46
12.76
12.64
11.98
10.67
8.67
6.03
2.97
-0.18
-3.05
-5.39
-7.12
-8.39
-9.48
-10.73
-12.35
-14.38
-16.68
-18.96
-20.93
-22.38
-23.28
-23.76
-24.13
-24.76
-26.02
-28.12
-30.98
-34.03
-36.29
-36.54
-33.74
-27.40
-17.90
-6.37
5.59
16.37
24.80
30.32
32.96
33.12
31.40
28.44
24.84
21.17
17.90
15.36
13.72
12.91
12.74
12.95
13.29
13.64
14.00
14.43
14.97
15.58
16.07
16.19
15.70
14.46
12.52
10.09
7.51
5.14
3.18
1.68
0.47
-0.70
-2.10
-3.81
-5.73
-7.58
-9.10
-10.13
-10.71
-11.06
-11.51
-12.34
-13.70
-15.56
-17.75
-19.98
-21.97
-23.49
-24.54
-25.35
-26.34
-27.97
-30.51
-33.77
-37.02
-39.12
-38.77
-35.03
-27.58
-16.99
-4.60
7.87
18.74
26.84
31.68
33.46
32.79
30.50
27.36
24.00
20.86
18.23
16.27
14.98
14.29
14.07
14.15
14.40
14.74
15.12
15.52
15.97
16.47
16.95
17.27
17.21
16.53
15.09
12.95
10.36
7.70
5.30
3.39
1.94
0.77
-0.37
-1.69
-3.25
-4.98
-6.66
-8.13
-9.29
-10.23
-11.12
-12.16
-13.48
-15.03
-16.70
-18.28
-19.62
-20.71
-21.61
-22.50
-23.60
-25.13
-27.24
-29.93
-32.81
-35.15
-35.90
-34.00
-28.77
-20.27
-9.40
2.36
13.37
22.31
28.44
31.68
32.43
31.28
28.88
25.77
22.44
19.22
16.39
14.12
12.52
11.64
11.47
11.90
12.75
13.79
14.79
15.60
16.18
16.57
16.77
16.71
16.26
15.28
13.75
11.82
9.73
7.77
6.13
4.87
3.90
3.07
2.23
1.23
-0.03
-1.60
-3.49
-5.64
-7.89
-9.95
-11.56
-12.50
-12.79
-12.66
-12.50
-12.72
-13.56
-15.05
-16.99
-19.04
-20.94
-22.53
-23.85
-25.02
-26.24
-27.75
-29.76
-32.44
-35.64
-38.83
-40.97
-40.76
-37.11
-29.55
-18.61
-5.70
7.28
18.60
27.09
32.40
34.78
34.83
33.18
30.40
27.01
23.48
20.26
17.65
15.80
14.60
13.82
13.25
12.80
12.53
12.57
12.99
13.75
14.67
15.49
15.96
15.91
15.25
13.98
12.17
9.99
7.62
5.31
3.21
1.39
-0.22
-1.71
-3.18
-4.69
-6.20
-7.63
-8.88
-9.88
-10.60
-11.05
-11.27
-11.32
-11.28
-11.27
-11.43
-11.90
-12.78
-14.08
-15.68
-17.35
-18.83
-19.92
-20.55
-20.87
-21.16
-21.79
-23.07
-25.18
-28.04
-31.19
-33.84
-34.97
-33.55
-28.97
-21.26
-11.25
-0.30
10.02
18.43
24.21
27.29
28.08
27.21
25.28
22.77
20.02
17.29
14.82
12.83
11.46
10.76
10.68
11.03
11.63
12.34
13.11
13.95
14.90
15.86
16.63
16.98
16.70
15.78
14.37
12.70
11.00
9.37
7.78
6.09
4.25
2.25
0.26
-1.54
-3.01
-4.11
-4.96
-5.75
-6.64
-7.71
-8.97
-10.32
-11.69
-13.00
-14.21
-15.30
-16.27
-17.25
-18.43
-20.04
-22.21
-24.78
-27.23
-28.73
-28.44
-25.79
-20.74
-13.81
-5.91
1.96
8.97
14.61
18.73
21.36
22.69
22.95
22.37
21.19
19.58
17.71
15.63
13.43
11.19
9.10
7.41
6.37
6.15
6.75
8.03
9.69
11.40
12.85
13.81
14.09
13.64
12.48
10.79
8.79
6.70
4.69
2.83
1.07
-0.64
-2.38
-4.11
-5.76
-7.23
-8.44
-9.33
-9.88
-10.14
-10.21
-10.26
-10.52
-11.18
-12.37
-14.06
-16.11
-18.23
-20.05
-21.14
-21.13
-19.75
-16.90
-12.76
-7.68
-2.14
3.38
8.51
13.05
16.90
20.05
22.43
23.98
24.58
24.16
22.80
20.69
18.16
15.55
13.17
11.20
9.70
8.70
8.17
8.12
8.56
9.44
10.61
11.82
12.74
13.03
12.49
11.06
8.87
6.18
3.30
0.52
-1.98
-4.15
-6.09
-7.96
-9.96
-12.19
-14.62
-17.07
-19.31
-21.05
-22.17
-22.69
-22.84
-22.99
-23.55
-24.90
-27.22
-30.39
-33.88
-36.76
-37.96
-36.49
-31.84
-24.15
-14.23
-3.31
7.26
16.37
23.33
27.82
29.91
29.92
28.38
25.89
23.08
20.48
18.42
17.01
16.16
15.69
15.38
15.14
14.96
14.98
15.36
16.23
17.56
19.13
20.64
21.67
21.94
21.35
20.03
18.24
16.29
14.43
12.72
11.17
9.66
8.14
6.55
4.94
3.37
1.96
0.81
-0.02
-0.50
-0.68
-0.68
-0.64
-0.68
-0.89
-1.28
-1.85
-2.62
-3.61
-4.89
-6.45
-8.17
-9.84
-11.28
-12.39
-13.29
-14.22
-15.44
-17.13
-19.24
-21.56
-23.80
-25.71
-27.17
-28.19
-28.93
-29.61
-30.54
-32.02
-34.26
-37.19
-40.30
-42.62
-42.92
-40.09
-33.53
-23.45
-10.92
2.44
14.91
25.10
32.25
36.27
37.52
36.62
34.22
30.91
27.23
23.62
20.48
18.05
16.42
15.50
15.07
14.93
14.93
15.09
15.53
16.38
17.65
19.17
20.62
21.62
21.86
21.24
19.85
17.95
15.84
13.75
11.81
10.01
8.31
6.64
5.02
3.53
2.24
1.25
0.55
0.06
-0.34
-0.79
-1.37
-2.05
-2.73
-3.32
-3.79
-4.25
-4.84
-5.70
-6.86
-8.22
-9.57
-10.75
-11.71
-12.53
-13.42
-14.57
-16.10
-17.97
-20.03
-22.08
-23.94
-25.50
-26.73
-27.68
-28.44
-29.25
-30.42
-32.30
-35.09
-38.63
-42.29
-44.94
-45.28
-42.19
-35.22
-24.75
-11.98
1.45
13.85
23.97
31.12
35.19
36.52
35.65
33.24
29.94
26.38
23.06
20.30
18.24
16.81
15.84
15.12
14.49
13.94
13.59
13.63
14.20
15.31
16.70
17.98
18.75
18.75
17.96
16.55
14.81
12.98
11.21
9.53
7.94
6.44
5.07
3.84
2.71
1.64
0.54
-0.60
-1.75
-2.81
-3.64
-4.16
-4.35
-4.31
-4.25
-4.38
-4.89
-5.83
-7.09
-8.46
-9.74
-10.77
-11.54
-12.16
-12.87
-13.86
-15.29
-17.12
-19.20
-21.30
-23.16
-24.64
-25.71
-26.52
-27.33
-28.47
-30.23
-32.71
-35.59
-38.12
-39.18
-37.63
-32.71
-24.42
-13.56
-1.57
9.98
19.74
26.94
31.34
33.14
32.80
30.85
27.89
24.49
21.17
18.29
16.06
14.46
13.37
12.59
12.00
11.51
11.17
11.09
11.39
12.16
13.33
14.65
15.81
16.47
16.42
15.59
14.08
12.10
9.94
7.86
6.13
4.84
3.95
3.25
2.45
1.35
-0.07
-1.62
-3.01
-4.00
-4.57
-4.87
-5.14
-5.58
-6.23
-7.00
-7.74
-8.35
-8.80
-9.22
-9.78
-10.70
-12.08
-13.90
-16.00
-18.14
-20.06
-21.57
-22.63
-23.31
-23.77
-24.23
-24.96
-26.26
-28.33
-31.17
-34.32
-36.87
-37.54
-35.19
-29.26
-20.06
-8.79
2.89
13.36
21.48
26.82
29.55
30.16
29.23
27.27
24.66
21.75
18.80
16.08
13.78
12.02
10.83
10.16
9.93
10.04
10.45
11.16
12.17
13.43
14.79
16.02
16.84
17.07
16.65
15.65
14.22
12.55
10.81
9.13
7.55
6.07
4.61
3.12
1.59
0.06
-1.33
-2.47
-3.26
-3.67
-3.80
-3.80
-3.88
-4.24
-5.00
-6.18
-7.59
-8.96
-10.04
-10.68
-10.99
-11.29
-11.92
-13.13
-14.89
-16.96
-18.95
-20.57
-21.72
-22.51
-23.18
-24.01
-25.25
-27.09
-29.58
-32.56
-35.49
-37.46
-37.34
-34.19
-27.63
-18.08
-6.71
4.89
15.23
23.25
28.50
31.10
31.49
30.25
27.96
25.12
22.14
19.30
16.77
14.60
12.82
11.49
10.66
10.41
10.73
11.60
12.88
14.41
16.00
17.45
18.54
19.11
18.99
18.10
16.53
14.49
12.30
10.26
8.54
7.14
5.90
4.59
3.08
1.37
-0.36
-1.90
-3.08
-3.83
-4.25
-4.50
-4.78
-5.22
-5.88
-6.71
-7.62
-8.49
-9.28
-10.02
-10.83
-11.87
-13.26
-15.03
-17.11
-19.36
-21.62
-23.68
-25.39
-26.70
-27.69
-28.64
-29.99
-32.14
-35.20
-38.78
-41.91
-43.27
-41.62
-36.29
-27.44
-16.08
-3.73
8.05
18.04
25.57
30.51
33.03
33.47
32.24
29.78
26.57
23.14
19.95
17.28
15.25
13.81
12.83
12.23
12.03
12.30
13.17
14.64
16.59
18.72
20.62
21.90
22.25
21.65
20.22
18.28
16.15
14.05
12.06
10.15
8.19
6.15
4.03
1.97
0.10
-1.45
-2.62
-3.44
-3.99
-4.40
-4.83
-5.40
-6.17
-7.15
-8.27
-9.41
-10.48
-11.46
-12.45
-13.65
-15.30
-17.51
-20.21
-23.10
-25.82
-28.08
-29.78
-31.08
-32.34
-33.99
-36.40
-39.67
-43.50
-47.07
-49.19
-48.52
-44.08
-35.65
-23.93
-10.43
3.03
14.80
23.83
29.76
32.74
33.22
31.81
29.15
25.90
22.65
19.88
17.77
16.36
15.50
15.11
15.16
15.72
16.86
18.56
20.70
23.05
25.32
27.16
28.29
28.50
27.74
26.09
23.79
21.12
18.33
15.60
12.98
10.52
8.27
6.30
4.68
3.42
2.44
1.56
0.59
-0.54
-1.77
-2.92
-3.78
-4.26
-4.51
-4.84
-5.62
-7.09
-9.23
-11.83
-14.55
-17.12
-19.40
-21.38
-23.12
-24.68
-26.15
-27.77
-29.82
-32.59
-36.02
-39.57
-42.13
-42.31
-38.94
-31.51
-20.49
-7.21
6.54
19.01
28.90
35.55
38.92
39.43
37.72
34.57
30.70
26.70
22.96
19.76
17.27
15.62
14.97
15.38
16.83
19.07
21.73
24.42
26.79
28.61
29.78
30.26
29.99
28.95
27.15
24.68
21.72
18.51
15.27
12.18
9.36
6.85
4.66
2.74
1.09
-0.34
-1.59
-2.74
-3.90
-5.14
-6.51
-8.00
-9.54
-11.13
-12.78
-14.66
-16.91
-19.57
-22.54
-25.50
-28.06
-29.90
-30.91
-31.30
-31.50
-32.08
-33.55
-36.20
-39.94
-44.19
-47.89
-49.70
-48.38
-43.16
-34.10
-22.06
-8.58
4.62
15.99
24.49
29.75
31.92
31.61
29.62
26.81
23.96
21.63
20.16
19.57
19.68
20.18
20.77
21.26
21.62
21.96
22.44
23.13
23.92
24.58
24.86
24.62
23.82
22.56
20.93
19.01
16.87
14.62
12.40
10.34
8.50
6.78
5.02
3.11
1.07
-0.89
-2.48
-3.53
-4.07
-4.34
-4.69
-5.36
-6.43
-7.83
-9.41
-11.10
-12.89
-14.82
-16.87
-18.90
-20.71
-22.14
-23.20
-24.08
-25.17
-26.88
-29.55
-33.25
-37.65
-41.94
-44.91
-45.20
-41.69
-34.00
-22.65
-9.08
4.77
17.07
26.50
32.59
35.54
35.96
34.55
31.93
28.55
24.87
21.34
18.42
16.45
15.53
15.54
16.17
17.10
18.06
18.95
19.73
20.39
20.90
21.23
21.31
21.08
20.47
19.38
17.70
15.37
12.48
9.32
6.24
3.58
1.47
-0.20
-1.71
-3.32
-5.14
-7.11
-9.02
-10.63
-11.80
-12.54
-12.96
-13.28
-13.71
-14.40
-15.44
-16.78
-18.31
-19.84
-21.16
-22.18
-22.92
-23.58
-24.47
-25.98
-28.39
-31.73
-35.58
-39.01
-40.72
-39.34
-33.99
-24.61
-12.15
1.67
14.90
25.91
33.76
38.27
39.84
39.07
36.63
33.09
29.02
24.96
21.43
18.78
17.16
16.48
16.50
16.94
17.57
18.27
18.99
19.72
20.45
21.09
21.53
21.57
21.02
19.74
17.70
15.04
12.04
9.05
6.39
4.19
2.43
0.95
-0.43
-1.87
-3.42
-5.04
-6.63
-8.10
-9.34
-10.29
-10.95
-11.41
-11.87
-12.57
-13.69
-15.27
-17.22
-19.27
-21.16
-22.69
-23.82
-24.69
-25.54
-26.73
-28.56
-31.19
-34.46
-37.79
-40.19
-40.41
-37.41
-30.67
-20.51
-8.08
4.92
16.80
26.23
32.55
35.72
36.19
34.54
31.46
27.55
23.33
19.31
15.85
13.20
11.48
10.68
10.65
11.20
12.11
13.17
14.26
15.27
16.19
16.97
17.52
17.70
17.32
16.23
14.39
11.93
9.09
6.16
3.41
0.98
-1.10
-2.89
-4.47
-5.92
-7.26
-8.50
-9.61
-10.54
-11.27
-11.81
-12.22
-12.64
-13.22
-14.13
-15.47
-17.19
-19.10
-20.96
-22.48
-23.56
-24.28
-24.93
-25.91
-27.62
-30.22
-33.53
-36.91
-39.33
-39.62
-36.75
-30.26
-20.44
-8.37
4.36
16.02
25.24
31.29
34.08
34.10
32.12
28.96
25.32
21.71
18.47
15.77
13.73
12.34
11.58
11.34
11.46
11.78
12.22
12.77
13.47
14.36
15.36
16.28
16.81
16.71
15.82
14.22
12.10
9.74
7.38
5.16
3.15
1.31
-0.38
-2.00
-3.60
-5.22
-6.83
-8.40
-9.87
-11.15
-12.20
-13.04
-13.75
-14.45
-15.31
-16.46
-17.96
-19.76
-21.65
-23.37
-24.70
-25.59
-26.20
-26.93
-28.24
-30.47
-33.59
-37.03
-39.71
-40.30
-37.66
-31.26
-21.40
-9.22
3.68
15.62
25.29
31.96
35.49
36.21
34.75
31.80
28.06
24.15
20.55
17.61
15.51
14.24
13.70
13.66
13.87
14.18
14.55
15.03
15.74
16.73
17.91
19.04
19.82
19.97
19.34
17.92
15.83
13.27
10.48
7.66
4.98
2.55
0.41
-1.46
-3.10
-4.62
-6.07
-7.46
-8.75
-9.84
-10.69
-11.38
-12.08
-13.08
-14.59
-16.68
-19.19
-21.83
-24.20
-26.04
-27.24
-27.91
-28.37
-29.04
-30.36
-32.60
-35.71
-39.16
-41.96
-42.83
-40.62
-34.72
-25.33
-13.54
-0.98
10.61
19.89
26.15
29.37
29.99
28.69
26.14
22.97
19.71
16.85
14.73
13.54
13.26
13.67
14.47
15.40
16.31
17.18
18.03
18.88
19.66
20.24
20.47
20.28
19.61
18.46
16.83
14.74
12.30
9.71
7.25
5.20
3.63
2.41
1.19
-0.37
-2.44
-4.89
-7.33
-9.32
-10.57
-11.11
-11.22
-11.35
-11.90
-13.10
-14.95
-17.26
-19.74
-22.11
-24.14
-25.74
-26.94
-27.96
-29.16
-30.92
-33.52
-36.85
-40.29
-42.74
-42.85
-39.50
-32.21
-21.40
-8.35
5.12
17.20
26.52
32.44
35.04
34.95
33.02
30.12
26.92
23.90
21.37
19.49
18.33
17.87
17.91
18.19
18.43
18.47
18.37
18.33
18.58
19.23
20.19
21.12
21.61
21.31
20.08
18.01
15.40
12.61
9.90
7.47
5.34
3.50
1.92
0.55
-0.65
-1.76
-2.87
-4.05
-5.27
-6.43
-7.42
-8.21
-8.94
-9.80
-10.99
-12.55
-14.33
-16.10
-17.63
-18.88
-19.98
-21.14
-22.57
-24.44
-26.87
-29.93
-33.53
-37.26
-40.23
-41.19
-38.86
-32.50
-22.26
-9.32
4.46
17.09
27.04
33.56
36.70
37.02
35.31
32.41
28.99
25.61
22.69
20.45
18.96
18.13
17.79
17.76
17.89
18.08
18.32
18.63
19.02
19.50
20.00
20.38
20.43
19.97
18.83
16.96
14.47
11.54
8.49
5.62
3.17
1.20
-0.45
-2.06
-3.93
-6.12
-8.49
-10.65
-12.20
-12.93
-12.96
-12.72
-12.76
-13.57
-15.29
-17.77
-20.60
-23.32
-25.60
-27.31
-28.53
-29.50
-30.63
-32.31
-34.89
-38.41
-42.45
-46.02
-47.76
-46.29
-40.78
-31.27
-18.82
-5.18
7.71
18.27
25.63
29.64
30.73
29.66
27.22
24.19
21.15
18.58
16.75
15.76
15.52
15.82
16.41
17.13
17.93
18.82
19.85
20.99
22.12
23.03
23.51
23.42
22.71
21.44
19.75
17.79
15.70
13.56
11.40
9.22
7.00
4.77
2.60
0.57
-1.23
-2.78
-4.09
-5.25
-6.31
-7.30
-8.20
-8.97
-9.61
-10.18
-10.85
-11.81
-13.20
-15.05
-17.29
-19.69
-22.01
-24.08
-25.80
-27.19
-28.39
-29.61
-31.13
-33.25
-36.13
-39.62
-43.04
-45.26
-44.92
-40.88
-32.74
-21.08
-7.36
6.45
18.50
27.47
32.86
34.89
34.30
32.00
28.89
25.71
22.95
20.91
19.67
19.17
19.22
19.57
19.98
20.27
20.39
20.38
20.43
20.70
21.26
21.99
22.57
22.64
21.92
20.36
18.18
15.77
13.50
11.57
9.92
8.38
6.74
4.96
3.18
1.62
0.44
-0.35
-0.92
-1.51
-2.35
-3.52
-4.97
-6.55
-8.11
-9.55
-10.83
-11.93
-12.87
-13.72
-14.60
-15.66
-17.06
-18.86
-20.99
-23.25
-25.36
-27.08
-28.31
-29.16
-29.96
-31.19
-33.29
-36.40
-40.12
-43.45
-45.02
-43.46
-37.92
-28.47
-16.12
-2.58
10.26
20.86
28.35
32.56
33.83
32.81
30.23
26.81
23.17
19.88
17.32
15.73
15.09
15.21
15.82
16.63
17.46
18.18
18.82
19.42
20.00
20.54
20.92
21.00
20.62
19.67
18.13
16.09
13.71
11.18
8.68
6.36
4.32
2.61
1.26
0.20
-0.71
-1.65
-2.78
-4.16
-5.70
-7.18
-8.39
-9.20
-9.73
-10.26
-11.14
-12.63
-14.73
-17.23
-19.77
-22.05
-23.90
-25.38
-26.68
-28.08
-29.87
-32.29
-35.43
-39.09
-42.65
-45.08
-45.13
-41.74
-34.45
-23.68
-10.70
2.75
14.89
24.41
30.65
33.61
33.77
31.87
28.75
25.18
21.76
18.89
16.72
15.22
14.25
13.71
13.48
13.51
13.77
14.24
14.91
15.74
16.69
17.63
18.37
18.66
18.33
17.29
15.61
13.46
11.02
8.47
5.95
3.57
1.46
-0.33
-1.79
-3.05
-4.28
-5.65
-7.16
-8.72
-10.12
-11.19
-11.91
-12.43
-13.06
-14.10
-15.77
-18.12
-20.97
-24.06
-27.07
-29.72
-31.88
-33.55
-34.92
-36.32
-38.15
-40.77
-44.28
-48.33
-52.07
-54.23
-53.45
-48.70
-39.72
-27.16
-12.52
2.27
15.35
25.37
31.72
34.52
34.48
32.53
29.62
26.49
23.62
21.24
19.46
18.33
17.85
18.00
18.64
19.58
20.61
21.55
22.36
23.06
23.72
24.33
24.75
24.77
24.18
22.87
20.89
18.42
15.72
13.01
10.48
8.22
6.27
4.58
3.09
1.68
0.26
-1.24
-2.83
-4.47
-6.09
-7.62
-9.03
-10.34
-11.63
-12.98
-14.53
-16.36
-18.54
-21.01
-23.62
-26.14
-28.36
-30.19
-31.76
-33.50
-35.91
-39.40
-43.91
-48.66
-52.25
-52.97
-49.40
-40.97
-28.28
-12.89
3.07
17.60
29.26
37.35
41.87
43.22
42.00
38.89
34.65
30.05
25.81
22.47
20.31
19.34
19.36
20.06
21.16
22.47
23.90
25.40
26.92
28.35
29.48
30.03
29.74
28.47
26.24
23.28
19.92
16.53
13.36
10.49
7.87
5.32
2.69
-0.11
-3.01
-5.79
-8.20
-10.04
-11.27
-12.13
-12.98
-14.27
-16.26
-18.97
-22.16
-25.41
-28.33
-30.68
-32.49
-34.02
-35.79
-38.33
-42.03
-46.82
-51.95
-56.01
-57.19
-53.89
-45.30
-31.85
-15.14
2.52
18.78
31.87
40.91
45.83
47.14
45.67
42.32
38.04
33.70
30.04
27.52
26.24
26.00
26.37
26.90
27.30
27.51
27.71
28.09
28.78
29.71
30.61
31.14
30.97
29.91
27.97
25.33
22.21
18.88
15.50
12.22
9.15
6.40
4.04
2.10
0.50
-0.92
-2.35
-3.97
-5.76
-7.57
-9.17
-10.35
-11.10
-11.67
-12.44
-13.81
-15.99
-18.94
-22.38
-25.93
-29.22
-32.00
-34.21
-35.95
-37.49
-39.25
-41.76
-45.42
-50.26
-55.65
-60.20
-62.08
-59.51
-51.47
-38.15
-21.03
-2.43
15.14
29.66
39.98
45.88
47.84
46.73
43.55
39.28
34.81
30.90
28.02
26.30
25.53
25.31
25.19
24.89
24.41
23.95
23.76
23.98
24.56
25.24
25.70
25.64
24.84
23.22
20.79
17.75
14.38
11.06
8.13
5.75
3.88
2.24
0.52
-1.52
-3.96
-6.64
-9.27
-11.53
-13.18
-14.13
-14.53
-14.72
-15.15
-16.18
-17.97
-20.36
-22.97
-25.41
-27.39
-28.91
-30.17
-31.54
-33.42
-36.16
-39.81
-44.03
-47.87
-49.88
-48.48
-42.46
-31.62
-16.92
-0.34
15.70
29.10
38.51
43.59
44.76
42.92
39.13
34.39
29.59
25.37
22.15
20.05
18.90
18.36
18.09
17.89
17.74
17.82
18.31
19.27
20.54
21.78
22.57
22.56
21.61
19.81
17.41
14.67
11.82
8.95
6.04
3.03
-0.14
-3.42
-6.69
-9.71
-12.26
-14.22
-15.65
-16.82
-18.05
-19.59
-21.49
-23.57
-25.51
-27.01
-27.95
-28.45
-28.87
-29.71
-31.52
-34.63
-38.99
-43.93
-48.20
-50.11
-48.10
-41.21
-29.59
-14.48
2.01
17.58
30.29
39.00
43.46
44.18
42.11
38.40
34.10
30.09
26.93
24.84
23.75
23.38
23.36
23.35
23.13
22.64
21.98
21.36
21.03
21.12
21.60
22.18
22.42
21.90
20.38
17.92
14.85
11.65
8.77
6.43
4.60
3.05
1.46
-0.35
-2.38
-4.40
-6.12
-7.38
-8.28
-9.13
-10.31
-12.10
-14.53
-17.42
-20.43
-23.30
-25.90
-28.25
-30.45
-32.64
-35.04
-37.85
-41.20
-44.92
-48.29
-50.11
-48.95
-43.65
-33.90
-20.54
-5.34
9.46
21.86
30.65
35.56
37.08
36.09
33.55
30.25
26.85
23.81
21.49
20.05
19.45
19.48
19.77
20.02
20.03
19.82
19.48
19.18
18.97
18.84
18.64
18.25
17.50
16.34
14.74
12.77
10.53
8.15
5.78
3.56
1.59
-0.09
-1.54
-2.82
-4.07
-5.37
-6.77
-8.25
-9.75
-11.19
-12.51
-13.74
-14.99
-16.39
-18.06
-19.96
-21.94
-23.74
-25.18
-26.22
-27.01
-27.85
-29.11
-31.13
-34.07
-37.79
-41.73
-44.85
-45.80
-43.27
-36.50
-25.70
-12.08
2.43
15.77
26.33
33.32
36.75
37.19
35.47
32.39
28.69
24.97
21.72
19.34
17.96
17.53
17.76
18.31
18.85
19.21
19.38
19.45
19.55
19.72
19.86
19.79
19.28
18.17
16.44
14.19
11.63
8.99
6.43
4.10
2.03
0.20
-1.46
-3.06
-4.72
-6.47
-8.28
-10.02
-11.52
-12.64
-13.39
-13.94
-14.59
-15.61
-17.13
-19.10
-21.28
-23.36
-25.13
-26.50
-27.56
-28.52
-29.69
-31.39
-33.85
-37.04
-40.48
-43.21
-43.95
-41.40
-34.80
-24.33
-11.15
2.87
15.69
25.74
32.21
35.16
35.23
33.32
30.26
26.77
23.35
20.36
18.05
16.55
15.88
15.93
16.47
17.17
17.74
17.96
17.84
17.59
17.47
17.65
18.06
18.38
18.18
17.17
15.33
12.88
10.18
7.56
5.18
3.07
1.23
-0.39
-1.77
-2.97
-4.08
-5.24
-6.54
-7.97
-9.43
-10.75
-11.80
-12.55
-13.13
-13.79
-14.79
-16.29
-18.25
-20.48
-22.64
-24.46
-25.81
-26.76
-27.55
-28.51
-30.03
-32.38
-35.54
-39.04
-41.87
-42.63
-40.01
-33.24
-22.54
-9.18
4.95
17.82
27.84
34.25
37.02
36.70
34.10
30.12
25.62
21.37
17.95
15.68
14.57
14.38
14.71
15.19
15.58
15.83
16.04
16.40
16.99
17.80
18.57
18.99
18.75
17.70
15.91
13.60
11.08
8.61
6.31
4.20
2.28
0.54
-0.94
-2.13
-3.03
-3.74
-4.46
-5.38
-6.63
-8.21
-10.00
-11.75
-13.20
-14.11
-14.45
-14.39
-14.31
-14.63
-15.68
-17.54
-20.01
-22.68
-25.11
-27.04
-28.41
-29.38
-30.30
-31.53
-33.41
-36.08
-39.32
-42.44
-44.28
-43.53
-39.13
-30.76
-19.04
-5.40
8.27
20.26
29.37
35.11
37.59
37.32
34.97
31.32
27.12
23.08
19.76
17.47
16.26
15.92
16.14
16.57
16.99
17.35
17.72
18.23
18.94
19.81
20.66
21.26
21.38
20.88
19.73
17.99
15.83
13.50
11.25
9.30
7.74
6.50
5.39
4.19
2.81
1.35
0.08
-0.75
-1.00
-0.73
-0.21
0.23
0.38
0.18
-0.19
-0.48
-0.42
0.09
0.99
1.98
2.62
2.48
1.38
-0.38
-1.91
-1.83
1.33
8.61
20.15
34.99
51.25
66.65
79.07
87.13
90.38
89.20
84.51
77.36
68.67
59.05
48.82
38.16
27.26
16.41
6.05
-3.31
-11.22
-17.34
-21.51
-23.76
-24.28
-23.45
-21.78
-19.88
-18.30
-17.40
-17.17
-17.28
-17.12
-16.08
-13.80
-10.34
-6.23
-2.24
0.88
2.61
2.76
1.36
-1.54
-6.06
-12.42
-20.78
-31.04
-42.70
-54.91
-66.74
-77.40
-86.50
-94.00
-100.17
-105.36
-109.96
-114.20
-118.14
-121.50
-123.64
-123.58
-120.28
-113.00
-101.74
-87.32
-71.30
-55.45
-41.35
-29.96
-21.57
-15.93
-12.47
-10.58
-9.66
-9.19
-8.73
-7.93
-6.58
-4.69
-2.41
-0.00
2.27
4.28
6.07
7.81
9.71
11.88
14.22
16.43
18.08
18.78
18.31
16.73
14.34
11.55
8.78
6.29
4.05
1.88
-0.53
-3.40
-6.77
-10.41
-13.91
-16.85
-18.94
-20.17
-20.78
-21.21
-21.93
-23.39
-25.83
-29.21
-33.06
-36.51
-38.36
-37.41
-32.85
-24.56
-13.33
-0.62
11.82
22.46
30.39
35.41
37.84
38.29
37.35
35.46
33.00
30.32
27.79
25.75
24.41
23.80
23.79
24.12
24.61
25.20
25.98
27.10
28.63
30.45
32.26
33.58
33.96
33.13
31.11
28.18
24.83
21.52
18.52
15.85
13.26
10.42
7.11
3.33
-0.65
-4.38
-7.45
-9.71
-11.31
-12.73
-14.59
-17.44
-21.44
-26.22
-30.78
-33.73
-33.61
-29.40
-20.90
-8.85
5.23
19.49
32.22
42.18
48.78
51.97
52.15
50.03
46.46
42.35
38.48
35.34
33.12
31.72
30.90
30.41
30.11
29.97
30.04
30.41
31.13
32.14
33.23
34.03
34.08
32.98
30.57
26.99
22.67
18.09
13.64
9.44
5.38
1.30
-2.93
-7.21
-11.32
-15.02
-18.16
-20.77
-23.04
-25.26
-27.76
-30.84
-34.58
-38.76
-42.66
-45.08
-44.63
-40.20
-31.41
-18.91
-4.27
10.49
23.51
33.53
40.10
43.43
44.12
42.90
40.48
37.43
34.27
31.35
28.87
26.93
25.48
24.45
23.74
23.32
23.16
23.29
23.73
24.42
25.23
25.87
26.01
25.33
23.68
21.11
17.82
14.06
10.08
6.00
1.91
-2.14
-6.01
-9.54
-12.55
-14.97
-16.86
-18.41
-19.87
-21.46
-23.23
-25.12
-26.92
-28.45
-29.62
-30.48
-31.23
-32.20
-33.73
-36.07
-39.23
-42.81
-45.89
-47.20
-45.38
-39.51
-29.50
-16.24
-1.44
12.86
24.91
33.62
38.73
40.61
39.96
37.53
33.98
29.84
25.65
21.88
18.92
16.96
15.92
15.56
15.59
15.79
16.11
16.63
17.39
18.32
19.20
19.73
19.65
18.85
17.33
15.24
12.76
10.12
7.50
5.09
2.96
1.06
-0.79
-2.83
-5.23
-7.95
-10.77
-13.36
-15.47
-17.12
-18.53
-20.04
-21.92
-24.17
-26.59
-28.84
-30.64
-31.87
-32.64
-33.27
-34.20
-35.87
-38.53
-42.01
-45.55
-47.88
-47.48
-43.10
-34.30
-21.71
-6.91
8.00
21.04
30.87
36.99
39.64
39.50
37.35
33.92
29.79
25.50
21.56
18.41
16.32
15.36
15.34
15.93
16.78
17.62
18.37
19.04
19.68
20.29
20.77
20.97
20.72
19.91
18.50
16.49
13.94
10.93
7.58
4.08
0.65
-2.50
-5.23
-7.53
-9.46
-11.15
-12.72
-14.21
-15.64
-16.94
-18.06
-18.95
-19.61
-20.12
-20.67
-21.53
-23.02
-25.36
-28.51
-31.95
-34.71
-35.52
-33.20
-27.12
-17.44
-5.21
7.89
20.00
29.61
35.83
38.55
38.26
35.80
32.04
27.73
23.40
19.39
15.92
13.12
11.10
9.89
9.43
9.63
10.29
11.21
12.22
13.14
13.85
14.25
14.29
13.88
12.94
11.39
9.18
6.39
3.21
-0.07
-3.13
-5.78
-7.95
-9.77
-11.44
-13.16
-15.05
-17.11
-19.24
-21.28
-23.02
-24.34
-25.21
-25.69
-26.02
-26.56
-27.71
-29.77
-32.82
-36.48
-39.85
-41.69
-40.68
-35.90
-27.19
-15.32
-1.79
11.52
22.95
31.37
36.37
38.15
37.25
34.41
30.38
25.89
21.61
18.07
15.57
14.07
13.32
12.90
12.51
12.02
11.53
11.29
11.50
12.18
13.18
14.16
14.78
14.75
13.93
12.36
10.20
7.74
5.26
3.03
1.15
-0.43
-1.91
-3.51
-5.40
-7.55
-9.83
-11.95
-13.65
-14.81
-15.53
-16.05
-16.71
-17.78
-19.32
-21.24
-23.29
-25.23
-26.93
-28.38
-29.65
-30.90
-32.32
-34.18
-36.69
-39.85
-43.21
-45.77
-46.17
-43.10
-35.86
-24.72
-10.93
3.59
16.88
27.43
34.43
37.79
37.92
35.56
31.61
26.95
22.38
18.47
15.54
13.65
12.73
12.55
12.84
13.32
13.79
14.14
14.37
14.62
14.99
15.52
16.09
16.46
16.40
15.73
14.43
12.58
10.31
7.79
5.19
2.73
0.58
-1.15
-2.50
-3.63
-4.71
-5.87
-7.08
-8.28
-9.36
-10.33
-11.26
-12.28
-13.46
-14.85
-16.44
-18.17
-20.00
-21.85
-23.56
-24.96
-25.93
-26.55
-27.12
-28.13
-30.05
-33.02
-36.70
-40.13
-41.98
-40.91
-36.07
-27.38
-15.65
-2.32
10.89
22.47
31.35
37.04
39.60
39.47
37.29
33.83
29.78
25.70
21.98
18.87
16.47
14.84
13.98
13.83
14.26
15.11
16.24
17.55
18.95
20.31
21.43
22.01
21.78
20.56
18.35
15.36
12.00
8.73
5.91
3.70
1.98
0.48
-1.14
-3.07
-5.27
-7.48
-9.40
-10.82
-11.74
-12.38
-13.10
-14.18
-15.79
-17.88
-20.23
-22.55
-24.57
-26.15
-27.34
-28.33
-29.50
-31.23
-33.87
-37.44
-41.53
-45.18
-47.06
-45.78
-40.42
-30.88
-18.07
-3.61
10.52
22.61
31.56
36.96
39.05
38.42
35.83
32.07
27.88
23.85
20.44
17.86
16.16
15.20
14.80
14.79
15.04
15.53
16.28
17.33
18.67
20.14
21.48
22.34
22.40
21.50
19.66
17.11
14.20
11.29
8.64
6.37
4.47
2.81
1.24
-0.40
-2.15
-4.01
-5.89
-7.68
-9.25
-10.53
-11.48
-12.17
-12.74
-13.39
-14.35
-15.82
-17.84
-20.32
-23.03
-25.69
-28.04
-29.92
-31.36
-32.52
-33.74
-35.47
-38.13
-41.88
-46.34
-50.48
-52.76
-51.55
-45.78
-35.31
-21.14
-5.11
10.68
24.36
34.73
41.29
44.15
43.83
41.12
36.97
32.30
27.93
24.39
21.91
20.43
19.73
19.56
19.73
20.14
20.76
21.58
22.55
23.59
24.55
25.25
25.47
25.04
23.88
22.04
19.69
17.06
14.37
11.78
9.31
6.93
4.56
2.22
-0.04
-2.07
-3.74
-5.04
-6.04
-6.89
-7.78
-8.86
-10.16
-11.64
-13.16
-14.54
-15.65
-16.46
-17.13
-17.95
-19.23
-21.14
-23.63
-26.41
-29.09
-31.32
-32.97
-34.16
-35.24
-36.68
-38.90
-42.03
-45.73
-49.08
-50.70
-49.12
-43.26
-32.94
-19.01
-3.17
12.49
26.09
36.36
42.79
45.51
45.06
42.23
37.87
32.85
27.98
23.87
20.83
18.91
17.91
17.55
17.61
17.98
18.66
19.70
21.11
22.78
24.48
25.91
26.72
26.61
25.42
23.17
20.11
16.65
13.26
10.31
7.93
5.99
4.22
2.30
0.12
-2.25
-4.53
-6.42
-7.76
-8.65
-9.37
-10.28
-11.64
-13.49
-15.63
-17.76
-19.58
-20.91
-21.80
-22.46
-23.24
-24.57
-26.79
-29.98
-33.81
-37.41
-39.49
-38.67
-33.91
-25.00
-12.75
1.21
14.88
26.48
34.83
39.59
41.06
39.93
36.95
32.79
28.03
23.15
18.64
14.92
12.29
10.85
10.47
10.88
11.76
12.87
14.13
15.54
17.09
18.67
19.96
20.57
20.17
18.64
16.11
12.95
9.62
6.49
3.77
1.44
-0.70
-2.87
-5.20
-7.68
-10.13
-12.28
-13.97
-15.13
-15.89
-16.55
-17.41
-18.69
-20.47
-22.64
-24.97
-27.14
-28.87
-30.02
-30.72
-31.33
-32.44
-34.59
-38.04
-42.39
-46.60
-49.08
-48.25
-43.01
-33.23
-19.85
-4.61
10.44
23.51
33.38
39.54
42.12
41.66
38.96
34.96
30.59
26.66
23.72
21.90
21.02
20.72
20.60
20.45
20.24
20.07
20.07
20.28
20.67
21.10
21.42
21.46
21.07
20.13
18.58
16.45
13.90
11.14
8.41
5.87
3.62
1.66
-0.03
-1.50
-2.80
-4.04
-5.30
-6.66
-8.15
-9.70
-11.15
-12.35
-13.23
-13.88
-14.56
-15.58
-17.22
-19.50
-22.20
-24.91
-27.21
-28.85
-29.88
-30.55
-31.29
-32.52
-34.59
-37.60
-41.34
-45.07
-47.58
-47.38
-43.16
-34.37
-21.55
-6.35
9.02
22.38
32.24
38.04
40.01
38.92
35.73
31.41
26.87
22.88
19.98
18.38
17.92
18.18
18.68
19.06
19.17
19.12
19.09
19.25
19.62
20.08
20.40
20.31
19.59
18.18
16.18
13.81
11.38
9.15
7.25
5.64
4.18
2.75
1.29
-0.17
-1.50
-2.63
-3.53
-4.29
-5.03
-5.85
-6.82
-7.89
-8.94
-9.88
-10.65
-11.31
-11.99
-12.91
-14.26
-16.13
-18.48
-21.12
-23.74
-25.98
-27.61
-28.60
-29.22
-29.95
-31.35
-33.79
-37.12
-40.62
-43.00
-42.78
-38.81
-30.68
-18.97
-5.08
9.10
21.77
31.58
37.87
40.64
40.38
37.90
34.08
29.71
25.46
21.76
18.85
16.85
15.74
15.45
15.81
16.60
17.56
18.51
19.39
20.21
21.00
21.70
22.11
21.92
20.88
18.88
16.08
12.83
9.59
6.70
4.35
2.45
0.76
-1.01
-3.03
-5.25
-7.46
-9.35
-10.72
-11.49
-11.85
-12.11
-12.58
-13.55
-15.07
-17.06
-19.30
-21.51
-23.48
-25.10
-26.45
-27.75
-29.32
-31.50
-34.44
-38.01
-41.61
-44.17
-44.35
-41.03
-33.66
-22.62
-9.22
4.72
17.34
27.26
33.81
37.02
37.40
35.70
32.68
29.06
25.39
22.10
19.45
17.53
16.34
15.79
15.75
16.05
16.55
17.08
17.57
18.01
18.40
18.75
19.00
19.01
18.62
17.68
16.15
14.11
11.70
9.15
6.66
4.38
2.39
0.69
-0.73
-1.92
-2.95
-3.90
-4.89
-6.03
-7.37
-8.89
-10.49
-12.04
-13.48
-14.81
-16.14
-17.62
-19.37
-21.42
-23.71
-26.05
-28.25
-30.17
-31.73
-33.06
-34.42
-36.27
-38.97
-42.60
-46.65
-50.00
-51.14
-48.64
-41.73
-30.66
-16.68
-1.73
12.22
23.60
31.62
36.15
37.60
36.63
34.00
30.51
26.92
23.84
21.67
20.46
20.04
20.10
20.31
20.49
20.61
20.74
21.02
21.53
22.25
23.04
23.68
23.86
23.33
21.96
19.78
17.02
14.00
11.04
8.38
6.06
4.05
2.24
0.56
-1.03
-2.53
-3.91
-5.21
-6.46
-7.73
-9.03
-10.34
-11.52
-12.48
-13.17
-13.70
-14.34
-15.43
-17.21
-19.77
-22.91
-26.28
-29.50
-32.22
-34.32
-35.87
-37.08
-38.36
-40.08
-42.49
-45.44
-48.26
-49.82
-48.75
-43.95
-35.03
-22.56
-7.98
6.77
19.85
29.90
36.32
39.16
38.98
36.61
32.96
28.91
25.25
22.51
20.92
20.43
20.71
21.36
22.02
22.48
22.67
22.64
22.53
22.46
22.52
22.68
22.79
22.57
21.77
20.20
17.92
15.21
12.45
9.98
7.93
6.23
4.61
2.86
0.86
-1.26
-3.28
-4.96
-6.21
-7.13
-8.02
-9.19
-10.83
-12.94
-15.31
-17.65
-19.67
-21.25
-22.47
-23.54
-24.83
-26.72
-29.48
-33.08
-37.02
-40.29
-41.53
-39.46
-33.28
-23.14
-10.12
3.98
17.15
27.75
34.83
38.23
38.47
36.44
33.06
29.13
25.24
21.74
18.86
16.75
15.45
14.91
14.98
15.43
16.04
16.68
17.30
17.96
18.68
19.35
19.72
19.48
18.37
16.36
13.60
10.44
7.28
4.47
2.17
0.37
-1.11
-2.58
-4.26
-6.28
-8.54
-10.73
-12.55
-13.77
-14.51
-15.10
-15.98
-17.46
-19.52
-21.91
-24.23
-26.17
-27.66
-28.80
-29.85
-31.12
-32.96
-35.65
-39.31
-43.64
-47.71
-50.08
-49.16
-43.78
-33.77
-20.11
-4.75
10.05
22.37
31.11
36.03
37.65
36.82
34.45
31.35
28.18
25.43
23.43
22.34
22.06
22.31
22.71
22.95
22.88
22.61
22.37
22.40
22.77
23.30
23.68
23.53
22.62
20.92
18.61
15.97
13.30
10.81
8.58
6.64
4.90
3.30
1.81
0.43
-0.82
-1.92
-2.88
-3.80
-4.84
-6.13
-7.69
-9.40
-11.03
-12.38
-13.40
-14.23
-15.22
-16.68
-18.74
-21.26
-23.89
-26.22
-28.01
-29.29
-30.28
-31.34
-32.84
-35.10
-38.27
-42.24
-46.45
-49.85
-51.02
-48.55
-41.59
-30.28
-15.88
-0.42
13.87
25.23
32.75
36.42
36.92
35.25
32.41
29.24
26.37
24.20
22.91
22.43
22.51
22.80
22.96
22.82
22.39
21.84
21.39
21.21
21.34
21.65
21.92
21.85
21.20
19.81
17.72
15.17
12.50
10.07
8.09
6.58
5.35
4.14
2.78
1.24
-0.31
-1.63
-2.56
-3.09
-3.40
-3.71
-4.26
-5.16
-6.41
-7.86
-9.33
-10.59
-11.55
-12.24
-12.87
-13.71
-15.04
-16.93
-19.25
-21.72
-23.95
-25.66
-26.77
-27.42
-27.95
-28.83
-30.49
-33.09
-36.30
-39.24
-40.59
-39.02
-33.63
-24.41
-12.27
1.18
14.11
24.93
32.63
36.92
38.08
36.81
34.02
30.57
27.16
24.25
22.01
20.43
19.39
18.80
18.57
18.65
19.00
19.54
20.19
20.86
21.47
21.93
22.08
21.79
20.91
19.33
17.11
14.43
11.58
8.92
6.68
4.93
3.52
2.23
0.86
-0.61
-2.01
-3.11
-3.76
-3.98
-4.02
-4.19
-4.73
-5.73
-7.09
-8.60
-10.09
-11.48
-12.77
-14.07
-15.52
-17.25
-19.32
-21.64
-24.05
-26.26
-28.03
-29.23
-30.01
-30.73
-31.90
-33.98
-37.12
-40.96
-44.66
-46.92
-46.41
-42.09
-33.69
-21.83
-7.93
6.15
18.61
28.12
34.09
36.61
36.31
34.11
30.98
27.78
25.11
23.26
22.24
21.80
21.66
21.53
21.27
20.85
20.36
19.94
19.73
19.82
20.18
20.62
20.81
20.46
19.37
17.58
15.35
13.05
10.99
9.30
7.96
6.80
5.73
4.66
3.65
2.73
1.92
1.18
0.44
-0.36
-1.26
-2.23
-3.21
-4.12
-4.89
-5.51
-6.05
-6.65
-7.50
-8.70
-10.22
-11.88
-13.44
-14.72
-15.74
-16.69
-17.86
-19.46
-21.49
-23.74
-25.88
-27.62
-28.86
-29.66
-30.25
-30.95
-32.10
-33.97
-36.70
-40.06
-43.43
-45.73
-45.67
-42.11
-34.55
-23.35
-9.82
4.21
16.83
26.63
32.90
35.71
35.65
33.60
30.43
26.91
23.63
21.02
19.27
18.38
18.19
18.41
18.73
18.93
18.92
18.73
18.49
18.35
18.40
18.63
18.87
18.89
18.44
17.38
15.70
13.56
11.21
8.95
6.99
5.43
4.22
3.25
2.35
1.37
0.26
-0.94
-2.11
-3.08
-3.78
-4.21
-4.50
-4.82
-5.32
-6.07
-7.00
-8.00
-8.95
-9.81
-10.66
-11.60
-12.78
-14.23
-15.92
-17.72
-19.52
-21.18
-22.64
-23.93
-25.16
-26.54
-28.36
-30.86
-33.98
-37.23
-39.62
-39.87
-36.81
-29.90
-19.44
-6.64
6.74
18.92
28.50
34.79
37.69
37.61
35.24
31.39
26.87
22.41
18.56
15.61
13.62
12.46
11.95
11.93
12.33
13.10
14.22
15.56
16.97
18.25
19.21
19.69
19.54
18.66
17.00
14.66
11.89
9.03
6.43
4.28
2.64
1.34
0.19
-0.96
-2.13
-3.26
-4.28
-5.15
-5.96
-6.81
-7.80
-8.92
-10.11
-11.25
-12.22
-13.01
-13.65
-14.30
-15.13
-16.29
-17.89
-19.93
-22.30
-24.79
-27.14
-29.14
-30.67
-31.79
-32.81
-34.14
-36.19
-39.12
-42.60
-45.75
-47.22
-45.69
-40.20
-30.68
-18.04
-3.93
9.72
21.27
29.71
34.79
36.79
36.30
34.01
30.63
26.82
23.21
20.30
18.32
17.29
16.98
17.12
17.48
17.97
18.59
19.38
20.31
21.31
22.27
23.01
23.36
23.15
22.25
20.63
18.38
15.76
13.09
10.68
8.68
7.12
5.89
4.77
3.58
2.21
0.70
-0.84
-2.20
-3.27
-4.00
-4.53
-5.09
-5.88
-7.02
-8.48
-10.08
-11.61
-12.99
-14.25
-15.59
-17.22
-19.23
-21.55
-23.95
-26.18
-28.04
-29.57
-30.95
-32.50
-34.59
-37.42
-40.92
-44.61
-47.54
-48.49
-46.22
-40.00
-29.87
-16.84
-2.60
10.93
22.16
30.17
34.79
36.40
35.68
33.34
30.08
26.52
23.23
20.62
18.95
18.21
18.21
18.64
19.21
19.77
20.33
20.98
21.81
22.77
23.64
24.12
23.93
22.95
21.26
19.12
16.85
14.68
12.72
10.91
9.17
7.40
5.59
3.78
2.06
0.51
-0.77
-1.75
-2.45
-2.94
-3.39
-3.96
-4.77
-5.83
-7.01
-8.12
-9.05
-9.86
-10.81
-12.22
-14.26
-16.85
-19.61
-22.09
-23.92
-25.08
-25.84
-26.71
-28.15
-30.44
-33.44
-36.63
-39.10
-39.76
-37.56
-31.81
-22.48
-10.37
3.04
15.92
26.60
33.99
37.74
38.20
36.20
32.68
28.52
24.43
20.89
18.19
16.49
15.76
15.86
16.55
17.58
18.72
19.82
20.75
21.46
21.87
21.96
21.72
21.18
20.32
19.09
17.42
15.27
12.69
9.88
7.09
4.57
2.48
0.84
-0.44
-1.45
-2.29
-3.00
-3.65
-4.36
-5.25
-6.42
-7.80
-9.22
-10.44
-11.32
-11.87
-12.32
-13.01
-14.27
-16.28
-18.95
-22.03
-25.09
-27.76
-29.78
-31.13
-31.99
-32.81
-34.14
-36.42
-39.70
-43.43
-46.43
-47.16
-44.25
-37.03
-25.84
-12.03
2.42
15.53
25.80
32.52
35.76
36.15
34.58
31.99
29.13
26.60
24.71
23.62
23.27
23.49
23.98
24.41
24.55
24.26
23.62
22.85
22.20
21.85
21.80
21.90
21.87
21.43
20.40
18.75
16.58
14.16
11.74
9.59
7.85
6.53
5.50
4.57
3.58
2.45
1.25
0.11
-0.83
-1.50
-1.98
-2.45
-3.13
-4.20
-5.74
-7.62
-9.61
-11.39
-12.76
-13.71
-14.47
-15.41
-16.85
-18.91
-21.41
-23.99
-26.25
-27.92
-29.02
-29.75
-30.53
-31.82
-34.00
-37.20
-41.18
-45.14
-47.85
-47.90
-44.12
-36.12
-24.45
-10.62
3.40
15.69
24.88
30.42
32.52
31.95
29.70
26.75
23.90
21.71
20.41
19.97
20.17
20.68
21.19
21.51
21.58
21.46
21.28
21.16
21.17
21.30
21.47
21.52
21.28
20.56
19.27
17.41
15.15
12.74
10.52
8.72
7.41
6.49
5.74
4.92
3.93
2.81
1.76
1.00
0.64
0.59
0.60
0.33
-0.43
-1.67
-3.16
-4.57
-5.65
-6.38
-6.96
-7.74
-9.04
-10.98
-13.45
-16.11
-18.52
-20.34
-21.41
-21.88
-22.15
-22.77
-24.21
-26.69
-29.91
-33.07
-34.98
-34.45
-30.65
-23.40
-13.33
-1.69
9.96
20.06
27.49
31.69
32.72
31.24
28.17
24.55
21.18
18.49
16.57
15.28
14.43
13.95
13.85
14.16
14.84
15.74
16.65
17.41
17.96
18.33
18.52
18.46
18.03
17.06
15.50
13.40
10.94
8.33
5.77
3.42
1.37
-0.32
-1.63
-2.60
-3.34
-4.03
-4.84
-5.86
-7.07
-8.34
-9.51
-10.49
-11.26
-11.94
-12.70
-13.76
-15.24
-17.19
-19.49
-21.92
-24.17
-26.01
-27.32
-28.24
-29.10
-30.33
-32.31
-35.17
-38.59
-41.76
-43.52
-42.62
-38.17
-29.94
-18.63
-5.67
7.06
17.83
25.49
29.69
30.86
29.89
27.79
25.42
23.34
21.83
20.92
20.53
20.50
20.61
20.66
20.46
19.93
19.15
18.34
17.77
17.63
17.90
18.37
18.72
18.62
17.91
16.55
14.68
12.48
10.15
7.90
5.86
4.15
2.80
1.77
1.00
0.39
-0.11
-0.56
-1.00
-1.46
-1.97
-2.57
-3.23
-3.98
-4.82
-5.79
-6.90
-8.15
-9.47
-10.72
-11.81
-12.72
-13.54
-14.45
-15.65
-17.28
-19.31
-21.56
-23.73
-25.52
-26.77
-27.53
-28.07
-28.81
-30.17
-32.44
-35.56
-39.03
-41.91
-43.02
-41.28
-36.01
-27.27
-15.90
-3.30
8.88
19.14
26.48
30.55
31.61
30.36
27.72
24.61
21.74
19.51
18.05
17.25
16.92
16.87
16.94
17.01
17.04
17.02
16.98
16.99
17.10
17.29
17.44
17.40
17.00
16.15
14.85
13.18
11.27
9.23
7.20
5.26
3.53
2.03
0.77
-0.35
-1.44
-2.58
-3.73
-4.78
-5.59
-6.07
-6.23
-6.22
-6.26
-6.55
-7.18
-8.11
-9.17
-10.13
-10.79
-11.03
-10.92
-10.66
-10.58
-10.97
-12.02
-13.70
-15.80
-18.00
-19.99
-21.51
-22.51
-23.08
-23.53
-24.25
-25.61
-27.77
-30.43
-32.87
-33.96
-32.56
-27.92
-19.96
-9.45
2.26
13.55
22.98
29.64
33.20
33.92
32.41
29.45
25.80
22.12
18.89
16.43
14.83
14.04
13.84
13.95
14.11
14.22
14.33
14.55
14.97
15.60
16.26
16.74
16.81
16.38
15.46
14.13
12.52
10.73
8.91
7.20
5.74
4.60
3.73
2.93
1.96
0.67
-0.87
-2.40
-3.62
-4.33
-4.58
-4.67
-4.96
-5.71
-6.92
-8.41
-9.89
-11.16
-12.19
-13.12
-14.15
-15.47
-17.16
-19.14
-21.25
-23.26
-24.98
-26.30
-27.27
-28.07
-29.00
-30.43
-32.63
-35.66
-39.15
-42.21
-43.59
-42.02
-36.68
-27.55
-15.57
-2.33
10.38
21.04
28.72
33.12
34.45
33.26
30.30
26.39
22.36
18.86
16.32
14.83
14.22
14.12
14.18
14.15
13.99
13.83
13.89
14.30
15.05
15.97
16.78
17.18
17.01
16.23
14.96
13.40
11.72
10.01
8.35
6.70
5.04
3.34
1.65
0.05
-1.33
-2.40
-3.17
-3.75
-4.33
-5.09
-6.08
-7.20
-8.24
-9.02
-9.51
-9.84
-10.29
-11.12
-12.48
-14.32
-16.47
-18.68
-20.75
-22.60
-24.23
-25.71
-27.18
-28.89
-31.06
-33.84
-37.06
-40.12
-42.00
-41.49
-37.60
-30.01
-19.25
-6.66
6.03
17.19
25.71
31.20
33.86
34.23
32.91
30.43
27.29
23.94
20.84
18.33
16.60
15.59
15.12
14.90
14.80
14.81
15.05
15.63
16.57
17.76
18.97
19.90
20.31
20.00
18.92
17.10
14.71
11.92
8.90
5.81
2.73
-0.23
-2.99
-5.47
-7.62
-9.43
-10.97
-12.35
-13.68
-15.02
-16.38
-17.72
-18.97
-20.10
-21.17
-22.36
-23.94
-26.18
-29.20
-32.79
-36.34
-38.85
-39.18
-36.33
-29.90
-20.22
-8.37
4.08
15.53
24.71
30.97
34.25
34.96
33.71
31.17
27.93
24.49
21.23
18.44
16.28
14.82
14.03
13.86
14.23
15.03
16.17
17.49
18.81
19.95
20.70
20.91
20.46
19.31
17.49
15.15
12.48
9.70
6.99
4.45
2.10
-0.10
-2.17
-4.13
-5.96
-7.63
-9.14
-10.51
-11.82
-13.24
-14.88
-16.87
-19.19
-21.69
-24.12
-26.21
-27.79
-28.90
-29.83
-31.05
-33.04
-36.14
-40.27
-44.78
-48.47
-49.83
-47.44
-40.53
-29.31
-15.05
0.21
14.29
25.45
32.81
36.41
36.95
35.48
33.02
30.36
28.01
26.21
25.06
24.48
24.32
24.35
24.35
24.18
23.81
23.39
23.11
23.13
23.50
24.05
24.51
24.55
23.90
22.48
20.34
17.70
14.83
11.98
9.32
6.94
4.84
2.96
1.19
-0.54
-2.32
-4.17
-6.07
-7.90
-9.47
-10.66
-11.44
-12.02
-12.73
-13.95
-15.88
-18.44
-21.30
-24.02
-26.26
-27.92
-29.17
-30.32
-31.75
-33.80
-36.71
-40.50
-44.84
-48.90
-51.39
-50.87
-46.19
-37.03
-24.14
-9.24
5.47
18.01
27.10
32.41
34.41
34.03
32.28
30.05
27.93
26.28
25.26
24.83
24.84
25.00
25.02
24.67
23.90
22.84
21.80
21.09
20.92
21.25
21.85
22.30
22.22
21.38
19.79
17.68
15.38
13.21
11.34
9.76
8.31
6.84
5.27
3.67
2.19
0.98
0.10
-0.54
-1.12
-1.85
-2.82
-4.02
-5.30
-6.49
-7.49
-8.30
-9.04
-9.88
-11.01
-12.51
-14.34
-16.35
-18.40
-20.30
-21.97
-23.35
-24.47
-25.47
-26.67
-28.45
-31.09
-34.50
-38.00
-40.33
-39.99
-35.81
-27.45
-15.72
-2.25
10.89
21.93
29.78
34.18
35.52
34.51
31.99
28.70
25.26
22.16
19.72
18.05
17.09
16.65
16.55
16.63
16.86
17.26
17.92
18.83
19.89
20.87
21.55
21.70
21.20
20.01
18.22
15.98
13.48
10.91
8.43
6.19
4.28
2.73
1.50
0.49
-0.42
-1.34
-2.34
-3.46
-4.65
-5.87
-7.07
-8.19
-9.21
-10.15
-11.09
-12.09
-13.26
-14.67
-16.37
-18.34
-20.50
-22.68
-24.71
-26.47
-27.88
-29.08
-30.29
-31.87
-34.10
-37.02
-40.24
-42.87
-43.69
-41.50
-35.60
-26.06
-13.93
-0.86
11.31
21.09
27.71
31.12
31.82
30.56
28.14
25.27
22.58
20.52
19.36
19.08
19.41
19.92
20.24
20.16
19.74
19.21
18.85
18.87
19.30
19.99
20.64
20.89
20.42
19.08
16.93
14.24
11.44
8.93
6.95
5.53
4.49
3.56
2.53
1.31
-0.05
-1.43
-2.70
-3.77
-4.67
-5.49
-6.31
-7.23
-8.31
-9.53
-10.84
-12.12
-13.25
-14.13
-14.83
-15.51
-16.46
-17.91
-19.96
-22.45
-24.99
-27.17
-28.67
-29.46
-29.80
-30.18
-31.13
-32.99
-35.73
-38.78
-41.08
-41.32
-38.39
-31.77
-21.85
-9.84
2.57
13.72
22.45
28.26
31.22
31.76
30.45
27.89
24.66
21.40
18.66
16.85
16.07
16.15
16.69
17.25
17.54
17.45
17.08
16.63
16.30
16.23
16.40
16.67
16.83
16.66
16.04
14.94
13.44
11.67
9.77
7.82
5.83
3.85
1.91
0.15
-1.28
-2.31
-2.98
-3.46
-3.97
-4.69
-5.68
-6.84
-8.03
-9.06
-9.86
-10.49
-11.12
-11.97
-13.22
-14.90
-16.83
-18.75
-20.35
-21.48
-22.19
-22.76
-23.62
-25.21
-27.75
-31.09
-34.58
-37.09
-37.38
-34.39
-27.76
-17.94
-6.17
5.89
16.65
24.98
30.33
32.73
32.61
30.61
27.46
23.85
20.36
17.37
15.08
13.49
12.50
12.05
12.06
12.52
13.36
14.42
15.53
16.47
17.09
17.28
17.06
16.42
15.42
14.08
12.46
10.59
8.52
6.33
4.08
1.86
-0.19
-1.94
-3.31
-4.29
-5.00
-5.64
-6.45
-7.53
-8.86
-10.27
-11.55
-12.55
-13.29
-13.96
-14.83
-16.15
-18.00
-20.25
-22.61
-24.76
-26.49
-27.77
-28.78
-29.81
-31.21
-33.27
-36.17
-39.79
-43.60
-46.67
-47.75
-45.64
-39.61
-29.73
-17.00
-3.07
10.19
21.22
29.11
33.63
35.12
34.26
31.88
28.77
25.67
23.07
21.27
20.26
19.85
19.76
19.75
19.72
19.66
19.66
19.77
20.03
20.40
20.78
21.05
21.04
20.58
19.59
18.06
16.13
14.01
11.90
9.93
8.10
6.37
4.67
2.96
1.24
-0.47
-2.12
-3.69
-5.12
-6.36
-7.40
-8.29
-9.12
-10.01
-11.04
-12.22
-13.53
-14.95
-16.55
-18.41
-20.60
-23.07
-25.61
-27.97
-29.94
-31.46
-32.72
-34.05
-35.86
-38.48
-42.01
-46.13
-50.07
-52.64
-52.46
-48.41
-40.04
-27.84
-13.19
1.96
15.65
26.36
33.32
36.53
36.57
34.35
30.86
27.03
23.58
20.97
19.39
18.79
18.95
19.55
20.33
21.09
21.79
22.47
23.23
24.13
25.18
26.22
27.02
27.32
26.95
25.86
24.12
21.91
19.44
16.88
14.35
11.92
9.63
7.54
5.70
4.13
2.82
1.69
0.62
-0.52
-1.79
-3.17
-4.56
-5.83
-6.95
-7.97
-9.10
-10.60
-12.60
-15.07
-17.74
-20.26
-22.32
-23.80
-24.79
-25.60
-26.63
-28.25
-30.74
-34.09
-37.94
-41.47
-43.49
-42.72
-38.16
-29.52
-17.39
-3.21
11.17
23.95
33.80
40.10
42.89
42.68
40.25
36.42
31.93
27.42
23.37
20.11
17.83
16.59
16.28
16.71
17.61
18.71
19.76
20.64
21.28
21.68
21.83
21.70
21.19
20.19
18.63
16.52
13.96
11.15
8.37
5.87
3.81
2.21
0.91
-0.35
-1.80
-3.56
-5.57
-7.59
-9.35
-10.62
-11.38
-11.80
-12.20
-12.94
-14.25
-16.17
-18.53
-21.03
-23.35
-25.23
-26.62
-27.64
-28.56
-29.77
-31.65
-34.38
-37.78
-41.16
-43.34
-42.85
-38.48
-29.77
-17.22
-2.36
12.72
25.95
35.88
41.89
44.27
43.84
41.65
38.65
35.57
32.86
30.79
29.41
28.61
28.16
27.74
27.04
25.90
24.40
22.83
21.57
20.87
20.73
20.84
20.78
20.11
18.67
16.56
14.17
11.93
10.15
8.94
8.17
7.57
6.92
6.06
4.99
3.77
2.47
1.17
-0.09
-1.29
-2.41
-3.45
-4.48
-5.60
-6.94
-8.57
-10.53
-12.79
-15.30
-18.05
-21.08
-24.37
-27.86
-31.36
-34.58
-37.26
-39.30
-40.82
-42.17
-43.85
-46.27
-49.52
-53.22
-56.42
-57.84
-56.18
-50.60
-41.06
-28.37
-14.03
0.17
12.60
22.18
28.48
31.62
32.14
30.79
28.39
25.71
23.43
21.93
21.35
21.52
22.12
22.82
23.39
23.75
23.96
24.10
24.22
24.33
24.31
24.08
23.49
22.47
20.96
18.99
16.65
14.10
11.52
9.03
6.68
4.44
2.27
0.14
-1.87
-3.62
-4.95
-5.79
-6.20
-6.40
-6.68
-7.31
-8.38
-9.78
-11.22
-12.36
-13.01
-13.20
-13.24
-13.61
-14.69
-16.67
-19.40
-22.43
-25.27
-27.49
-28.95
-29.78
-30.34
-31.05
-32.31
-34.31
-36.96
-39.73
-41.70
-41.68
-38.56
-31.65
-21.11
-7.97
6.03
18.94
29.15
35.72
38.57
38.26
35.76
32.03
27.94
24.11
20.90
18.55
17.08
16.46
16.53
17.06
17.81
18.55
19.12
19.49
19.70
19.84
19.96
19.96
19.69
18.91
17.47
15.37
12.84
10.19
7.76
5.76
4.21
2.97
1.83
0.63
-0.68
-1.99
-3.11
-3.86
-4.19
-4.23
-4.27
-4.60
-5.43
-6.77
-8.42
-10.11
-11.58
-12.75
-13.73
-14.74
-15.97
-17.48
-19.18
-20.91
-22.54
-23.99
-25.30
-26.54
-27.78
-29.11
-30.67
-32.66
-35.19
-38.06
-40.63
-41.77
-40.22
-35.02
-26.02
-14.02
-0.65
12.21
22.88
30.38
34.48
35.60
34.47
31.89
28.57
25.09
21.87
19.29
17.57
16.78
16.80
17.35
18.01
18.44
18.51
18.28
18.01
17.95
18.20
18.64
18.95
18.81
18.02
16.61
14.79
12.87
11.10
9.54
8.12
6.66
5.01
3.13
1.14
-0.71
-2.21
-3.24
-3.85
-4.26
-4.73
-5.45
-6.49
-7.78
-9.17
-10.53
-11.78
-12.91
-13.98
-15.05
-16.20
-17.50
-19.03
-20.79
-22.71
-24.65
-26.39
-27.78
-28.86
-29.88
-31.26
-33.37
-36.33
-39.67
-42.40
-43.19
-40.78
-34.46
-24.42
-11.81
1.60
13.88
23.50
29.67
32.38
32.28
30.30
27.39
24.35
21.72
19.77
18.61
18.12
18.09
18.25
18.38
18.38
18.28
18.18
18.21
18.41
18.77
19.15
19.40
19.29
18.65
17.34
15.36
12.88
10.19
7.64
5.50
3.85
2.60
1.54
0.49
-0.68
-1.95
-3.29
-4.64
-5.93
-7.11
-8.14
-8.93
-9.47
-9.83
-10.20
-10.87
-12.10
-13.98
-16.44
-19.17
-21.81
-23.98
-25.48
-26.35
-26.83
-27.41
-28.62
-30.85
-34.09
-37.76
-40.72
-41.53
-38.96
-32.42
-22.26
-9.73
3.43
15.42
24.90
31.12
34.05
34.17
32.25
29.18
25.76
22.57
19.97
18.10
16.90
16.25
16.01
16.03
16.24
16.56
16.93
17.32
17.71
18.09
18.40
18.58
18.50
18.01
16.97
15.31
13.10
10.52
7.84
5.32
3.16
1.43
0.11
-0.92
-1.84
-2.81
-3.97
-5.37
-6.93
-8.50
-9.91
-11.03
-11.94
-12.81
-13.92
-15.48
-17.51
-19.85
-22.24
-24.41
-26.20
-27.58
-28.67
-29.69
-30.97
-32.82
-35.49
-38.87
-42.40
-45.01
-45.36
-42.28
-35.23
-24.59
-11.62
1.87
14.06
23.61
29.91
33.03
33.56
32.29
30.01
27.44
25.11
23.40
22.42
22.14
22.32
22.69
22.99
23.05
22.89
22.61
22.39
22.35
22.50
22.74
22.80
22.40
21.33
19.57
17.28
14.77
12.38
10.34
8.68
7.27
5.93
4.54
3.12
1.75
0.52
-0.51
-1.41
-2.30
-3.33
-4.60
-6.11
-7.77
-9.44
-10.95
-12.24
-13.36
-14.49
-15.86
-17.63
-19.85
-22.34
-24.83
-27.03
-28.76
-30.05
-31.10
-32.27
-33.92
-36.35
-39.53
-42.99
-45.78
-46.61
-44.20
-37.84
-27.66
-14.76
-0.86
12.17
22.84
30.33
34.49
35.76
34.86
32.65
29.97
27.49
25.64
24.52
23.95
23.65
23.37
22.99
22.59
22.24
22.02
21.93
21.94
22.00
22.07
22.07
21.84
21.19
19.93
18.00
15.55
12.88
10.35
8.26
6.71
5.58
4.69
3.82
2.89
1.91
0.96
0.07
-0.77
-1.67
-2.73
-3.97
-5.36
-6.75
-7.97
-8.91
-9.61
-10.25
-11.09
-12.36
-14.14
-16.33
-18.65
-20.80
-22.59
-23.97
-25.07
-26.11
-27.39
-29.19
-31.69
-34.85
-38.18
-40.71
-41.13
-38.21
-31.29
-20.64
-7.54
6.13
18.41
27.87
33.83
36.42
36.29
34.29
31.26
27.89
24.67
21.96
19.96
18.70
18.11
18.04
18.29
18.69
19.13
19.58
20.04
20.49
20.83
20.95
20.69
19.95
18.73
17.07
15.08
12.86
10.53
8.17
5.88
3.82
2.07
0.71
-0.29
-1.06
-1.80
-2.66
-3.77
-5.09
-6.52
-7.89
-9.04
-9.91
-10.57
-11.20
-11.99
-13.15
-14.77
-16.84
-19.27
-21.86
-24.36
-26.53
-28.19
-29.35
-30.21
-31.18
-32.73
-35.15
-38.30
-41.53
-43.67
-43.38
-39.58
-31.86
-20.76
-7.64
5.61
17.20
25.84
31.03
33.04
32.69
30.96
28.75
26.65
24.95
23.76
23.07
22.78
22.79
22.92
22.94
22.69
22.11
21.33
20.62
20.25
20.31
20.66
20.93
20.68
19.58
17.60
15.01
12.28
9.85
7.96
6.63
5.65
4.75
3.74
2.57
1.29
0.04
-1.09
-2.05
-2.85
-3.50
-4.07
-4.60
-5.20
-5.96
-6.94
-8.12
-9.45
-10.79
-12.08
-13.30
-14.56
-15.96
-17.62
-19.53
-21.58
-23.59
-25.37
-26.84
-28.00
-28.99
-30.01
-31.31
-33.12
-35.53
-38.42
-41.24
-43.09
-42.85
-39.48
-32.48
-22.20
-9.82
2.94
14.31
22.97
28.33
30.54
30.25
28.32
25.61
22.83
20.51
18.95
18.25
18.30
18.83
19.51
20.04
20.21
20.00
19.48
18.84
18.26
17.87
17.73
17.72
17.63
17.21
16.29
14.87
13.12
11.24
9.43
7.75
6.15
4.56
2.99
1.54
0.39
-0.37
-0.80
-1.09
-1.53
-2.32
-3.51
-4.96
-6.41
-7.62
-8.50
-9.12
-9.70
-10.52
-11.75
-13.40
-15.35
-17.34
-19.11
-20.50
-21.44
-22.01
-22.45
-23.09
-24.30
-26.34
-29.14
-32.19
-34.53
-34.99
-32.57
-26.78
-17.92
-7.01
4.44
14.90
23.12
28.42
30.77
30.65
28.82
26.14
23.31
20.76
18.65
16.98
15.66
14.67
14.04
13.79
13.90
14.25
14.68
15.08
15.41
15.68
15.91
16.00
15.78
15.04
13.65
11.68
9.38
7.07
4.99
3.23
1.74
0.43
-0.71
-1.60
-2.15
-2.38
-2.47
-2.74
-3.49
-4.83
-6.64
-8.59
-10.31
-11.58
-12.40
-12.98
-13.67
-14.78
-16.42
-18.51
-20.81
-23.00
-24.83
-26.20
-27.17
-28.00
-29.08
-30.80
-33.42
-36.82
-40.43
-43.19
-43.81
-41.17
-34.74
-24.87
-12.78
-0.22
11.10
19.90
25.64
28.43
28.79
27.50
25.32
22.96
21.02
19.88
19.67
20.19
21.04
21.80
22.16
22.03
21.55
20.95
20.44
20.14
20.04
20.04
19.99
19.69
19.00
17.80
16.06
13.88
11.47
9.09
6.97
5.25
3.91
2.81
1.76
0.66
-0.51
-1.61
-2.51
-3.17
-3.70
-4.37
-5.41
-6.89
-8.70
-10.52
-12.03
-13.10
-13.78
-14.40
-15.31
-16.81
-18.94
-21.52
-24.20
-26.59
-28.42
-29.63
-30.36
-30.97
-31.92
-33.62
-36.28
-39.70
-43.17
-45.55
-45.53
-42.09
-34.86
-24.34
-11.82
1.03
12.57
21.61
27.55
30.41
30.65
29.02
26.38
23.55
21.23
19.80
19.32
19.58
20.20
20.87
21.36
21.59
21.58
21.38
21.07
20.74
20.51
20.45
20.56
20.67
20.58
20.01
18.79
16.92
14.58
12.05
9.63
7.50
5.72
4.26
2.98
1.75
0.48
-0.88
-2.28
-3.62
-4.77
-5.61
-6.19
-6.69
-7.42
-8.69
-10.65
-13.23
-16.12
-18.88
-21.14
-22.78
-23.90
-24.84
-26.00
-27.79
-30.42
-33.79
-37.39
-40.28
-41.24
-39.13
-33.29
-23.85
-11.81
1.22
13.44
23.36
30.12
33.57
34.16
32.65
29.96
26.89
24.04
21.78
20.20
19.23
18.68
18.38
18.23
18.19
18.25
18.44
18.74
19.12
19.52
19.82
19.89
19.58
18.76
17.39
15.55
13.38
11.04
8.69
6.43
4.34
2.47
0.89
-0.38
-1.42
-2.40
-3.51
-4.91
-6.54
-8.19
-9.60
-10.58
-11.17
-11.61
-12.32
-13.64
-15.70
-18.37
-21.28
-24.04
-26.33
-28.04
-29.25
-30.23
-31.30
-32.79
-34.97
-37.86
-41.16
-44.13
-45.68
-44.56
-39.84
-31.23
-19.39
-5.78
7.71
19.29
27.73
32.59
34.21
33.42
31.28
28.75
26.51
24.94
24.10
23.86
24.03
24.39
24.73
24.85
24.61
23.99
23.14
22.31
21.76
21.64
21.87
22.12
22.01
21.23
19.68
17.52
15.06
12.63
10.51
8.79
7.46
6.33
5.21
3.92
2.43
0.82
-0.70
-1.88
-2.62
-2.99
-3.23
-3.68
-4.58
-6.04
-7.91
-9.87
-11.57
-12.82
-13.64
-14.28
-15.10
-16.40
-18.25
-20.48
-22.76
-24.77
-26.31
-27.38
-28.16
-28.95
-30.09
-31.89
-34.47
-37.65
-40.74
-42.68
-42.16
-38.13
-30.21
-18.98
-5.87
7.22
18.49
26.73
31.54
33.23
32.59
30.53
27.90
25.38
23.42
22.24
21.80
21.88
22.16
22.34
22.26
21.94
21.57
21.33
21.37
21.67
22.10
22.42
22.40
21.88
20.79
19.14
17.03
14.61
12.10
9.68
7.49
5.60
3.99
2.61
1.41
0.35
-0.56
-1.37
-2.12
-2.88
-3.72
-4.68
-5.77
-6.95
-8.20
-9.50
-10.87
-12.37
-14.03
-15.88
-17.89
-19.98
-22.00
-23.80
-25.25
-26.37
-27.39
-28.69
-30.68
-33.58
-37.13
-40.52
-42.53
-41.81
-37.43
-29.25
-18.05
-5.36
6.95
17.25
24.54
28.61
29.86
29.10
27.19
24.86
22.59
20.68
19.26
18.39
18.04
18.12
18.44
18.73
18.81
18.57
18.14
17.76
17.68
17.96
18.44
18.74
18.46
17.39
15.56
13.27
10.90
8.77
7.07
5.83
4.95
4.24
3.56
2.78
1.85
0.80
-0.27
-1.27
-2.14
-2.88
-3.57
-4.33
-5.29
-6.51
-7.96
-9.52
-11.03
-12.34
-13.39
-14.28
-15.22
-16.45
-18.15
-20.32
-22.77
-25.19
-27.26
-28.74
-29.61
-30.11
-30.67
-31.78
-33.75
-36.53
-39.53
-41.72
-41.86
-38.90
-32.34
-22.48
-10.42
2.21
13.71
22.67
28.35
30.73
30.42
28.39
25.67
23.08
21.10
19.84
19.15
18.78
18.57
18.44
18.38
18.40
18.44
18.42
18.27
18.04
17.81
17.66
17.55
17.32
16.75
15.64
14.03
12.08
10.07
8.19
6.52
5.00
3.52
2.06
0.68
-0.48
-1.33
-1.87
-2.25
-2.67
-3.30
-4.19
-5.30
-6.46
-7.54
-8.47
-9.29
-10.15
-11.18
-12.51
-14.12
-15.88
-17.63
-19.16
-20.35
-21.19
-21.79
-22.36
-23.22
-24.66
-26.81
-29.53
-32.25
-34.02
-33.71
-30.39
-23.68
-14.01
-2.57
9.02
19.16
26.65
30.97
32.26
31.16
28.50
25.11
21.63
18.45
15.80
13.75
12.32
11.50
11.26
11.54
12.22
13.18
14.28
15.38
16.38
17.15
17.56
17.43
16.62
15.07
12.90
10.39
7.87
5.65
3.87
2.50
1.38
0.32
-0.83
-2.13
-3.53
-4.95
-6.28
-7.46
-8.45
-9.25
-9.90
-10.48
-11.10
-11.91
-13.02
-14.49
-16.32
-18.38
-20.54
-22.60
-24.40
-25.82
-26.86
-27.66
-28.52
-29.88
-32.11
-35.32
-39.10
-42.47
-44.13
-42.79
-37.66
-28.77
-17.03
-3.97
8.69
19.47
27.35
31.94
33.42
32.37
29.65
26.24
22.99
20.52
19.10
18.63
18.74
19.00
19.08
18.86
18.42
18.00
17.83
18.01
18.47
19.03
19.41
19.42
18.93
17.93
16.44
14.57
12.44
10.19
7.95
5.83
3.93
2.24
0.73
-0.68
-2.04
-3.39
-4.76
-6.13
-7.49
-8.82
-10.07
-11.19
-12.13
-12.86
-13.42
-13.97
-14.72
-15.85
-17.47
-19.51
-21.77
-23.95
-25.80
-27.27
-28.49
-29.78
-31.49
-33.92
-37.07
-40.57
-43.62
-45.16
-44.08
-39.53
-31.27
-19.83
-6.45
7.19
19.35
28.69
34.53
36.88
36.37
33.95
30.59
27.09
23.99
21.58
19.92
18.99
18.71
18.90
19.36
19.88
20.31
20.62
20.86
21.11
21.43
21.76
21.91
21.65
20.76
19.13
16.86
14.18
11.40
8.80
6.47
4.38
2.37
0.33
-1.79
-3.93
-5.95
-7.71
-9.14
-10.23
-11.09
-11.88
-12.87
-14.31
-16.34
-18.91
-21.73
-24.37
-26.45
-27.82
-28.66
-29.45
-30.82
-33.23
-36.81
-41.13
-45.19
-47.62
-47.02
-42.37
-33.45
-21.02
-6.65
7.65
20.01
29.15
34.60
36.67
36.15
34.02
31.13
28.16
25.50
23.40
21.96
21.21
21.07
21.36
21.83
22.25
22.49
22.59
22.65
22.79
23.01
23.16
23.00
22.31
20.99
19.12
16.88
14.48
12.10
9.87
7.83
5.96
4.25
2.66
1.16
-0.28
-1.67
-3.01
-4.33
-5.66
-6.99
-8.33
-9.66
-10.99
-12.40
-14.04
-16.03
-18.39
-21.02
-23.71
-26.21
-28.33
-30.00
-31.26
-32.28
-33.34
-34.81
-37.09
-40.42
-44.58
-48.75
-51.53
-51.27
-46.69
-37.37
-24.05
-8.47
7.17
20.80
31.05
37.34
39.88
39.40
36.85
33.21
29.40
26.12
23.82
22.64
22.44
22.89
23.64
24.40
25.00
25.39
25.62
25.75
25.85
25.91
25.90
25.66
25.06
23.96
22.30
20.15
17.63
14.96
12.34
9.94
7.89
6.18
4.76
3.46
2.11
0.56
-1.19
-3.03
-4.75
-6.11
-7.01
-7.53
-7.93
-8.52
-9.60
-11.27
-13.48
-16.02
-18.67
-21.19
-23.43
-25.33
-26.91
-28.34
-29.94
-32.08
-35.01
-38.58
-42.06
-44.15
-43.35
-38.49
-29.30
-16.59
-2.15
11.87
23.57
31.85
36.50
38.01
37.18
34.84
31.62
28.05
24.58
21.59
19.44
18.26
17.98
18.34
18.98
19.61
20.11
20.50
20.90
21.34
21.74
21.89
21.55
20.55
18.89
16.74
14.37
12.00
9.78
7.75
5.85
4.04
2.28
0.60
-0.94
-2.27
-3.33
-4.10
-4.67
-5.18
-5.83
-6.73
-7.89
-9.20
-10.52
-11.72
-12.82
-13.95
-15.28
-16.93
-18.92
-21.15
-23.40
-25.51
-27.38
-29.00
-30.42
-31.79
-33.31
-35.23
-37.75
-40.84
-44.04
-46.40
-46.57
-43.32
-35.93
-24.66
-10.80
3.71
16.82
26.98
33.47
36.39
36.42
34.49
31.51
28.22
25.21
22.85
21.36
20.71
20.70
20.95
21.11
20.96
20.49
19.93
19.60
19.71
20.28
21.00
21.43
21.12
19.82
17.56
14.67
11.60
8.77
6.44
4.68
3.37
2.31
1.31
0.25
-0.87
-1.94
-2.85
-3.49
-3.91
-4.28
-4.87
-5.89
-7.34
-9.03
-10.63
-11.86
-12.66
-13.27
-14.10
-15.45
-17.42
-19.75
-22.02
-23.81
-24.94
-25.46
-25.66
-26.00
-26.93
-28.76
-31.53
-34.82
-37.71
-38.93
-37.21
-31.72
-22.47
-10.34
3.03
15.82
26.41
33.79
37.64
38.26
36.37
32.88
28.75
24.80
21.61
19.42
18.14
17.51
17.20
16.97
16.76
16.64
16.69
16.96
17.40
17.87
18.21
18.29
17.97
17.13
15.68
13.53
10.78
7.65
4.51
1.74
-0.44
-2.01
-3.18
-4.28
-5.57
-7.12
-8.80
-10.36
-11.59
-12.39
-12.87
-13.25
-13.84
-14.91
-16.56
-18.72
-21.11
-23.38
-25.22
-26.48
-27.30
-28.01
-29.12
-31.08
-34.07
-37.79
-41.38
-43.56
-42.96
-38.56
-30.11
-18.34
-4.77
8.65
20.13
28.44
33.16
34.60
33.55
31.01
27.93
24.99
22.60
20.88
19.75
19.08
18.72
18.56
18.54
18.60
18.69
18.80
18.92
19.04
19.13
19.12
18.88
18.27
17.19
15.59
13.56
11.24
8.82
6.47
4.32
2.39
0.66
-0.88
-2.25
-3.42
-4.39
-5.23
-6.05
-6.96
-8.07
-9.36
-10.71
-12.02
-13.22
-14.32
-15.47
-16.84
-18.55
-20.60
-22.87
-25.14
-27.20
-28.90
-30.23
-31.34
-32.48
-34.02
-36.26
-39.32
-42.89
-46.16
-47.89
-46.74
-41.71
-32.56
-20.04
-5.72
8.40
20.45
29.19
34.15
35.60
34.31
31.27
27.49
23.84
20.96
19.22
18.65
19.01
19.84
20.68
21.17
21.20
20.91
20.57
20.41
20.51
20.73
20.80
20.47
19.57
18.11
16.22
14.07
11.83
9.64
7.61
5.79
4.21
2.84
1.62
0.51
-0.52
-1.45
-2.27
-2.99
-3.68
-4.46
-5.39
-6.49
-7.64
-8.70
-9.55
-10.21
-10.85
-11.76
-13.20
-15.26
-17.81
-20.59
-23.23
-25.45
-27.09
-28.19
-28.96
-29.82
-31.22
-33.54
-36.82
-40.56
-43.68
-44.72
-42.32
-35.72
-25.11
-11.64
2.89
16.51
27.58
35.13
38.94
39.41
37.39
33.87
29.78
25.81
22.42
19.83
18.10
17.18
16.97
17.28
17.87
18.52
19.09
19.57
20.06
20.67
21.43
22.17
22.59
22.34
21.20
19.18
16.50
13.52
10.55
7.85
5.50
3.50
1.83
0.49
-0.52
-1.28
-1.97
-2.81
-3.98
-5.55
-7.37
-9.22
-10.87
-12.18
-13.23
-14.20
-15.33
-16.81
-18.70
-20.91
-23.27
-25.61
-27.76
-29.66
-31.29
-32.80
-34.43
-36.56
-39.50
-43.27
-47.33
-50.60
-51.58
-48.87
-41.66
-30.16
-15.57
0.19
15.00
27.13
35.52
39.90
40.68
38.77
35.31
31.40
27.95
25.45
24.04
23.55
23.64
24.00
24.39
24.66
24.75
24.69
24.53
24.39
24.37
24.47
24.59
24.49
23.90
22.63
20.65
18.11
15.28
12.45
9.82
7.48
5.41
3.54
1.80
0.16
-1.38
-2.79
-4.07
-5.26
-6.39
-7.54
-8.72
-9.95
-11.18
-12.35
-13.46
-14.58
-15.85
-17.41
-19.37
-21.70
-24.29
-26.91
-29.33
-31.38
-32.99
-34.25
-35.43
-37.00
-39.38
-42.79
-46.92
-50.79
-52.88
-51.58
-45.75
-35.22
-20.94
-4.77
11.07
24.62
34.54
40.36
42.29
41.12
37.89
33.77
29.80
26.74
24.95
24.34
24.54
25.05
25.45
25.53
25.29
24.89
24.52
24.33
24.39
24.61
24.81
24.76
24.20
22.97
21.04
18.53
15.68
12.72
9.86
7.27
5.03
3.18
1.71
0.52
-0.57
-1.75
-3.14
-4.70
-6.21
-7.38
-8.05
-8.30
-8.46
-9.00
-10.24
-12.27
-14.85
-17.58
-20.09
-22.16
-23.76
-25.05
-26.26
-27.67
-29.63
-32.41
-36.07
-40.15
-43.61
-44.99
-42.76
-35.99
-24.79
-10.46
4.87
18.86
29.67
36.38
39.05
38.49
35.80
32.02
27.96
24.19
21.02
18.68
17.23
16.62
16.68
17.13
17.70
18.18
18.50
18.69
18.89
19.15
19.45
19.65
19.52
18.85
17.53
15.63
13.37
11.03
8.87
7.00
5.35
3.77
2.10
0.32
-1.43
-2.96
-4.07
-4.73
-5.08
-5.37
-5.86
-6.67
-7.82
-9.19
-10.65
-12.10
-13.56
-15.09
-16.82
-18.86
-21.19
-23.69
-26.14
-28.34
-30.15
-31.57
-32.74
-33.90
-35.39
-37.52
-40.47
-44.06
-47.60
-49.87
-49.40
-44.92
-35.93
-22.97
-7.65
7.86
21.44
31.59
37.70
40.04
39.41
36.83
33.29
29.62
26.43
24.13
22.84
22.46
22.65
23.02
23.21
23.07
22.66
22.18
21.85
21.78
21.92
22.07
21.97
21.40
20.27
18.62
16.62
14.46
12.34
10.42
8.74
7.31
6.04
4.75
3.34
1.75
0.04
-1.61
-3.00
-3.98
-4.58
-5.02
-5.63
-6.69
-8.28
-10.23
-12.19
-13.85
-15.06
-15.94
-16.81
-18.00
-19.67
-21.72
-23.85
-25.75
-27.19
-28.18
-28.91
-29.71
-30.93
-32.87
-35.69
-39.26
-42.99
-45.88
-46.60
-43.90
-37.05
-26.18
-12.38
2.55
16.58
27.99
35.69
39.42
39.64
37.30
33.55
29.47
25.87
23.18
21.47
20.61
20.31
20.34
20.53
20.77
21.01
21.21
21.39
21.57
21.77
21.98
22.11
22.01
21.48
20.41
18.76
16.62
14.15
11.57
9.06
6.76
4.72
2.91
1.25
-0.29
-1.74
-3.07
-4.26
-5.33
-6.34
-7.39
-8.51
-9.67
-10.82
-11.95
-13.11
-14.45
-16.10
-18.14
-20.49
-22.97
-25.30
-27.28
-28.80
-29.90
-30.82
-31.95
-33.70
-36.36
-39.81
-43.43
-46.09
-46.37
-43.07
-35.61
-24.34
-10.52
3.97
17.18
27.54
34.24
37.24
37.15
34.94
31.65
28.18
25.15
22.90
21.47
20.72
20.42
20.34
20.30
20.24
20.16
20.09
20.09
20.16
20.31
20.46
20.52
20.37
19.86
18.87
17.30
15.20
12.69
10.05
7.60
5.59
4.07
2.94
1.97
0.94
-0.20
-1.38
-2.42
-3.20
-3.76
-4.28
-5.01
-6.11
-7.55
-9.14
-10.63
-11.92
-13.05
-14.27
-15.82
-17.86
-20.33
-23.00
-25.56
-27.78
-29.56
-30.96
-32.20
-33.57
-35.40
-37.96
-41.28
-44.98
-48.16
-49.54
-47.78
-41.97
-32.07
-19.05
-4.65
9.06
20.34
28.19
32.43
33.58
32.55
30.30
27.63
25.13
23.14
21.80
21.09
20.85
20.87
20.92
20.80
20.45
19.93
19.37
18.97
18.84
18.98
19.22
19.29
18.93
18.02
16.58
14.79
12.92
11.15
9.60
8.26
7.05
5.90
4.76
3.67
2.69
1.88
1.27
0.82
0.36
-0.30
-1.33
-2.79
-4.60
-6.54
-8.37
-9.90
-11.09
-12.07
-13.05
-14.24
-15.81
-17.74
-19.92
-22.14
-24.16
-25.83
-27.11
-28.12
-29.17
-30.65
-32.88
-35.90
-39.30
-42.19
-43.34
-41.49
-35.83
-26.33
-13.83
0.08
13.52
24.76
32.70
37.00
38.01
36.55
33.59
29.97
26.33
23.10
20.52
18.78
17.92
17.85
18.36
19.11
19.79
20.24
20.48
20.65
20.91
21.26
21.50
21.29
20.35
18.62
16.28
13.70
11.24
9.12
7.34
5.75
4.17
2.54
0.88
-0.68
-2.06
-3.24
-4.29
-5.33
-6.44
-7.66
-8.94
-10.19
-11.29
-12.20
-12.98
-13.77
-14.80
-16.25
-18.20
-20.61
-23.28
-25.93
-28.30
-30.21
-31.63
-32.72
-33.78
-35.28
-37.59
-40.81
-44.49
-47.62
-48.72
-46.40
-39.83
-29.15
-15.55
-0.91
12.74
23.81
31.43
35.51
36.56
35.39
32.90
29.91
27.09
24.90
23.57
23.05
23.14
23.54
23.93
24.12
24.04
23.76
23.45
23.28
23.35
23.63
23.91
23.93
23.43
22.24
20.38
18.00
15.37
12.74
10.31
8.21
6.47
5.03
3.80
2.68
1.60
0.57
-0.38
-1.17
-1.77
-2.25
-2.71
-3.33
-4.22
-5.43
-6.90
-8.50
-10.10
-11.60
-13.02
-14.45
-16.03
-17.86
-19.99
-22.36
-24.84
-27.26
-29.46
-31.31
-32.75
-33.83
-34.75
-35.89
-37.70
-40.50
-44.23
-48.18
-51.02
-51.13
-47.13
-38.51
-25.88
-10.91
4.21
17.43
27.36
33.53
36.19
36.05
33.99
30.83
27.33
24.14
21.80
20.60
20.52
21.22
22.18
22.82
22.83
22.20
21.26
20.46
20.14
20.36
20.88
21.27
21.12
20.27
18.80
16.95
14.99
13.07
11.21
9.39
7.54
5.68
3.86
2.12
0.51
-0.92
-2.08
-2.90
-3.36
-3.56
-3.69
-4.00
-4.70
-5.82
-7.24
-8.70
-9.97
-10.97
-11.81
-12.80
-14.20
-16.15
-18.50
-20.92
-23.01
-24.50
-25.41
-26.00
-26.76
-28.18
-30.62
-34.11
-38.27
-42.18
-44.56
-44.07
-39.70
-31.14
-19.06
-4.95
9.26
21.66
30.90
36.42
38.38
37.46
34.60
30.71
26.54
22.69
19.54
17.33
16.10
15.77
16.11
16.85
17.73
18.59
19.39
20.12
20.78
21.33
21.64
21.61
21.14
20.20
18.80
17.04
15.05
12.98
10.94
8.99
7.14
5.34
3.58
1.87
0.28
-1.17
-2.47
-3.71
-5.00
-6.41
-7.95
-9.55
-11.10
-12.50
-13.73
-14.85
-16.03
-17.46
-19.29
-21.56
-24.13
-26.73
-29.05
-30.86
-32.15
-33.17
-34.36
-36.22
-39.05
-42.78
-46.75
-49.79
-50.44
-47.38
-39.97
-28.53
-14.39
0.48
14.00
24.55
31.35
34.45
34.57
32.73
29.91
26.94
24.35
22.47
21.41
21.10
21.38
21.99
22.65
23.14
23.33
23.27
23.12
23.10
23.34
23.83
24.35
24.59
24.22
23.05
21.09
18.58
15.87
13.29
11.02
9.12
7.45
5.83
4.10
2.22
0.28
-1.51
-2.96
-3.93
-4.47
-4.82
-5.30
-6.21
-7.68
-9.57
-11.57
-13.30
-14.56
-15.39
-16.07
-17.03
-18.58
-20.84
-23.65
-26.63
-29.38
-31.62
-33.24
-34.38
-35.40
-36.75
-38.86
-41.90
-45.56
-48.93
-50.67
-49.31
-43.80
-33.97
-20.65
-5.56
9.22
21.79
30.94
36.26
38.08
37.22
34.70
31.50
28.41
25.94
24.36
23.64
23.62
23.98
24.36
24.48
24.17
23.48
22.64
21.99
21.80
22.18
22.99
23.87
24.43
24.36
23.54
22.10
20.29
18.39
16.63
15.06
13.63
12.25
10.76
9.09
7.25
5.34
3.50
1.94
0.77
-0.01
-0.57
-1.17
-2.12
-3.53
-5.35
-7.33
-9.17
-10.74
-12.09
-13.46
-15.14
-17.28
-19.81
-22.48
-24.98
-27.03
-28.48
-29.34
-29.78
-30.15
-30.95
-32.64
-35.40
-38.88
-42.03
-43.34
-41.29
-34.97
-24.55
-11.33
2.69
15.42
25.31
31.68
34.63
34.83
33.15
30.43
27.41
24.66
22.56
21.25
20.65
20.51
20.54
20.55
20.49
20.46
20.56
20.85
21.29
21.73
21.98
21.87
21.28
20.14
18.46
16.30
13.84
11.24
8.75
6.53
4.64
3.07
1.69
0.43
-0.76
-1.90
-2.95
-3.93
-4.88
-5.90
-7.01
-8.16
-9.28
-10.33
-11.36
-12.51
-14.01
-16.02
-18.56
-21.50
-24.57
-27.46
-29.89
-31.73
-33.03
-34.03
-35.15
-36.88
-39.54
-43.06
-46.76
-49.40
-49.46
-45.65
-37.47
-25.46
-11.15
3.41
16.25
25.99
32.09
34.78
34.82
33.18
30.81
28.44
26.58
25.44
25.00
25.07
25.34
25.53
25.45
25.05
24.44
23.81
23.41
23.40
23.79
24.41
24.94
25.02
24.38
22.93
20.76
18.15
15.39
12.72
10.33
8.30
6.69
5.48
4.61
3.92
3.19
2.22
0.90
-0.67
-2.27
-3.63
-4.59
-5.19
-5.67
-6.33
-7.37
-8.82
-10.55
-12.33
-14.02
-15.56
-17.05
-18.62
-20.38
-22.38
-24.56
-26.79
-28.88
-30.66
-32.02
-32.95
-33.65
-34.47
-35.87
-38.23
-41.60
-45.48
-48.82
-50.20
-48.30
-42.29
-32.25
-19.15
-4.63
9.41
21.29
29.90
34.81
36.28
35.08
32.22
28.77
25.57
23.20
21.81
21.32
21.44
21.84
22.23
22.42
22.34
22.07
21.75
21.52
21.45
21.51
21.57
21.46
21.00
20.12
18.75
16.96
14.85
12.61
10.46
8.56
6.96
5.58
4.28
2.93
1.51
0.12
-1.11
-2.01
-2.58
-2.91
-3.21
-3.68
-4.48
-5.59
-6.91
-8.25
-9.43
-10.36
-11.11
-11.86
-12.84
-14.26
-16.15
-18.42
-20.82
-23.06
-24.93
-26.32
-27.31
-28.13
-29.13
-30.67
-32.94
-35.84
-38.76
-40.66
-40.32
-36.68
-29.30
-18.62
-5.85
7.29
19.10
28.32
34.27
36.94
36.78
34.52
31.06
27.26
23.86
21.31
19.73
18.91
18.53
18.24
17.90
17.54
17.33
17.42
17.83
18.47
19.09
19.44
19.34
18.70
17.53
15.97
14.15
12.21
10.24
8.26
6.28
4.30
2.36
0.54
-1.06
-2.39
-3.43
-4.23
-4.86
-5.43
-6.07
-6.85
-7.84
-9.01
-10.26
-11.48
-12.57
-13.59
-14.72
-16.18
-18.10
-20.42
-22.86
-25.10
-26.87
-28.12
-29.06
-30.06
-31.53
-33.80
-36.93
-40.64
-44.23
-46.59
-46.45
-42.76
-35.05
-23.72
-10.02
4.29
17.33
27.63
34.40
37.57
37.65
35.50
32.09
28.30
24.81
22.00
20.00
18.76
18.13
17.97
18.17
18.59
19.12
19.62
19.96
20.10
20.08
19.95
19.70
19.26
18.45
17.14
15.29
13.06
10.71
8.49
6.53
4.79
3.11
1.37
-0.46
-2.22
-3.73
-4.84
-5.58
-6.15
-6.78
-7.67
-8.86
-10.23
-11.60
-12.82
-13.88
-14.91
-16.11
-17.67
-19.64
-21.94
-24.37
-26.65
-28.56
-30.00
-31.03
-31.88
-32.94
-34.62
-37.26
-40.86
-45.00
-48.65
-50.43
-48.94
-43.27
-33.36
-20.16
-5.36
9.08
21.44
30.63
36.21
38.39
37.72
35.02
31.19
27.11
23.53
20.90
19.31
18.54
18.20
17.94
17.61
17.25
17.09
17.30
17.95
18.93
20.02
20.95
21.48
21.48
20.90
19.74
18.12
16.11
13.85
11.44
8.98
6.60
4.38
2.37
0.57
-1.11
-2.79
-4.56
-6.41
-8.23
-9.89
-11.24
-12.23
-12.96
-13.60
-14.38
-15.49
-17.01
-18.91
-21.06
-23.22
-25.19
-26.79
-28.00
-28.99
-30.13
-31.85
-34.50
-38.05
-41.92
-44.96
-45.70
-42.81
-35.55
-24.18
-9.92
5.32
19.49
30.88
38.55
42.32
42.72
40.65
37.10
32.92
28.73
24.90
21.65
19.04
17.12
15.87
15.25
15.18
15.60
16.49
17.77
19.39
21.15
22.77
23.92
24.28
23.67
22.13
19.90
17.32
14.74
12.37
10.23
8.22
6.24
4.19
2.09
0.04
-1.86
-3.57
-5.11
-6.55
-7.92
-9.22
-10.41
-11.47
-12.36
-13.15
-13.95
-14.94
-16.33
-18.22
-20.62
-23.37
-26.20
-28.85
-31.10
-32.90
-34.35
-35.72
-37.39
-39.78
-43.12
-47.25
-51.45
-54.36
-54.37
-50.07
-40.86
-27.27
-10.91
6.03
21.39
33.57
41.82
46.14
47.06
45.39
42.03
37.86
33.69
30.09
27.38
25.57
24.45
23.73
23.20
22.79
22.58
22.71
23.26
24.20
25.37
26.53
27.37
27.56
26.86
25.17
22.57
19.42
16.18
13.31
11.10
9.52
8.34
7.14
5.61
3.68
1.53
-0.45
-1.92
-2.80
-3.27
-3.76
-4.68
-6.22
-8.23
-10.35
-12.15
-13.46
-14.39
-15.32
-16.65
-18.65
-21.26
-24.24
-27.20
-29.86
-32.08
-33.88
-35.41
-36.90
-38.65
-40.96
-44.03
-47.75
-51.49
-54.10
-54.09
-50.08
-41.38
-28.29
-12.15
4.96
20.81
33.59
42.23
46.53
47.01
44.61
40.47
35.69
31.15
27.44
24.81
23.24
22.53
22.41
22.59
22.83
22.99
23.07
23.20
23.52
24.17
25.05
25.87
26.17
25.57
23.91
21.38
18.44
15.57
13.07
10.99
9.12
7.25
5.20
3.01
0.83
-1.09
-2.59
-3.63
-4.32
-4.90
-5.62
-6.66
-8.00
-9.48
-10.85
-11.93
-12.68
-13.28
-14.03
-15.22
-16.98
-19.27
-21.83
-24.34
-26.50
-28.19
-29.44
-30.51
-31.84
-33.87
-36.84
-40.54
-44.13
-46.20
-45.16
-39.79
-29.82
-16.05
-0.30
15.26
28.61
38.42
44.21
46.23
45.20
41.98
37.46
32.39
27.40
22.98
19.46
17.01
15.66
15.27
15.58
16.31
17.23
18.22
19.24
20.29
21.29
22.11
22.52
22.31
21.35
19.63
17.28
14.50
11.56
8.72
6.12
3.87
1.94
0.28
-1.21
-2.57
-3.89
-5.23
-6.62
-8.08
-9.53
-10.87
-11.97
-12.80
-13.41
-13.99
-14.79
-16.01
-17.75
-19.96
-22.49
-25.11
-27.55
-29.60
-31.14
-32.21
-33.03
-34.02
-35.69
-38.45
-42.27
-46.50
-49.81
-50.52
-47.14
-38.95
-26.40
-11.01
5.07
19.68
31.21
38.91
42.75
43.24
41.15
37.33
32.67
28.00
23.99
21.07
19.37
18.70
18.69
18.96
19.23
19.38
19.44
19.53
19.74
20.10
20.53
20.84
20.83
20.30
19.20
17.54
15.47
13.17
10.76
8.35
5.99
3.72
1.57
-0.38
-2.08
-3.54
-4.80
-5.99
-7.24
-8.60
-10.04
-11.43
-12.63
-13.62
-14.46
-15.38
-16.63
-18.36
-20.57
-23.08
-25.62
-27.94
-29.90
-31.50
-32.91
-34.41
-36.30
-38.87
-42.11
-45.63
-48.55
-49.61
-47.49
-41.30
-30.94
-17.28
-1.99
12.86
25.39
34.34
39.32
40.67
39.25
36.12
32.23
28.33
24.89
22.16
20.27
19.22
18.92
19.20
19.78
20.38
20.77
20.90
20.81
20.66
20.58
20.57
20.48
20.12
19.35
18.13
16.57
14.80
12.91
10.96
8.93
6.84
4.78
2.87
1.24
-0.04
-0.99
-1.68
-2.27
-2.89
-3.63
-4.50
-5.45
-6.41
-7.34
-8.28
-9.38
-10.77
-12.58
-14.78
-17.21
-19.60
-21.70
-23.38
-24.70
-25.97
-27.56
-29.88
-33.13
-37.17
-41.37
-44.64
-45.68
-43.30
-36.86
-26.54
-13.42
0.77
14.12
25.03
32.52
36.36
36.95
35.10
31.77
27.84
24.04
20.85
18.52
17.06
16.35
16.18
16.32
16.57
16.82
17.05
17.32
17.71
18.27
18.93
19.51
19.75
19.36
18.20
16.32
13.91
11.25
8.61
6.17
4.02
2.14
0.46
-1.13
-2.70
-4.33
-6.00
-7.63
-9.15
-10.46
-11.55
-12.52
-13.53
-14.76
-16.36
-18.38
-20.74
-23.24
-25.63
-27.68
-29.29
-30.53
-31.69
-33.13
-35.25
-38.26
-42.10
-46.22
-49.67
-51.15
-49.38
-43.48
-33.41
-20.07
-5.16
9.21
21.20
29.63
34.20
35.37
34.09
31.41
28.27
25.34
22.98
21.34
20.38
19.99
19.97
20.13
20.28
20.32
20.20
20.00
19.89
20.04
20.52
21.20
21.78
21.85
21.11
19.49
17.17
14.52
11.91
9.54
7.36
5.20
2.85
0.25
-2.41
-4.84
-6.77
-8.11
-8.99
-9.72
-10.67
-12.08
-14.01
-16.29
-18.65
-20.75
-22.41
-23.59
-24.53
-25.56
-27.11
-29.43
-32.51
-35.90
-38.73
-39.84
-38.08
-32.70
-23.68
-11.84
1.28
13.83
24.15
31.23
34.83
35.46
34.01
31.46
28.57
25.81
23.41
21.44
19.93
18.85
18.22
17.98
18.06
18.33
18.71
19.14
19.61
20.16
20.76
21.30
21.52
21.13
19.84
17.51
14.26
10.43
6.54
3.10
0.43
-1.43
-2.74
-3.88
-5.18
-6.74
-8.42
-9.93
-11.03
-11.70
-12.14
-12.71
-13.73
-15.35
-17.51
-19.93
-22.34
-24.47
-26.19
-27.51
-28.57
-29.65
-31.09
-33.24
-36.24
-39.85
-43.31
-45.40
-44.77
-40.35
-31.80
-19.78
-5.79
8.25
20.46
29.57
35.07
37.15
36.53
34.10
30.79
27.37
24.42
22.28
21.01
20.46
20.36
20.40
20.36
20.15
19.80
19.42
19.08
18.83
18.61
18.33
17.87
17.10
15.93
14.33
12.38
10.23
8.14
6.30
4.84
3.70
2.72
1.64
0.27
-1.45
-3.46
-5.59
-7.63
-9.42
-10.87
-12.02
-13.00
-14.07
-15.45
-17.24
-19.37
-21.63
-23.72
-25.40
-26.58
-27.39
-28.10
-29.09
-30.75
-33.27
-36.54
-39.93
-42.40
-42.65
-39.59
-32.73
-22.46
-9.99
2.96
14.68
23.90
29.98
32.90
33.16
31.47
28.67
25.48
22.47
19.98
18.13
16.85
16.00
15.43
15.04
14.78
14.66
14.70
14.97
15.53
16.37
17.32
18.12
18.38
17.80
16.27
13.92
11.10
8.20
5.55
3.28
1.37
-0.35
-2.03
-3.76
-5.50
-7.11
-8.46
-9.47
-10.23
-10.95
-11.91
-13.31
-15.14
-17.24
-19.32
-21.16
-22.64
-23.80
-24.85
-25.98
-27.43
-29.34
-31.70
-34.21
-36.22
-36.80
-34.93
-29.90
-21.62
-10.82
1.17
12.69
22.30
29.11
32.87
33.85
32.70
30.14
26.85
23.40
20.21
17.60
15.74
14.66
14.24
14.22
14.31
14.30
14.14
13.94
13.89
14.15
14.73
15.43
15.94
15.95
15.24
13.76
11.66
9.19
6.67
4.36
2.47
1.00
-0.17
-1.31
-2.69
-4.46
-6.54
-8.67
-10.46
-11.61
-12.06
-12.00
-11.86
-12.08
-12.98
-14.64
-16.84
-19.18
-21.26
-22.80
-23.79
-24.51
-25.42
-27.00
-29.51
-32.71
-35.82
-37.67
-36.99
-32.88
-25.15
-14.42
-2.07
10.22
20.80
28.56
33.00
34.32
33.16
30.39
26.85
23.26
20.10
17.66
16.02
15.07
14.59
14.33
14.10
13.81
13.54
13.38
13.44
13.72
14.13
14.51
14.67
14.42
13.64
12.24
10.18
7.56
4.54
1.36
-1.71
-4.39
-6.53
-8.10
-9.23
-10.17
-11.21
-12.56
-14.23
-16.10
-17.96
-19.59
-20.84
-21.75
-22.49
-23.31
-24.49
-26.28
-28.78
-31.86
-35.03
-37.44
-38.06
-35.88
-30.33
-21.54
-10.36
1.76
13.16
22.42
28.69
31.77
32.09
30.42
27.59
24.36
21.28
18.71
16.84
15.68
15.12
14.95
14.96
14.96
14.91
14.86
14.93
15.23
15.73
16.26
16.55
16.31
15.36
13.70
11.51
9.11
6.78
4.70
2.88
1.13
-0.72
-2.80
-5.05
-7.27
-9.21
-10.69
-11.73
-12.48
-13.21
-14.16
-15.44
-17.04
-18.89
-20.85
-22.81
-24.62
-26.18
-27.45
-28.49
-29.54
-30.94
-33.05
-36.04
-39.57
-42.81
-44.46
-43.16
-38.00
-28.91
-16.82
-3.44
9.27
19.69
26.90
30.78
31.81
30.79
28.51
25.64
22.76
20.33
18.65
17.83
17.73
18.03
18.38
18.50
18.32
17.92
17.50
17.23
17.18
17.31
17.46
17.43
16.99
15.97
14.31
12.12
9.63
7.11
4.87
3.08
1.84
1.07
0.59
0.15
-0.53
-1.66
-3.30
-5.32
-7.47
-9.45
-11.01
-12.12
-12.89
-13.56
-14.34
-15.46
-16.98
-18.88
-21.03
-23.19
-25.15
-26.75
-28.05
-29.25
-30.75
-32.94
-35.99
-39.67
-43.16
-45.24
-44.58
-40.16
-31.71
-19.87
-6.10
7.73
19.84
28.96
34.58
36.87
36.47
34.27
31.17
27.91
25.02
22.80
21.35
20.59
20.40
20.58
20.94
21.35
21.72
22.01
22.26
22.55
22.89
23.23
23.41
23.18
22.32
20.68
18.29
15.36
12.24
9.27
6.76
4.80
3.29
1.97
0.56
-1.12
-3.06
-5.06
-6.83
-8.15
-8.98
-9.48
-9.97
-10.78
-12.12
-14.03
-16.34
-18.79
-21.07
-22.96
-24.36
-25.37
-26.26
-27.43
-29.30
-32.17
-35.96
-40.09
-43.42
-44.52
-42.07
-35.39
-24.77
-11.48
2.59
15.43
25.55
32.22
35.50
36.02
34.64
32.19
29.34
26.58
24.23
22.45
21.26
20.61
20.35
20.30
20.33
20.36
20.39
20.50
20.71
21.04
21.39
21.59
21.41
20.66
19.25
17.27
14.95
12.61
10.52
8.81
7.40
6.09
4.66
3.00
1.20
-0.49
-1.82
-2.61
-2.95
-3.08
-3.34
-4.01
-5.20
-6.76
-8.46
-10.03
-11.32
-12.35
-13.28
-14.35
-15.74
-17.56
-19.75
-22.14
-24.49
-26.57
-28.27
-29.57
-30.62
-31.68
-33.11
-35.22
-38.17
-41.74
-45.24
-47.51
-47.19
-43.18
-35.01
-23.19
-9.10
5.30
18.10
27.83
33.81
36.11
35.41
32.72
29.13
25.57
22.69
20.74
19.68
19.26
19.19
19.25
19.34
19.44
19.60
19.84
20.16
20.54
20.92
21.22
21.28
20.94
20.06
18.56
16.54
14.17
11.68
9.30
7.17
5.32
3.71
2.23
0.83
-0.50
-1.70
-2.73
-3.58
-4.34
-5.10
-5.95
-6.90
-7.90
-8.84
-9.61
-10.22
-10.76
-11.46
-12.52
-14.07
-16.05
-18.25
-20.38
-22.14
-23.38
-24.13
-24.65
-25.34
-26.63
-28.79
-31.71
-34.76
-36.84
-36.66
-33.16
-25.91
-15.43
-2.98
9.69
20.90
29.42
34.69
36.82
36.32
33.98
30.56
26.78
23.19
20.15
17.87
16.34
15.48
15.09
15.01
15.11
15.34
15.69
16.13
16.62
17.10
17.49
17.67
17.49
16.77
15.36
13.20
10.45
7.43
4.55
2.14
0.33
-0.98
-2.02
-3.00
-4.03
-5.11
-6.20
-7.27
-8.33
-9.42
-10.50
-11.56
-12.60
-13.72
-15.05
-16.70
-18.68
-20.79
-22.75
-24.27
-25.24
-25.76
-26.19
-27.03
-28.72
-31.45
-34.94
-38.37
-40.54
-40.17
-36.34
-28.85
-18.28
-5.95
6.49
17.45
25.74
30.77
32.63
31.89
29.48
26.35
23.33
20.90
19.26
18.29
17.77
17.47
17.22
16.94
16.61
16.30
16.09
16.10
16.43
17.04
17.80
18.41
18.53
17.90
16.41
14.22
11.67
9.14
6.94
5.21
3.89
2.79
1.73
0.58
-0.65
-1.89
-3.01
-3.91
-4.58
-5.10
-5.63
-6.30
-7.21
-8.38
-9.68
-10.99
-12.22
-13.38
-14.56
-15.90
-17.50
-19.40
-21.54
-23.79
-25.96
-27.86
-29.38
-30.52
-31.48
-32.65
-34.41
-36.95
-40.01
-42.76
-43.96
-42.32
-36.96
-27.84
-15.85
-2.60
10.05
20.50
27.79
31.70
32.63
31.33
28.67
25.47
22.39
19.89
18.24
17.46
17.38
17.72
18.17
18.51
18.66
18.65
18.65
18.79
19.13
19.61
20.04
20.20
19.86
18.94
17.49
15.68
13.72
11.77
9.95
8.27
6.72
5.27
3.90
2.61
1.39
0.28
-0.72
-1.63
-2.51
-3.45
-4.47
-5.55
-6.61
-7.52
-8.28
-9.00
-9.93
-11.32
-13.28
-15.73
-18.36
-20.81
-22.82
-24.33
-25.51
-26.72
-28.37
-30.76
-33.90
-37.43
-40.54
-42.14
-41.07
-36.54
-28.41
-17.35
-4.72
7.82
18.71
26.84
31.74
33.54
32.84
30.49
27.34
24.13
21.37
19.29
17.90
17.10
16.74
16.72
16.94
17.34
17.87
18.48
19.11
19.74
20.30
20.64
20.59
19.94
18.59
16.60
14.18
11.64
9.25
7.17
5.39
3.82
2.36
0.96
-0.39
-1.67
-2.84
-3.95
-5.04
-6.12
-7.20
-8.25
-9.23
-10.14
-11.04
-11.99
-13.05
-14.32
-15.84
-17.68
-19.82
-22.19
-24.63
-26.89
-28.79
-30.27
-31.46
-32.67
-34.34
-36.78
-40.02
-43.60
-46.57
-47.67
-45.65
-39.73
-29.92
-17.16
-3.05
10.49
21.78
29.77
34.10
35.16
33.73
30.83
27.37
24.12
21.60
20.06
19.54
19.85
20.67
21.63
22.39
22.76
22.75
22.51
22.25
22.15
22.22
22.31
22.15
21.52
20.32
18.55
16.41
14.12
11.93
10.03
8.48
7.21
6.07
4.88
3.55
2.07
0.56
-0.85
-2.04
-2.97
-3.70
-4.37
-5.12
-6.07
-7.27
-8.67
-10.15
-11.57
-12.85
-14.01
-15.15
-16.43
-17.95
-19.73
-21.65
-23.57
-25.30
-26.78
-28.00
-29.15
-30.51
-32.46
-35.27
-38.89
-42.74
-45.73
-46.46
-43.64
-36.62
-25.69
-12.05
2.49
15.97
26.87
34.29
38.11
38.77
37.09
33.98
30.29
26.69
23.62
21.32
19.87
19.26
19.33
19.88
20.62
21.34
21.94
22.47
23.03
23.69
24.39
24.89
24.94
24.35
23.06
21.23
19.06
16.82
14.69
12.79
11.14
9.67
8.24
6.75
5.14
3.50
1.99
0.77
-0.08
-0.67
-1.21
-1.96
-3.04
-4.48
-6.13
-7.80
-9.33
-10.69
-11.98
-13.36
-15.03
-17.09
-19.52
-22.11
-24.56
-26.56
-27.94
-28.77
-29.37
-30.28
-31.98
-34.72
-38.23
-41.66
-43.74
-43.09
-38.70
-30.31
-18.60
-5.01
8.63
20.58
29.60
35.12
37.21
36.48
33.80
30.14
26.37
23.13
20.76
19.33
18.66
18.51
18.59
18.72
18.82
18.89
18.98
19.16
19.48
19.94
20.46
20.87
20.94
20.45
19.28
17.46
