1565633457.00
64.000000
-0.00
-0.00
-0.00
-0.00
-0.00
-0.00
-0.00
-0.00
-0.00
-0.00
0.00
0.01
0.01
-0.00
-0.03
-0.05
-0.05
0.00
0.13
0.36
0.66
1.01
1.37
1.72
2.06
2.40
2.79
3.24
3.80
4.44
5.09
5.73
6.33
6.90
7.49
8.19
9.06
10.19
11.52
12.93
14.30
15.55
16.69
17.86
19.27
21.07
23.52
26.48
29.72
32.94
35.96
38.81
41.76
45.24
49.60
55.28
62.03
69.37
76.73
83.69
90.23
96.76
103.97
112.49
123.03
135.27
148.52
161.86
174.53
186.33
197.66
209.84
221.75
236.05
253.76
275.22
299.13
322.17
339.42
345.73
337.61
314.55
279.65
237.59
193.15
149.39
107.09
65.38
23.21
-19.51
-61.56
-100.80
-135.84
-166.35
-193.29
-218.31
-243.05
-268.63
-295.47
-323.51
-352.06
-379.87
-404.85
-424.05
-434.16
-432.53
-418.33
-393.25
-361.17
-326.84
-294.38
-265.94
-241.44
-219.35
-198.02
-176.81
-156.29
-137.77
-122.15
-109.26
-97.79
-85.97
-72.66
-58.12
-43.92
-32.13
-24.09
-19.56
-16.75
-13.27
-7.47
0.65
9.47
16.63
20.39
20.62
18.88
17.72
19.20
23.85
30.31
36.04
38.66
37.19
32.69
27.69
24.92
25.75
29.56
33.96
36.26
34.95
30.63
25.64
22.61
22.97
26.08
29.66
31.17
29.33
24.83
19.91
17.05
17.49
20.59
24.18
25.84
24.28
20.06
15.29
12.32
12.44
15.07
18.19
19.54
18.02
14.37
10.65
8.95
10.01
12.79
15.01
14.56
10.84
5.15
0.04
-2.15
-0.54
3.74
8.24
10.44
9.18
5.17
0.58
-2.32
-2.42
-0.32
2.01
2.63
0.76
-2.69
-5.62
-6.17
-3.80
0.19
3.43
3.78
0.71
-4.37
-8.74
-9.96
-7.22
-1.84
3.38
5.73
4.13
-0.25
-4.79
-6.88
-5.52
-1.85
1.52
2.13
-0.79
-5.88
-10.38
-11.86
-9.55
-4.84
-0.42
1.34
-0.27
-3.94
-7.25
-8.09
-5.92
-2.01
1.38
2.37
0.56
-2.80
-5.57
-6.03
-3.94
-0.70
1.40
0.55
-3.47
-9.06
-13.49
-14.51
-11.56
-6.12
-1.04
1.13
-0.57
-4.92
-9.30
-11.19
-9.52
-5.18
-0.40
2.61
3.04
1.83
1.08
2.68
7.10
13.01
18.00
19.99
18.45
14.85
11.75
11.30
13.97
18.19
21.32
21.26
17.73
12.47
8.26
7.22
9.56
13.47
16.07
15.15
10.43
3.73
-2.04
-4.50
-3.08
0.70
4.15
4.92
2.39
-2.06
-5.83
-6.75
-4.30
0.04
3.68
4.55
2.36
-1.18
-3.34
-2.10
2.68
9.04
14.02
15.36
12.71
7.81
3.45
1.98
4.06
8.46
12.87
15.19
14.63
12.00
9.13
7.69
8.17
9.59
10.16
8.40
4.17
-1.12
-5.23
-6.33
-4.17
-0.23
3.05
3.62
0.95
-3.66
-7.90
-9.79
-8.69
-5.73
-2.95
-2.08
-3.46
-5.81
-7.15
-6.00
-2.50
1.53
3.58
1.96
-3.12
-9.52
-14.26
-15.13
-11.89
-6.29
-1.11
1.49
1.04
-1.07
-2.60
-1.82
1.46
5.72
8.74
8.87
6.12
2.23
-0.31
0.27
4.05
9.17
12.87
13.02
9.39
3.76
-1.03
-2.61
-0.47
3.91
7.86
9.17
7.31
3.68
0.79
0.66
3.61
8.05
11.37
11.48
8.06
2.78
-1.66
-3.00
-0.82
3.31
6.74
7.28
4.57
0.32
-2.72
-2.47
1.26
6.55
10.49
10.98
7.91
3.32
0.11
0.37
4.19
9.59
13.66
14.27
11.18
6.08
1.55
-0.43
0.43
2.67
4.05
2.95
-0.60
-4.90
-7.60
-7.06
-3.55
0.89
3.50
2.26
-2.83
-9.69
-15.27
-17.15
-14.74
-9.59
-4.42
-1.71
-2.33
-5.24
-8.21
-9.23
-7.64
-4.57
-2.14
-2.08
-4.66
-8.43
-11.10
-10.94
-7.84
-3.35
0.25
1.45
0.36
-1.28
-1.27
1.71
7.17
12.99
16.58
16.27
12.29
6.67
2.16
0.81
2.90
6.84
10.12
10.73
8.31
4.35
1.27
0.97
3.66
7.61
10.14
9.06
4.05
-3.17
-9.73
-13.17
-12.76
-9.74
-6.50
-5.14
-6.18
-8.44
-9.81
-8.61
-4.76
0.22
3.94
4.60
2.08
-1.97
-5.06
-5.29
-2.45
1.84
5.11
5.47
2.77
-1.29
-4.17
-3.98
-0.60
4.28
8.13
9.05
6.82
3.00
-0.02
-0.39
2.12
6.11
9.36
10.18
8.38
5.35
3.12
3.20
5.52
8.56
10.22
9.04
5.19
0.33
-3.38
-4.57
-3.46
-1.75
-1.52
-3.95
-8.55
-13.34
-15.97
-15.12
-11.32
-6.66
-3.72
-4.08
-7.42
-11.68
-14.26
-13.46
-9.45
-4.14
-0.00
1.28
-0.22
-2.86
-4.47
-3.65
-0.62
2.92
4.80
3.65
-0.21
-4.84
-7.71
-7.13
-3.20
2.15
6.15
6.69
3.50
-1.75
-6.43
-8.50
-7.71
-5.66
-4.87
-7.15
-12.53
-19.19
-24.61
-27.12
-27.04
-26.53
-28.29
-33.89
-42.65
-51.88
-58.34
-60.17
-57.98
-54.63
-53.58
-56.92
-64.18
-72.63
-78.86
-80.54
-77.41
-70.84
-62.52
-53.36
-43.15
-31.37
-18.26
-5.21
5.70
12.91
16.51
18.26
20.89
27.04
38.44
55.73
78.66
106.37
137.28
168.84
197.53
219.34
230.75
230.31
218.98
199.65
175.83
150.14
123.36
94.33
60.57
19.40
-31.09
-91.13
-158.27
-227.45
-291.21
-340.99
-369.09
-371.14
-348.28
-307.70
-260.63
-218.22
-187.19
-167.43
-153.24
-137.52
-116.23
-90.61
-65.80
-47.05
-35.56
-27.76
-17.25
1.33
29.25
63.20
97.73
128.48
154.29
177.04
199.42
222.97
246.88
268.54
284.96
294.45
297.34
295.69
292.25
289.37
288.03
287.64
286.40
282.43
274.72
263.22
248.66
232.04
214.03
195.18
174.76
151.48
124.24
92.89
57.87
20.04
-19.59
-59.91
-99.77
-136.72
-168.73
-195.75
-217.01
-231.96
-240.51
-243.22
-240.89
-234.27
-223.88
-210.13
-193.36
-173.89
-152.80
-131.92
-113.50
-99.33
-90.01
-84.86
-82.29
-80.37
-77.53
-73.59
-68.74
-64.74
-63.83
-67.88
-77.82
-93.00
-110.55
-125.12
-130.15
-120.12
-93.02
-51.64
-2.94
44.31
83.13
110.90
130.03
146.42
165.07
187.44
209.64
225.32
227.61
211.48
174.81
119.48
51.49
-20.11
-85.26
-135.61
-166.82
-179.57
-178.19
-168.21
-153.89
-137.17
-118.54
-98.02
-75.93
-52.44
-27.26
0.15
29.28
57.37
79.58
90.91
89.61
79.04
66.86
61.33
67.02
82.71
102.50
119.66
130.28
135.18
138.71
145.52
157.83
174.35
191.62
205.92
214.46
214.82
203.98
177.87
132.47
66.05
-18.60
-113.47
-207.60
-288.38
-347.18
-381.88
-396.66
-399.02
-395.88
-391.01
-384.49
-374.79
-360.49
-341.44
-318.31
-291.81
-262.18
-229.46
-195.84
-161.86
-127.61
-92.91
-57.47
-21.12
15.73
51.74
84.61
111.72
131.13
141.93
144.99
142.56
137.93
134.77
136.87
147.48
168.31
198.83
235.37
271.89
301.60
319.20
322.18
310.73
286.01
248.63
198.32
135.29
62.89
-11.08
-75.47
-118.99
-134.14
-119.61
-80.28
-24.88
36.86
96.70
149.20
192.02
225.34
251.05
271.57
288.25
300.28
304.54
297.36
276.89
244.83
206.27
167.31
131.90
99.47
65.89
25.61
-24.74
-84.56
-149.13
-211.82
-266.91
-311.43
-345.00
-368.32
-383.28
-389.74
-386.69
-373.80
-352.48
-326.04
-299.09
-276.05
-260.04
-252.40
-252.54
-258.40
-267.79
-278.72
-289.61
-299.09
-305.85
-308.64
-306.49
-298.71
-285.20
-266.41
-242.93
-215.22
-183.50
-148.04
-109.46
-69.15
-28.86
9.51
44.53
76.05
105.23
134.34
166.15
203.01
245.80
292.83
338.98
376.30
396.04
392.01
363.61
316.73
261.93
210.80
171.97
148.92
140.02
140.07
142.39
140.12
127.38
100.45
59.04
7.34
-46.66
-93.39
-125.06
-138.16
-133.80
-115.92
-88.77
-54.94
-15.80
25.70
65.15
95.43
110.37
108.52
95.01
79.98
73.86
82.27
102.96
128.06
148.69
160.53
166.10
173.05
189.59
219.23
259.83
304.60
346.27
379.82
403.69
418.79
426.48
426.89
418.58
401.80
376.03
341.92
301.53
258.23
215.75
176.91
142.62
111.76
81.93
49.38
12.17
-29.58
-74.07
-118.78
-161.42
-200.26
-233.71
-259.72
-276.00
-280.04
-270.48
-248.16
-216.06
-178.56
-140.01
-103.59
-71.08
-43.99
-24.22
-14.97
-19.92
-41.28
-78.07
-125.53
-176.41
-223.10
-260.59
-287.59
-306.65
-321.97
-336.89
-352.43
-367.25
-378.93
-385.10
-385.65
-380.04
-367.18
-345.35
-312.78
-269.02
-216.19
-159.75
-107.92
-69.44
-49.78
-48.68
-58.81
-67.78
-62.97
-36.97
9.17
66.55
122.66
166.96
194.57
206.87
209.21
207.30
204.79
202.86
201.40
200.44
200.95
204.24
210.96
220.31
229.87
236.48
237.62
232.35
221.80
208.58
195.61
184.88
176.74
169.72
161.24
148.75
130.56
106.20
76.32
42.05
4.44
-35.77
-78.08
-121.87
-165.60
-206.64
-241.40
-266.00
-277.01
-272.12
-249.63
-209.46
-153.34
-84.25
-6.25
75.79
156.44
230.19
292.08
338.44
368.60
383.29
384.47
374.78
356.94
333.10
304.65
272.09
235.57
195.30
151.76
106.62
62.25
21.07
-15.30
-46.24
-72.54
-96.10
-119.77
-147.59
-183.23
-228.68
-282.89
-341.39
-396.94
-442.72
-475.03
-491.62
-495.80
-493.74
-491.56
-492.74
-497.43
-503.18
-507.60
-509.34
-508.00
-503.73
-495.71
-482.17
-461.14
-434.37
-402.57
-366.90
-328.75
-289.08
-248.47
-206.83
-163.74
-119.01
-73.23
-27.15
17.69
59.94
99.01
135.13
169.52
203.98
240.23
278.78
318.19
354.31
381.18
393.01
386.37
361.55
322.25
273.93
221.44
167.67
113.24
58.08
3.16
-48.19
-90.41
-117.02
-122.12
-101.25
-51.47
28.58
137.99
271.31
418.25
564.28
692.97
790.29
848.33
866.69
851.69
812.54
757.64
692.68
620.78
544.19
465.77
389.12
317.31
252.22
193.58
139.92
89.73
42.22
-2.52
-43.80
-79.72
-111.27
-140.64
-170.78
-204.07
-241.57
-282.78
-325.84
-368.13
-407.15
-441.30
-469.38
-490.94
-505.41
-511.87
-509.17
-496.28
-472.74
-439.12
-397.36
-347.19
-290.05
-227.77
-162.15
-94.97
-27.99
36.75
96.82
149.33
192.31
224.36
245.41
256.40
258.77
253.95
242.87
227.17
206.11
178.45
142.23
95.69
37.98
-29.63
-102.79
-172.92
-229.64
-264.86
-275.43
-265.00
-242.11
-216.56
-195.35
-180.68
-170.26
-159.84
-146.79
-128.55
-103.55
-70.51
-28.70
20.75
73.35
121.55
156.99
174.09
173.19
159.97
142.72
128.21
118.95
113.13
106.95
97.38
83.41
65.78
45.39
22.68
-1.55
-24.80
-42.96
-51.81
-49.47
-37.91
-21.77
-5.99
6.97
17.56
27.73
37.86
45.37
45.83
36.11
17.23
-4.92
-21.37
-23.57
-7.29
25.55
67.75
110.15
145.32
169.93
184.25
189.66
187.39
178.18
162.47
140.91
114.51
85.54
55.80
25.60
-6.84
-43.77
-85.98
-131.37
-174.56
-208.94
-229.25
-234.80
-227.64
-214.15
-201.21
-192.80
-188.60
-184.75
-180.03
-173.12
-164.41
-155.48
-148.07
-142.89
-138.68
-135.01
-132.41
-131.82
-135.31
-144.90
-161.21
-182.81
-205.95
-225.60
-239.09
-244.30
-241.29
-232.02
-219.39
-205.81
-192.08
-176.12
-155.05
-125.95
-86.50
-35.76
25.98
97.00
173.93
251.51
323.15
382.28
424.58
449.42
459.41
458.82
451.08
436.92
414.41
380.93
336.11
284.10
232.83
190.75
163.10
149.48
144.16
139.04
127.34
104.58
71.17
30.22
-15.11
-63.43
-114.66
-168.39
-221.22
-267.63
-300.63
-313.83
-303.79
-270.81
-218.35
-151.79
-78.06
-5.30
57.70
103.72
130.04
139.62
140.67
142.92
153.11
172.17
195.91
218.47
236.60
250.00
261.38
273.82
288.07
301.82
311.62
315.33
313.36
307.70
302.67
297.68
288.05
267.06
228.70
170.20
93.57
5.67
-82.86
-159.60
-213.87
-240.78
-243.88
-234.13
-224.62
-224.01
-232.64
-242.64
-243.39
-228.87
-201.40
-170.74
-148.79
-143.54
-155.97
-181.09
-210.87
-237.79
-257.00
-266.51
-266.40
-258.41
-245.70
-230.44
-216.38
-207.03
-204.45
-209.16
-220.64
-237.69
-258.69
-281.07
-301.72
-318.02
-328.21
-332.09
-330.97
-326.59
-320.11
-313.16
-304.13
-290.22
-269.23
-240.29
-204.35
-163.80
-121.78
-80.94
-43.00
-8.24
23.47
52.07
77.26
98.53
115.58
128.32
137.62
145.12
152.88
162.33
173.77
186.46
199.17
210.74
220.79
229.96
239.72
252.01
268.46
289.66
314.70
340.92
364.03
378.87
380.73
366.80
337.46
296.64
251.05
208.34
174.72
153.00
141.97
137.36
133.87
127.32
116.03
100.69
83.14
65.11
47.48
30.55
14.91
1.97
-6.38
-8.93
-6.19
-0.82
3.41
3.29
-2.23
-11.47
-20.86
-26.82
-27.47
-23.47
-17.74
-13.78
-13.98
-18.45
-24.91
-29.69
-29.44
-22.57
-9.99
4.94
18.15
26.52
29.20
27.92
25.97
26.29
30.21
37.21
45.72
54.99
66.07
81.50
102.86
129.99
160.08
188.33
212.25
230.43
243.55
253.92
262.43
269.02
272.31
269.93
259.18
237.81
204.28
158.95
104.84
47.69
-4.91
-45.80
-71.00
-81.33
-82.14
-81.76
-87.78
-104.30
-130.99
-164.38
-200.33
-235.88
-269.92
-302.19
-332.32
-359.23
-381.71
-399.40
-413.28
-425.45
-438.26
-453.34
-470.78
-489.25
-506.48
-520.05
-528.20
-530.04
-526.42
-517.58
-503.20
-482.36
-454.12
-418.19
-375.49
-328.28
-279.66
-232.70
-189.43
-150.54
-115.47
-83.06
-52.34
-23.12
4.14
28.67
50.14
69.28
87.83
108.35
133.91
167.79
212.91
270.36
338.51
412.20
483.59
543.56
585.53
607.78
613.84
610.52
604.59
599.83
596.09
590.48
579.53
561.25
535.45
502.96
464.51
420.20
369.96
314.31
255.03
194.93
137.43
85.36
40.19
1.83
-30.95
-59.75
-85.74
-109.26
-129.80
-146.41
-158.34
-165.52
-168.69
-169.11
-168.15
-166.80
-165.42
-163.78
-161.30
-157.49
-152.19
-145.67
-138.50
-131.31
-124.56
-118.38
-112.62
-106.92
-101.02
-94.76
-88.22
-81.65
-75.36
-69.58
-64.36
-59.59
-55.02
-50.44
-45.69
-40.84
-36.13
-31.91
-28.44
-25.74
-23.56
-21.28
-18.50
-14.98
-10.88
-6.76
-3.32
-1.15
-0.30
-0.26
-0.11
1.07
3.81
7.89
12.41
16.17
18.27
18.67
18.25
18.38
20.23
24.31
29.97
35.63
39.35
39.19
33.67
21.77
3.36
-20.13
-45.20
-66.60
-78.42
-77.20
-63.52
-42.11
-20.02
-3.49
4.42
4.70
0.84
-3.45
-6.26
-7.71
-8.92
-10.63
-12.42
-13.09
-11.64
-8.14
-3.62
0.27
2.10
1.54
-0.68
-3.13
-4.46
-3.92
-1.68
1.36
3.99
5.32
5.16
3.96
2.59
1.82
2.05
3.16
4.65
5.87
6.38
6.09
5.24
4.19
3.26
2.58
2.07
1.54
0.81
-0.21
-1.48
-2.97
-4.72
-6.84
-9.49
-12.77
-16.56
-20.56
-24.43
-27.91
-31.08
-34.43
-38.61
-44.19
-51.38
-59.79
-68.63
-76.98
-84.31
-90.79
-97.39
-105.41
-115.88
-128.96
-143.62
-157.85
-169.26
-175.77
-176.33
-171.26
-161.33
-147.36
-129.59
-107.55
-80.52
-47.94
-9.54
34.47
83.20
134.52
184.22
225.97
252.49
258.16
241.15
205.90
161.89
120.08
88.94
71.68
66.34
68.15
72.52
76.81
80.50
83.74
86.09
86.28
82.93
75.82
65.92
55.31
46.36
40.68
38.37
38.22
38.36
37.17
33.90
28.99
23.67
19.44
17.36
17.62
19.57
22.20
24.58
26.17
26.99
27.32
27.42
27.08
25.59
21.48
13.28
-0.19
-19.38
-43.77
-72.11
-102.24
-131.56
-157.43
-177.37
-189.39
-192.17
-185.33
-168.74
-144.33
-114.71
-82.77
-51.27
-22.52
1.82
20.92
34.63
43.42
47.95
49.24
48.45
46.50
44.21
41.92
39.77
37.80
35.99
34.10
32.13
30.13
28.16
26.29
24.52
22.86
21.31
19.82
18.28
16.72
15.17
13.67
12.26
10.95
9.76
8.68
7.70
6.74
5.83
4.95
4.12
3.36
2.65
2.00
1.42
0.89
0.39
-0.08
-0.52
-0.93
-1.28
-1.59
-1.84
-2.02
-2.13
-2.19
-2.20
-2.18
-2.14
-2.07
-2.00
-1.92
-1.82
-1.75
-1.72
-1.75
-1.82
-1.89
-1.91
-1.84
-1.68
-1.49
-1.37
-1.38
-1.56
-1.86
-2.17
-2.36
-2.37
-2.19
-1.93
-1.75
-1.77
-2.07
-2.55
-3.06
-3.37
-3.33
-2.95
-2.42
-2.07
-2.19
-2.91
-4.05
-5.21
-5.87
-5.68
-4.69
-3.40
-2.61
-3.03
-4.91
-7.81
-10.72
-12.51
-12.41
-10.59
-8.10
-6.51
-7.21
-10.58
-15.77
-20.95
-24.13
-24.13
-21.41
-17.67
-15.11
-15.48
-19.04
-24.68
-30.79
-36.18
-39.99
-41.30
-38.66
-30.60
-17.12
-1.08
11.88
15.79
7.91
-8.62
-25.36
-32.33
-23.27
1.12
33.61
64.36
85.92
96.24
98.22
96.58
94.57
92.56
89.05
83.11
75.90
70.96
71.96
79.48
89.70
95.17
88.33
65.44
29.21
-11.78
-46.70
-67.17
-71.07
-62.42
-48.95
-38.11
-33.70
-35.31
-40.01
-44.46
-46.34
-44.35
-37.19
-23.91
-4.91
17.33
38.13
51.54
53.07
42.16
22.53
1.91
-11.36
-11.55
1.56
22.16
41.07
50.19
46.54
33.34
17.31
3.80
-6.66
-18.04
-35.48
-60.24
-87.45
-108.76
-117.84
-114.45
-105.11
-98.20
-98.18
-102.28
-102.03
-88.96
-60.18
-19.88
23.35
60.71
86.70
99.58
100.03
89.80
71.00
46.83
22.11
1.97
-9.76
-12.71
-10.20
-7.31
-8.45
-15.67
-28.70
-45.39
-62.79
-77.28
-84.82
-81.83
-66.45
-40.22
-8.81
19.85
38.08
41.42
30.27
8.51
-18.80
-47.86
-77.26
-107.05
-136.67
-163.54
-183.07
-189.84
-180.99
-158.08
-127.01
-96.25
-73.10
-60.93
-58.61
-61.79
-64.88
-64.50
-60.43
-54.60
-49.06
-44.01
-36.73
-22.17
0.12
30.80
68.41
109.69
151.07
189.95
225.74
259.73
294.18
331.14
372.08
417.70
468.28
523.16
579.59
632.09
672.99
694.13
689.64
658.19
603.73
534.32
459.21
385.75
318.06
257.11
201.95
150.83
101.24
52.07
4.44
-38.99
-75.73
-104.35
-125.24
-140.80
-154.40
-172.64
-199.13
-232.88
-270.51
-309.01
-345.37
-374.93
-390.49
-384.12
-357.85
-316.32
-264.87
-211.54
-167.84
-143.94
-143.78
-163.96
-196.64
-245.13
-309.24
-380.58
-447.37
-501.80
-540.36
-561.90
-566.97
-558.61
-557.02
-575.42
-611.39
-654.23
-696.67
-736.97
-775.70
-812.61
-753.23
-567.73
-310.93
-63.65
132.24
271.56
363.05
418.48
449.89
468.11
466.38
442.03
403.66
364.56
332.98
311.44
300.01
297.77
302.73
300.61
282.99
253.34
221.59
194.91
176.05
165.28
161.69
163.49
161.28
149.42
129.99
109.22
91.71
79.29
72.18
69.73
70.64
69.74
63.76
53.39
41.80
31.68
24.51
20.84
20.44
22.25
23.50
22.10
17.81
11.95
6.24
2.20
0.77
1.91
4.56
7.08
8.02
6.54
3.04
-1.11
-4.16
-4.49
-0.87
7.28
19.91
35.38
50.32
60.04
60.06
48.21
26.19
-0.35
-23.93
-38.23
-40.72
-33.29
-20.85
-8.77
-0.53
2.97
2.76
0.52
-2.43
-5.36
-7.59
-8.27
-6.67
-2.59
3.33
9.39
13.51
13.80
9.34
0.68
-10.64
-22.75
-34.09
-44.06
-52.84
-60.80
-68.63
-76.40
-83.18
-87.70
-89.03
-87.14
-83.24
-79.70
-79.03
-84.46
-97.50
-116.16
-135.13
-146.92
-144.52
-124.55
-89.07
-44.68
-1.65
31.26
50.48
58.08
60.36
65.14
78.79
98.64
125.85
155.80
177.90
183.27
165.99
124.61
62.81
-11.31
-87.23
-153.47
-202.05
-228.76
-233.31
-219.24
-192.54
-159.68
-126.28
-96.20
-70.75
-50.61
-35.09
-22.01
-8.12
10.52
37.91
76.87
127.57
186.77
246.83
297.40
328.61
334.01
312.96
270.96
217.57
162.58
112.83
70.17
32.40
-4.47
-44.20
-88.81
-137.91
-188.50
-235.50
-272.59
-294.06
-296.61
-280.51
-249.25
-207.78
-160.64
-111.28
-62.51
-17.99
17.27
37.78
39.52
21.22
-15.73
-68.53
-134.08
-208.58
-286.20
-358.00
-413.16
-441.92
-439.46
-408.23
-357.10
-297.76
-240.24
-190.06
-147.74
-110.65
-75.37
-39.27
-0.69
41.39
87.29
135.79
183.11
223.12
249.25
257.45
249.04
231.06
213.98
207.31
215.42
235.87
261.07
282.07
292.55
291.21
281.48
269.10
259.22
254.21
253.38
254.00
253.22
249.24
241.55
229.73
212.50
187.57
152.94
109.13
60.65
15.88
-15.19
-24.34
-8.09
31.07
85.01
142.10
190.28
220.03
226.91
212.70
184.14
149.97
117.21
88.45
61.77
33.05
-0.45
-37.86
-74.68
-105.03
-124.64
-132.54
-130.73
-122.34
-109.75
-94.03
-75.48
-54.96
-34.48
-16.96
-5.17
-0.42
-1.59
-5.26
-6.66
-1.12
13.90
37.37
64.58
88.48
102.37
102.70
90.29
69.77
46.93
26.19
9.06
-5.39
-18.80
-32.06
-45.01
-57.46
-69.96
-83.52
-98.02
-110.51
-115.05
-105.00
-76.60
-32.02
20.34
68.87
103.59
120.48
122.71
118.69
117.60
125.25
141.79
162.28
179.57
187.56
183.47
168.38
145.93
120.38
94.77
70.28
46.61
23.29
0.72
-19.61
-36.27
-49.10
-60.19
-73.48
-93.04
-121.26
-157.88
-200.53
-245.91
-290.80
-332.01
-365.91
-388.18
-394.48
-382.40
-352.57
-309.24
-258.79
-207.20
-158.09
-111.96
-67.07
-21.13
27.26
77.78
128.38
175.94
217.29
250.23
274.16
290.12
300.16
306.02
308.48
307.32
302.11
293.02
281.00
267.13
251.39
232.21
207.11
174.15
133.58
88.22
42.47
0.07
-37.42
-71.65
-106.91
-148.18
-198.73
-257.96
-320.60
-377.55
-418.58
-435.60
-425.59
-391.95
-343.42
-291.17
-245.12
-210.69
-187.43
-169.91
-150.33
-121.91
-81.65
-31.41
22.95
74.08
116.03
146.18
165.75
178.43
188.67
200.07
214.88
233.95
256.97
282.46
307.72
329.22
343.63
349.22
346.56
338.58
329.31
322.39
319.98
322.25
327.74
333.79
337.13
334.32
322.54
300.54
269.24
231.88
193.06
157.15
126.79
102.18
81.38
61.59
40.52
17.33
-7.09
-30.93
-52.38
-70.64
-86.31
-101.22
-117.48
-136.73
-159.56
-185.55
-213.58
-241.98
-268.56
-290.60
-305.25
-310.26
-304.88
-290.37
-269.57
-245.58
-220.46
-194.54
-167.17
-138.29
-109.82
-85.73
-70.60
-67.55
-76.39
-93.70
-114.35
-133.77
-150.01
-164.48
-181.42
-205.83
-240.90
-285.86
-335.31
-380.41
-411.94
-423.85
-415.77
-392.82
-362.83
-332.75
-306.19
-283.45
-263.64
-246.93
-235.31
-231.07
-234.66
-242.92
-249.41
-246.93
-230.56
-199.75
-158.17
-111.97
-66.91
-27.02
5.85
31.09
48.43
57.71
59.44
56.07
52.21
54.02
65.87
88.36
117.49
146.51
169.23
182.83
190.08
198.13
215.95
247.94
291.67
337.94
375.14
393.34
386.38
354.07
301.77
240.61
181.87
136.25
111.84
113.73
141.62
186.31
232.87
265.69
277.49
267.28
241.61
210.29
183.90
169.64
166.83
170.31
173.98
177.27
178.00
173.13
157.23
125.88
92.48
70.47
67.46
56.72
31.35
-10.50
-56.04
-100.38
-140.71
-175.61
-207.15
-237.89
-269.35
-297.13
-318.94
-333.80
-343.82
-350.82
-356.75
-365.65
-381.37
-406.36
-438.17
-475.83
-519.05
-568.50
-621.88
-673.33
-715.28
-739.67
-740.52
-714.28
-664.40
-598.93
-527.98
-459.00
-395.70
-339.35
-289.95
-247.34
-210.41
-178.33
-149.53
-121.96
-93.06
-60.95
-25.51
11.93
49.20
84.73
117.62
147.90
176.05
202.62
227.55
249.96
268.44
281.69
289.17
291.43
289.99
286.81
283.63
281.51
280.67
280.77
281.30
282.06
283.34
285.91
290.86
299.21
311.43
326.90
343.62
358.39
367.65
368.52
359.88
342.62
319.35
293.31
267.36
243.25
221.65
202.46
185.47
170.59
157.72
146.62
136.69
127.05
116.85
105.54
93.07
79.86
66.59
53.89
42.24
31.81
22.56
14.30
6.79
-0.27
-7.06
-13.54
-19.34
-23.70
-25.75
-24.80
-20.62
-13.61
-4.65
5.18
14.84
23.44
30.27
34.73
36.35
34.99
30.92
24.98
18.37
12.37
7.91
5.39
4.62
5.02
5.90
6.70
7.04
6.74
5.66
3.70
0.80
-3.03
-7.58
-12.58
-17.67
-22.52
-26.95
-30.95
-34.65
-38.32
-42.29
-46.81
-51.98
-57.64
-63.31
-68.19
-71.30
-71.79
-69.17
-63.45
-55.05
-44.60
-32.72
-19.91
-6.60
6.72
19.50
31.12
41.18
49.59
56.64
62.84
68.69
74.34
79.61
84.05
87.11
88.36
87.59
84.86
80.38
74.48
67.43
59.45
50.68
41.24
31.33
21.22
11.28
1.87
-6.73
-14.35
-20.92
-26.52
-31.47
-36.08
-40.65
-45.15
-49.12
-51.64
-51.57
-47.98
-40.62
-30.14
-17.91
-5.68
4.99
13.11
18.36
20.93
21.37
20.26
18.14
15.60
13.23
11.58
11.06
11.74
13.28
15.04
16.34
16.66
15.89
14.23
12.09
9.90
7.91
6.17
4.52
2.75
0.69
-1.74
-4.51
-7.49
-10.53
-13.54
-16.56
-19.77
-23.38
-27.44
-31.69
-35.52
-37.99
-38.09
-35.22
-29.33
-21.11
-11.81
-2.83
4.64
9.85
12.61
13.03
11.43
8.12
3.44
-2.13
-8.03
-13.63
-18.45
-22.32
-25.43
-28.30
-31.45
-35.31
-39.99
-45.38
-51.22
-57.36
-63.67
-70.17
-76.87
-83.63
-90.24
-96.45
-102.11
-107.26
-112.05
-116.54
-120.50
-123.21
-123.62
-120.66
-113.60
-102.31
-87.22
-69.06
-48.47
-25.98
-1.96
23.16
48.76
74.18
99.05
123.44
147.70
171.96
195.45
216.34
232.22
240.90
241.49
234.75
222.75
208.11
192.95
178.39
164.46
150.62
136.13
120.59
104.00
86.63
68.90
51.22
34.05
17.92
3.62
-8.03
-16.35
-21.26
-23.43
-24.07
-24.36
-24.83
-25.15
-24.41
-21.83
-17.42
-12.09
-7.30
-4.32
-3.75
-5.29
-8.16
-11.48
-14.56
-17.02
-18.62
-19.33
-19.23
-18.56
-17.68
-16.90
-16.40
-16.22
-16.28
-16.52
-16.92
-17.42
-17.82
-17.86
-17.32
-16.26
-15.02
-14.13
-14.01
-14.74
-15.92
-16.91
-17.19
-16.57
-15.27
-13.61
-11.74
-9.36
-5.84
-0.49
6.94
16.02
25.73
34.74
41.90
46.52
48.51
48.21
46.09
42.61
38.15
33.08
27.92
23.21
19.43
16.86
15.39
14.51
13.54
11.76
8.72
4.45
-0.66
-5.90
-10.66
-14.53
-17.54
-19.93
-22.12
-24.43
-27.04
-30.02
-33.33
-36.87
-40.37
-43.26
-44.73
-43.93
-40.40
-34.32
-26.61
-18.59
-11.53
-6.25
-2.90
-1.12
-0.39
-0.35
-0.91
-2.23
-4.36
-7.13
-10.06
-12.56
-14.13
-14.60
-14.14
-13.17
-12.23
-11.67
-11.64
-12.12
-13.00
-14.20
-15.64
-17.20
-18.71
-20.00
-20.92
-21.36
-21.42
-21.30
-21.32
-21.74
-22.64
-23.82
-24.79
-24.87
-23.44
-20.21
-15.31
-9.33
-3.04
2.77
7.48
10.77
12.51
12.77
11.75
9.79
7.41
5.19
3.71
3.32
4.08
5.72
7.78
9.71
11.12
11.73
11.45
10.37
8.61
6.36
3.83
1.26
-1.13
-3.21
-4.97
-6.56
-8.13
-9.87
-11.86
-14.11
-16.54
-19.01
-21.26
-22.90
-23.47
-22.49
-19.73
-15.26
-9.61
-3.57
1.95
6.22
8.75
9.38
8.21
5.51
1.84
-2.09
-5.52
-7.78
-8.57
-8.10
-7.06
-6.41
-6.92
-8.91
-12.12
-15.87
-19.41
-22.34
-24.79
-27.35
-30.70
-35.19
-40.65
-46.36
-51.34
-54.74
-56.22
-56.11
-55.46
-55.88
-59.15
-66.52
-77.83
-90.91
-101.63
-104.75
-95.60
-71.60
-33.51
14.61
66.38
114.86
154.31
181.25
194.82
196.26
188.10
173.30
154.79
135.15
116.63
101.01
89.44
82.20
78.55
76.95
75.53
72.80
68.20
62.23
56.05
50.85
47.22
44.84
42.66
39.39
34.13
26.75
17.91
8.67
0.16
-6.76
-11.65
-14.27
-14.69
-13.09
-9.94
-5.93
-1.87
1.49
3.70
4.56
4.13
2.42
-0.49
-4.55
-9.48
-14.80
-19.79
-23.79
-26.36
-27.45
-27.38
-26.67
-25.87
-25.31
-25.10
-25.14
-25.25
-25.24
-25.04
-24.83
-24.98
-26.18
-29.18
-34.54
-42.46
-52.44
-63.29
-73.38
-81.01
-84.90
-84.42
-79.75
-71.58
-60.98
-49.03
-36.68
-24.72
-13.83
-4.54
2.75
7.82
10.74
11.84
11.58
10.48
8.98
7.37
5.82
4.35
2.99
1.68
0.35
-1.15
-2.96
-5.22
-7.89
-10.74
-13.45
-15.57
-16.89
-17.52
-17.98
-18.95
-21.12
-24.74
-29.57
-35.07
-40.58
-45.77
-50.72
-55.84
-61.41
-67.34
-73.01
-77.43
-79.80
-79.90
-78.40
-76.79
-76.96
-80.67
-88.96
-101.95
-118.66
-137.04
-154.04
-165.97
-169.20
-161.28
-142.18
-114.82
-84.48
-56.80
-35.23
-19.15
-3.94
16.86
48.47
92.44
146.03
203.66
259.39
308.86
349.87
381.69
403.77
415.22
414.88
402.14
377.60
343.29
302.16
257.20
211.16
166.04
123.41
84.54
50.34
21.06
-4.26
-27.72
-51.69
-77.19
-102.64
-123.60
-134.33
-130.32
-110.22
-76.25
-32.64
16.42
67.90
119.22
166.65
204.41
225.74
225.61
203.47
163.99
115.27
65.50
19.91
-20.13
-55.91
-89.53
-122.11
-153.52
-182.66
-207.79
-226.73
-236.94
-236.19
-223.72
-201.23
-172.89
-144.26
-120.46
-104.59
-97.15
-96.74
-101.12
-108.25
-116.45
-124.07
-129.31
-130.41
-126.20
-116.72
-103.37
-88.39
-74.24
-62.75
-54.72
-49.96
-47.63
-46.65
-46.11
-45.54
-44.86
-44.34
-44.31
-44.89
-45.89
-46.90
-47.48
-47.40
-46.80
-46.12
-45.82
-46.05
-46.49
-46.43
-45.10
-42.03
-37.26
-31.37
-25.17
-19.37
-14.41
-10.40
-7.37
-5.42
-4.89
-6.25
-9.80
-15.43
-22.50
-29.88
-36.22
-40.50
-42.31
-42.04
-40.71
-39.56
-39.61
-41.28
-44.29
-47.75
-50.53
-51.60
-50.20
-46.13
-39.76
-32.09
-24.68
-19.27
-17.22
-18.61
-21.79
-23.65
-20.75
-10.99
5.23
24.85
43.36
56.70
62.80
62.17
57.13
50.27
43.35
36.85
30.46
23.92
17.63
12.57
9.82
9.97
12.83
17.54
23.07
28.68
34.06
39.08
43.38
46.18
46.47
43.68
38.27
31.88
26.68
24.26
24.75
26.56
27.27
24.87
18.83
10.32
1.52
-5.36
-8.77
-8.17
-3.64
4.37
15.23
28.04
41.53
53.93
63.23
67.65
66.07
58.56
46.48
32.39
19.32
9.98
5.71
6.13
9.65
14.42
19.38
24.67
31.26
39.85
50.03
59.93
66.83
68.25
62.99
51.53
35.78
18.40
2.08
-11.02
-19.42
-22.36
-19.65
-11.60
0.95
16.56
33.34
49.09
61.70
69.65
72.40
70.60
65.86
60.35
56.20
55.07
57.95
65.09
76.24
90.72
107.63
125.98
144.76
163.11
180.40
196.12
209.74
220.54
227.56
229.77
226.42
217.28
202.84
184.10
162.25
138.40
113.47
88.01
62.30
36.14
8.82
-20.72
-53.49
-89.41
-126.62
-161.20
-188.29
-203.65
-205.76
-196.77
-182.23
-169.35
-164.49
-171.07
-188.56
-213.11
-239.04
-260.91
-275.13
-280.89
-280.14
-276.58
-274.33
-276.27
-282.94
-292.10
-299.44
-299.99
-289.81
-267.30
-233.42
-191.20
-144.39
-96.48
-49.71
-5.11
37.48
79.15
121.26
164.61
208.43
249.98
284.94
308.87
318.98
315.49
301.56
282.10
261.86
244.04
229.81
218.96
210.78
204.60
199.74
195.13
189.03
179.46
165.10
146.04
124.00
101.73
82.16
67.32
57.96
53.44
52.38
53.15
54.38
55.13
54.97
54.06
52.95
52.20
51.89
51.30
49.09
44.08
35.93
25.38
13.64
1.31
-12.40
-29.60
-52.59
-82.42
-117.93
-155.92
-192.30
-223.41
-246.96
-262.10
-268.94
-268.01
-260.15
-246.59
-229.04
-209.56
-189.95
-171.27
-153.61
-136.42
-119.18
-102.01
-85.91
-72.27
-62.17
-55.79
-52.21
-49.80
-46.88
-42.28
-35.50
-26.69
-16.18
-4.40
8.14
20.75
32.38
41.78
47.78
49.72
47.72
42.84
36.69
30.95
26.93
25.19
25.52
27.22
29.26
30.79
31.32
30.73
29.08
26.61
23.46
19.70
15.50
11.08
6.78
2.98
-0.04
-2.30
-4.12
-6.06
-8.64
-12.18
-16.65
-21.50
-25.88
-28.85
-29.58
-27.73
-23.45
-17.44
-10.60
-3.90
2.05
6.90
10.61
13.31
15.12
16.18
16.59
16.51
16.08
15.48
14.84
14.20
13.64
13.18
12.90
12.79
12.75
12.64
12.33
11.73
10.85
9.73
8.31
6.45
4.03
0.98
-2.49
-5.97
-9.03
-11.43
-13.20
-14.74
-16.46
-18.68
-21.45
-24.53
-27.54
-29.94
-31.20
-30.78
-28.39
-24.02
-18.14
-11.55
-5.13
0.39
4.74
8.05
10.64
12.72
14.29
15.15
15.12
14.27
12.95
11.62
10.63
10.12
9.86
9.54
8.83
7.57
5.90
4.12
2.57
1.49
1.00
0.97
1.22
1.46
1.48
1.10
0.23
-1.09
-2.79
-4.76
-6.91
-9.23
-11.80
-14.73
-18.13
-22.03
-26.23
-30.36
-33.89
-36.24
-36.92
-35.63
-32.39
-27.53
-21.74
-15.86
-10.68
-6.70
-3.92
-1.94
-0.13
2.00
4.67
7.69
10.64
13.14
15.01
16.35
17.44
18.50
19.58
20.57
21.27
21.59
21.54
21.26
20.82
20.16
19.05
17.19
14.38
10.60
6.13
1.37
-3.14
-6.99
-9.91
-11.86
-12.99
-13.61
-14.06
-14.59
-15.38
-16.49
-17.90
-19.53
-21.24
-22.71
-23.48
-23.07
-21.13
-17.68
-13.08
-7.98
-3.01
1.39
5.05
8.05
10.40
12.00
12.63
12.14
10.65
8.52
6.32
4.52
3.38
2.82
2.59
2.44
2.27
2.11
2.00
1.91
1.68
1.16
0.21
-1.09
-2.60
-4.11
-5.45
-6.57
-7.45
-8.07
-8.46
-8.66
-8.84
-9.17
-9.85
-10.95
-12.36
-13.88
-15.25
-16.27
-16.71
-16.34
-14.99
-12.51
-8.97
-4.58
0.18
4.79
8.80
11.99
14.31
15.86
16.81
17.29
17.45
17.35
17.08
16.64
16.02
15.20
14.16
13.03
11.95
11.09
10.48
10.02
9.46
8.58
7.26
5.46
3.28
0.77
-1.97
-4.84
-7.58
-9.89
-11.50
-12.25
-12.28
-11.88
-11.49
-11.43
-11.80
-12.46
-13.11
-13.35
-12.80
-11.19
-8.45
-4.80
-0.59
3.68
7.58
10.86
13.44
15.38
16.71
17.43
17.49
16.91
15.83
14.48
13.16
12.13
11.52
11.31
11.35
11.42
11.35
10.95
10.21
9.20
8.08
6.99
6.02
5.10
4.14
3.05
1.80
0.57
-0.42
-1.01
-1.26
-1.48
-2.19
-3.97
-7.19
-11.87
-17.60
-23.69
-29.29
-33.58
-35.92
-36.00
-34.02
-30.76
-27.46
-25.48
-25.71
-28.16
-31.68
-34.34
-34.05
-29.56
-20.90
-9.55
2.08
11.53
17.08
18.32
16.11
12.06
7.71
3.95
0.75
-2.51
-6.43
-11.09
-16.00
-20.48
-24.22
-27.57
-31.25
-35.77
-40.80
-45.11
-47.00
-45.02
-38.62
-28.19
-14.89
-0.18
14.39
27.43
37.75
44.62
48.13
49.29
49.85
51.67
56.08
63.31
72.53
82.24
90.91
97.50
101.62
103.62
104.19
104.32
104.88
106.29
108.36
110.07
109.81
106.09
98.21
86.86
74.13
62.78
55.10
52.13
53.28
56.88
60.99
64.14
65.58
65.04
62.29
56.91
48.57
37.32
23.84
9.40
-4.57
-16.96
-27.14
-34.98
-40.59
-44.02
-45.34
-44.71
-42.53
-39.51
-36.52
-34.34
-33.38
-33.62
-34.72
-36.36
-38.53
-41.48
-45.50
-50.45
-55.50
-59.43
-61.16
-60.50
-58.54
-57.31
-58.88
-64.40
-73.40
-83.99
-93.74
-100.74
-104.36
-105.28
-104.85
-104.08
-103.02
-100.69
-95.75
-87.55
-76.78
-65.70
-57.19
-53.73
-56.49
-64.96
-77.32
-90.97
-103.21
-111.36
-113.07
-106.35
-90.13
-64.93
-33.17
0.93
32.37
56.69
71.10
74.95
69.58
57.51
41.69
25.12
10.37
-0.39
-5.73
-5.14
0.73
10.07
20.24
28.40
32.41
31.28
25.53
16.98
8.18
1.60
-1.16
0.18
4.55
10.11
14.82
17.19
16.58
13.23
7.99
1.95
-3.95
-9.05
-12.98
-15.56
-16.72
-16.60
-15.57
-14.28
-13.61
-14.46
-17.38
-22.27
-28.38
-34.39
-38.84
-40.52
-38.78
-33.63
-25.63
-15.66
-4.74
6.11
16.05
24.28
30.11
32.81
31.75
26.61
17.60
5.72
-7.32
-19.41
-28.68
-34.00
-35.35
-33.73
-30.57
-27.18
-24.22
-21.67
-19.17
-16.32
-12.96
-8.97
-4.11
2.14
10.17
19.88
30.25
39.33
44.93
45.35
40.19
30.34
17.63
3.98
-9.10
-20.69
-30.20
-36.93
-39.90
-38.03
-30.63
-17.88
-1.13
17.36
34.95
49.44
59.57
65.13
66.66
65.04
61.04
55.27
48.33
40.96
34.21
29.13
26.43
26.04
27.05
28.04
27.54
24.67
19.42
12.47
4.89
-2.43
-9.10
-15.19
-20.99
-26.71
-32.28
-37.41
-41.80
-45.37
-48.36
-51.19
-54.33
-58.01
-62.21
-66.75
-71.35
-75.77
-79.68
-82.64
-84.07
-83.39
-80.24
-74.61
-66.90
-57.78
-48.00
-38.12
-28.58
-19.64
-11.55
-4.54
1.26
6.01
10.27
15.11
21.90
31.89
45.85
63.76
84.59
106.54
127.45
145.23
158.32
165.84
167.61
164.07
156.07
144.74
131.30
116.90
102.40
88.28
74.56
61.05
47.55
34.05
20.77
8.06
-3.78
-14.56
-24.25
-32.95
-40.76
-47.78
-54.12
-59.82
-64.74
-68.41
-70.07
-68.76
-63.72
-54.79
-42.58
-28.41
-13.90
-0.51
10.82
19.83
26.72
31.88
35.65
38.17
39.53
39.82
39.33
38.45
37.58
36.91
36.37
35.73
34.71
33.23
31.40
29.46
27.63
25.92
24.11
21.93
19.13
15.72
11.95
8.18
4.67
1.51
-1.37
-4.18
-6.94
-9.54
-11.78
-13.47
-14.59
-15.37
-16.19
-17.47
-19.51
-22.45
-26.20
-30.47
-34.71
-38.19
-40.03
-39.49
-36.21
-30.28
-22.29
-13.12
-3.69
5.32
13.45
20.43
26.03
29.99
32.15
32.59
31.65
29.95
28.17
26.83
26.19
26.17
26.54
26.96
27.22
27.19
26.87
26.33
25.60
24.78
23.89
22.92
21.77
20.32
18.48
16.26
13.81
11.29
8.92
6.74
4.65
2.38
-0.29
-3.47
-7.01
-10.60
-13.89
-16.60
-18.73
-20.53
-22.41
-24.85
-28.22
-32.61
-37.82
-43.25
-48.00
-51.01
-51.34
-48.42
-42.20
-33.25
-22.59
-11.42
-0.84
8.43
16.10
22.17
26.75
29.89
31.65
32.06
31.37
29.99
28.41
27.04
26.18
25.85
25.91
26.15
26.34
26.33
26.07
25.53
24.72
23.64
22.22
20.41
18.22
15.74
13.11
10.48
7.89
5.26
2.51
-0.38
-3.29
-5.99
-8.29
-10.16
-11.72
-13.19
-14.76
-16.46
-18.20
-19.86
-21.34
-22.67
-23.99
-25.45
-27.23
-29.36
-31.74
-34.01
-35.54
-35.35
-32.50
-26.21
-16.33
-3.41
11.41
26.69
41.13
53.89
64.62
73.28
79.89
84.36
86.39
85.74
82.24
76.03
67.49
57.26
46.08
34.76
24.08
14.76
7.41
2.39
-0.21
-0.62
0.71
3.18
6.17
9.17
11.76
13.73
15.03
15.77
16.22
16.75
17.81
19.78
22.76
26.60
30.82
34.72
37.59
38.78
37.92
34.89
29.81
22.93
14.59
5.11
-5.16
-15.90
-26.80
-37.50
-47.69
-57.00
-64.95
-70.96
-74.40
-74.72
-71.73
-65.67
-57.28
-47.63
-37.87
-28.91
-21.35
-15.52
-11.46
-9.19
-8.65
-9.72
-12.08
-15.21
-18.43
-21.07
-22.65
-23.02
-22.34
-21.00
-19.48
-18.07
-16.89
-15.86
-14.93
-14.17
-13.76
-14.01
-15.11
-17.09
-19.75
-22.76
-25.68
-28.19
-30.16
-31.66
-33.04
-34.69
-37.03
-40.26
-44.36
-48.89
-53.22
-56.57
-58.25
-57.94
-55.75
-52.31
-48.58
-45.63
-44.26
-44.83
-47.07
-50.11
-52.83
-54.04
-52.80
-48.62
-41.50
-31.98
-20.99
-9.73
0.69
9.44
16.19
21.03
24.43
26.89
28.81
30.44
31.83
33.05
34.10
35.01
35.74
36.14
36.00
35.20
33.70
31.61
29.15
26.56
24.12
22.06
20.62
19.95
20.18
21.50
24.02
27.89
32.98
38.83
44.59
49.18
51.52
50.93
47.41
41.57
34.47
27.24
20.75
15.43
11.34
8.21
5.65
3.22
0.60
-2.47
-6.18
-10.59
-15.63
-20.95
-25.89
-29.59
-31.07
-29.64
-25.10
-17.88
-9.03
0.19
8.54
15.16
19.67
22.10
22.65
21.59
19.17
15.65
11.33
6.67
2.35
-0.92
-2.45
-1.93
0.39
3.69
6.78
8.57
8.53
6.88
4.44
2.16
0.61
-0.24
-0.91
-2.08
-4.22
-7.40
-11.34
-15.57
-19.65
-23.20
-25.81
-27.06
-26.70
-24.71
-21.39
-17.40
-13.51
-10.36
-8.27
-7.17
-6.70
-6.53
-6.49
-6.71
-7.53
-9.39
-12.59
-17.15
-22.72
-28.54
-33.56
-36.62
-36.74
-33.48
-27.13
-18.65
-9.40
-0.67
6.66
12.30
16.41
19.32
21.27
22.36
22.61
22.07
20.96
19.61
18.41
17.59
17.20
17.11
17.09
16.93
16.53
15.87
15.00
13.97
12.69
11.01
8.75
5.83
2.35
-1.36
-4.92
-7.98
-10.37
-12.18
-13.63
-14.94
-16.27
-17.58
-18.64
-19.26
-19.27
-18.72
-17.83
-16.96
-16.45
-16.61
-17.56
-19.25
-21.58
-24.35
-27.52
-31.07
-35.03
-39.18
-43.05
-45.76
-46.24
-43.62
-37.57
-28.49
-17.50
-6.00
4.70
13.77
20.99
26.55
30.71
33.67
35.48
36.18
36.00
35.38
34.95
35.27
36.57
38.61
40.76
42.21
42.23
40.50
37.23
33.06
28.93
25.73
23.95
23.60
24.11
24.69
24.59
23.42
21.22
18.35
15.23
12.06
8.76
5.05
0.69
-4.29
-9.57
-14.63
-18.98
-22.39
-24.98
-27.14
-29.35
-32.00
-35.33
-39.34
-43.92
-48.80
-53.55
-57.46
-59.60
-59.04
-55.17
-47.97
-38.16
-26.91
-15.47
-4.82
4.64
12.92
20.23
26.74
32.41
37.08
40.62
43.07
44.70
45.90
46.96
48.01
48.92
49.43
49.27
48.28
46.51
44.11
41.28
38.12
34.61
30.69
26.35
21.69
16.92
12.33
8.16
4.55
1.45
-1.37
-4.20
-7.31
-10.80
-14.56
-18.32
-21.80
-24.80
-27.37
-29.71
-32.21
-35.21
-39.02
-43.69
-48.98
-54.30
-58.76
-61.28
-60.89
-57.02
-49.71
-39.60
-27.82
-15.64
-4.16
5.95
14.46
21.49
27.19
31.65
34.79
36.48
36.72
35.76
34.13
32.45
31.30
30.92
31.24
31.91
32.54
32.79
32.57
31.91
30.96
29.81
28.47
26.85
24.79
22.17
18.96
15.34
11.57
8.01
4.93
2.39
0.21
-1.96
-4.50
-7.66
-11.35
-15.34
-19.23
-22.72
-25.71
-28.33
-30.86
-33.61
-36.87
-40.80
-45.49
-50.76
-56.06
-60.44
-62.67
-61.55
-56.39
-47.34
-35.40
-22.16
-9.28
2.04
11.28
18.53
24.20
28.63
31.93
34.04
34.89
34.60
33.57
32.33
31.42
31.13
31.49
32.27
33.22
34.11
34.79
35.19
35.20
34.65
33.41
31.47
28.90
25.96
22.88
19.86
16.94
14.05
11.06
7.92
4.72
1.63
-1.16
-3.56
-5.68
-7.73
-10.04
-12.79
-15.98
-19.44
-22.87
-26.09
-29.07
-31.94
-34.93
-38.29
-42.23
-46.73
-51.59
-56.22
-59.70
-60.91
-58.84
-52.90
-43.28
-30.95
-17.43
-4.30
7.24
16.62
23.88
29.36
33.39
36.12
37.54
37.64
36.59
34.88
33.13
31.90
31.49
31.75
32.31
32.74
32.75
32.30
31.55
30.70
29.83
28.83
27.46
25.51
22.93
19.81
16.46
13.21
10.32
7.87
5.80
3.94
2.10
0.09
-2.23
-4.93
-8.00
-11.40
-14.95
-18.49
-21.88
-25.08
-28.20
-31.54
-35.41
-40.12
-45.82
-52.33
-59.07
-65.01
-68.83
-69.22
-65.33
-57.06
-45.21
-31.26
-16.85
-3.45
8.05
17.28
24.28
29.20
32.24
33.60
33.56
32.60
31.29
30.19
29.75
30.10
31.13
32.47
33.74
34.61
34.95
34.81
34.31
33.52
32.35
30.64
28.15
24.77
20.57
15.91
11.27
7.14
3.79
1.21
-0.87
-2.90
-5.28
-8.24
-11.76
-15.59
-19.35
-22.71
-25.48
-27.68
-29.56
-31.52
-34.04
-37.46
-41.92
-47.18
-52.56
-56.98
-59.19
-58.09
-53.09
-44.29
-32.55
-19.13
-5.36
7.84
20.11
31.61
42.61
53.20
63.05
71.36
77.16
79.68
78.66
74.40
67.78
59.84
51.62
43.83
36.87
30.85
25.79
21.65
18.38
15.80
13.57
11.22
8.28
4.49
-0.03
-4.72
-8.87
-11.81
-13.22
-13.24
-12.42
-11.53
-11.25
-11.99
-13.71
-16.04
-18.39
-20.20
-21.10
-21.07
-20.33
-19.36
-18.66
-18.68
-19.56
-21.05
-22.36
-22.27
-19.51
-13.26
-3.59
8.35
20.57
30.92
37.77
40.46
39.39
35.73
30.82
25.77
21.28
17.62
14.78
12.58
10.76
9.04
7.08
4.65
1.65
-1.75
-5.17
-8.10
-10.13
-11.13
-11.26
-10.97
-10.76
-10.98
-11.73
-12.86
-14.07
-15.02
-15.50
-15.42
-14.84
-13.96
-13.02
-12.32
-12.12
-12.50
-13.38
-14.60
-16.00
-17.47
-19.12
-21.06
-23.42
-26.16
-29.09
-31.96
-34.60
-37.00
-39.32
-41.84
-44.78
-48.32
-52.41
-56.81
-61.00
-64.10
-65.04
-62.81
-56.84
-47.32
-35.25
-22.20
-9.79
0.88
9.41
16.02
21.23
25.43
28.72
31.01
32.17
32.32
31.89
31.45
31.44
32.03
33.04
34.09
34.82
35.02
34.71
34.06
33.21
32.22
31.03
29.42
27.22
24.35
20.87
17.05
13.22
9.66
6.57
3.96
1.69
-0.46
-2.69
-5.14
-7.90
-10.96
-14.30
-17.78
-21.18
-24.26
-26.83
-28.91
-30.81
-32.99
-35.97
-40.06
-45.16
-50.66
-55.54
-58.49
-58.29
-54.20
-46.16
-34.91
-21.81
-8.43
3.84
14.16
22.25
28.29
32.58
35.32
36.61
36.52
35.27
33.32
31.26
29.70
28.98
29.09
29.67
30.28
30.54
30.33
29.72
28.85
27.85
26.65
25.07
22.90
20.08
16.72
13.16
9.74
6.73
4.20
2.05
0.01
-2.22
-4.84
-7.97
-11.51
-15.24
-18.85
-22.00
-24.48
-26.25
-27.50
-28.62
-30.14
-32.59
-36.28
-41.15
-46.57
-51.49
-54.55
-54.55
-50.73
-43.16
-32.61
-20.40
-8.01
3.41
13.11
20.87
26.81
31.17
34.14
35.86
36.39
35.87
34.61
33.02
31.58
30.65
30.37
30.66
31.31
32.00
32.56
32.87
32.85
32.45
31.58
30.13
28.03
25.32
22.08
18.48
14.74
11.00
7.45
4.20
1.34
-1.10
-3.19
-5.12
-7.13
-9.46
-12.23
-15.32
-18.46
-21.33
-23.75
-25.75
-27.62
-29.84
-32.86
-36.99
-42.19
-48.05
-53.74
-58.10
-59.82
-57.82
-51.60
-41.46
-28.52
-14.34
-0.60
11.49
21.32
28.89
34.51
38.51
41.02
41.96
41.21
38.76
34.88
30.11
25.10
20.44
16.57
13.69
11.78
10.66
10.09
9.82
9.63
9.37
8.93
8.24
7.23
5.78
3.82
1.29
-1.72
-5.00
-8.20
-10.95
-12.99
-14.23
-14.87
-15.22
-15.63
-16.39
-17.63
-19.34
-21.42
-23.75
-26.23
-28.83
-31.54
-34.39
-37.41
-40.68
-44.28
-48.20
-52.14
-55.46
-57.21
-56.37
-52.19
-44.46
-33.66
-20.83
-7.36
5.41
16.46
25.22
31.63
35.90
38.46
39.73
40.03
39.60
38.65
37.44
36.27
35.47
35.16
35.30
35.65
35.89
35.76
35.15
34.07
32.58
30.69
28.34
25.43
21.90
17.84
13.46
9.09
5.10
1.72
-0.94
-3.07
-4.98
-7.04
-9.56
-12.57
-15.86
-19.06
-21.82
-23.98
-25.63
-27.06
-28.61
-30.60
-33.21
-36.49
-40.38
-44.62
-48.59
-51.37
-51.78
-48.87
-42.27
-32.46
-20.68
-8.53
2.58
11.77
18.82
23.94
27.45
29.57
30.43
30.16
29.05
27.60
26.39
25.84
26.17
27.26
28.79
30.41
31.88
33.11
34.14
35.00
35.52
35.34
33.99
31.17
26.94
21.78
16.45
11.65
7.73
4.62
1.89
-0.92
-4.09
-7.52
-10.95
-14.02
-16.54
-18.62
-20.65
-23.14
-26.63
-31.48
-37.64
-44.59
-51.29
-56.38
-58.53
-56.81
-51.04
-41.80
-30.31
-17.99
-6.13
4.42
13.28
20.39
25.84
29.72
32.06
32.90
32.46
31.12
29.38
27.72
26.48
25.79
25.57
25.67
25.91
26.19
26.50
26.78
26.88
26.51
25.31
23.01
19.56
15.18
10.35
5.60
1.34
-2.30
-5.41
-8.20
-10.92
-13.68
-16.43
-19.05
-21.41
-23.46
-25.35
-27.32
-29.81
-33.20
-37.72
-43.17
-48.83
-53.52
-55.89
-54.77
-49.66
-40.91
-29.65
-17.41
-5.66
4.65
13.19
20.10
25.71
30.27
33.79
36.12
37.17
37.04
36.13
35.01
34.26
34.21
34.85
35.84
36.74
37.18
37.02
36.42
35.64
34.90
34.19
33.30
31.89
29.66
26.49
22.46
17.89
13.18
8.69
4.68
1.13
-2.13
-5.41
-8.91
-12.70
-16.65
-20.49
-24.02
-27.18
-30.12
-33.08
-36.42
-40.36
-45.06
-50.40
-55.91
-60.79
-63.94
-64.27
-60.97
-53.92
-43.72
-31.62
-19.07
-7.32
2.88
11.36
18.30
23.97
28.43
31.47
32.81
32.32
30.28
27.36
24.49
22.45
21.68
22.12
23.30
24.62
25.59
26.08
26.16
26.05
25.81
25.34
24.35
22.56
19.89
16.53
12.91
9.54
6.79
4.64
2.73
0.41
-2.97
-7.81
-14.13
-21.51
-29.29
-36.73
-43.30
-48.80
-53.35
-57.32
-61.19
-65.33
-69.89
-74.59
-78.67
-81.05
-80.62
-76.73
-69.54
-60.21
-50.54
-42.44
-37.23
-35.09
-35.04
-35.06
-32.78
-26.18
-14.16
3.03
23.80
45.60
65.68
81.81
92.93
99.26
101.96
102.45
101.92
100.92
99.51
97.62
95.30
92.87
90.70
88.87
86.97
84.22
79.82
73.39
65.24
56.25
47.39
39.21
31.57
23.84
15.40
6.15
-3.37
-12.24
-19.70
-25.61
-30.42
-34.91
-39.62
-44.53
-49.11
-52.52
-53.98
-53.00
-49.45
-43.42
-35.21
-25.39
-14.80
-4.59
4.03
10.05
12.97
12.89
10.36
6.20
1.15
-4.24
-9.57
-14.54
-18.78
-21.81
-23.19
-22.55
-19.86
-15.45
-9.98
-4.22
1.14
5.61
8.74
10.05
8.99
5.04
-1.84
-10.92
-20.71
-29.30
-34.96
-36.73
-34.61
-29.34
-22.01
-13.63
-5.05
3.01
9.85
14.73
16.96
16.01
11.73
4.47
-4.66
-13.78
-20.49
-22.52
-18.58
-8.95
4.48
18.78
31.07
39.42
43.33
43.50
41.22
37.68
33.65
29.52
25.62
22.39
20.35
19.88
20.89
22.78
24.55
25.30
24.50
22.29
19.30
16.36
13.96
11.97
9.70
6.12
0.39
-7.78
-17.80
-28.30
-37.46
-43.57
-45.69
-43.95
-39.71
-35.07
-32.19
-32.53
-36.42
-43.10
-51.18
-59.23
-66.26
-71.78
-75.57
-77.29
-76.35
-72.02
-63.87
-52.09
-37.57
-21.65
-5.73
9.05
21.84
32.08
39.38
43.68
45.38
45.25
44.02
42.10
39.31
35.10
29.11
21.63
13.66
6.40
0.74
-3.06
-5.10
-5.38
-3.49
1.09
8.47
17.85
27.47
35.18
39.19
38.61
33.60
25.23
15.18
5.54
-1.48
-4.18
-1.97
4.12
11.63
17.57
19.64
17.22
11.54
4.85
-0.74
-4.26
-6.23
-8.12
-11.41
-16.85
-24.05
-31.81
-38.77
-43.88
-46.59
-46.71
-44.19
-38.90
-30.93
-20.78
-9.56
1.15
9.74
15.13
17.05
15.95
12.69
8.13
3.03
-1.85
-5.75
-7.91
-7.82
-5.47
-1.44
3.30
7.69
10.96
12.85
13.47
13.26
12.58
11.71
10.69
9.35
7.47
4.82
1.40
-2.57
-6.52
-9.74
-11.46
-11.21
-8.99
-5.45
-1.69
1.01
1.58
-0.52
-5.17
-11.69
-18.99
-25.83
-30.97
-33.41
-32.47
-28.08
-20.80
-11.73
-2.10
7.21
15.87
24.14
32.30
40.08
46.39
49.65
48.44
42.28
32.08
19.82
7.87
-1.89
-8.38
-11.35
-11.01
-7.72
-2.14
4.69
11.18
15.53
16.30
13.00
6.33
-2.12
-10.53
-17.46
-22.25
-24.96
-26.04
-25.93
-24.88
-22.89
-20.03
-16.69
-13.68
-12.04
-12.79
-16.45
-22.83
-30.94
-39.33
-46.47
-51.14
-52.65
-50.84
-45.96
-38.56
-29.40
-19.33
-9.18
0.42
9.04
16.40
22.32
26.61
29.22
30.41
30.88
31.63
33.64
37.45
42.87
49.04
54.74
58.81
60.49
59.51
55.96
50.27
43.14
35.53
28.52
23.03
19.33
16.86
14.36
10.42
4.22
-4.09
-13.52
-22.85
-31.14
-37.96
-43.13
-46.23
-46.43
-42.80
-34.97
-23.78
-11.30
-0.21
7.15
9.64
7.65
2.76
-2.82
-6.97
-8.19
-5.85
-0.33
7.12
14.75
20.79
23.95
23.89
21.10
16.67
11.79
7.42
4.11
2.14
1.71
2.90
5.58
9.22
12.74
14.78
14.01
9.76
2.27
-7.26
-17.05
-25.36
-31.05
-33.88
-34.35
-33.27
-31.18
-28.08
-23.55
-17.29
-9.72
-2.21
3.22
4.86
2.10
-4.12
-11.68
-18.26
-22.35
-23.89
-24.05
-24.62
-27.01
-31.77
-38.44
-45.87
-52.70
-57.71
-60.07
-59.30
-55.27
-48.09
-38.21
-26.36
-13.43
-0.33
12.24
23.96
34.81
44.87
54.17
62.54
69.71
75.55
80.19
83.99
87.34
90.56
93.57
96.09
97.57
97.47
95.37
91.13
84.98
77.55
69.66
62.11
55.41
49.57
44.24
38.92
33.24
27.17
20.98
15.11
9.89
5.45
1.62
-1.99
-5.88
-10.58
-16.67
-24.71
-35.33
-49.13
-66.35
-86.53
-108.14
-128.50
-144.37
-152.63
-151.30
-140.20
-121.07
-97.11
-72.20
-50.00
-33.27
-23.51
-20.83
-24.05
-31.12
-39.50
-46.72
-50.78
-50.35
-44.89
-34.61
-20.47
-4.20
11.97
25.76
35.50
40.74
42.39
42.34
42.58
44.34
47.60
51.25
53.78
54.01
51.59
47.05
41.44
35.93
31.43
28.33
26.43
24.96
22.73
18.46
11.20
0.63
-12.73
-27.72
-42.83
-56.58
-67.76
-75.45
-79.09
-78.41
-73.59
-65.33
-54.80
-43.51
-32.88
-23.78
-16.34
-10.01
-3.99
2.21
8.25
13.06
15.21
13.63
8.27
0.15
-8.89
-16.89
-22.32
-24.31
-22.47
-16.63
-6.89
6.25
21.36
36.24
48.30
55.49
57.09
54.12
48.99
44.53
42.99
45.19
50.44
57.10
63.30
67.64
69.40
68.43
64.88
59.10
51.59
43.16
34.91
27.95
23.01
20.10
18.51
17.15
15.10
11.98
8.10
4.30
1.53
0.47
1.22
3.11
4.87
4.99
2.24
-3.81
-12.62
-22.92
-33.21
-42.26
-49.37
-54.30
-56.96
-57.20
-54.66
-49.00
-40.20
-28.87
-16.32
-4.49
4.57
9.33
9.26
5.04
-1.67
-8.91
-15.09
-19.42
-21.96
-23.21
-23.72
-23.80
-23.50
-22.89
-22.25
-22.05
-22.83
-24.85
-27.95
-31.60
-35.08
-37.86
-39.82
-41.30
-42.97
-45.50
-49.22
-53.82
-58.33
-61.27
-61.09
-56.62
-47.48
-34.21
-18.08
-0.76
16.25
31.93
45.91
58.26
69.14
78.59
86.38
92.22
95.88
97.42
97.07
95.19
92.10
88.09
83.51
78.75
74.31
70.51
67.36
64.46
61.19
57.04
51.91
46.21
40.72
36.08
32.47
29.42
26.04
21.47
15.39
8.21
0.97
-5.12
-9.23
-11.27
-11.99
-12.57
-14.18
-17.42
-22.17
-27.68
-32.85
-36.62
-38.26
-37.48
-34.42
-29.48
-23.13
-15.83
-7.96
0.16
8.19
15.72
22.24
27.15
29.94
30.47
29.01
26.36
23.57
21.56
20.83
21.26
22.21
22.89
22.72
21.64
20.05
18.56
17.70
17.60
18.04
18.55
18.54
17.51
15.09
11.05
5.37
-1.87
-10.49
-20.22
-30.73
-41.62
-52.45
-62.75
-72.08
-80.20
-87.06
-92.87
-98.01
-102.85
-107.64
-112.44
-117.05
-121.07
-123.87
-124.66
-122.59
-117.01
-107.66
-94.86
-79.47
-62.73
-45.94
-30.22
-16.35
-4.74
4.53
11.59
16.69
20.09
22.09
22.88
22.60
21.38
19.32
16.59
13.42
10.11
6.94
4.17
1.89
0.03
-1.60
-3.24
-5.09
-7.13
-9.03
-10.15
-9.64
-6.78
-1.37
6.02
14.01
20.78
24.71
25.02
22.06
17.10
11.79
7.37
4.31
2.24
0.36
-2.03
-5.26
-9.24
-13.68
-18.24
-22.61
-26.35
-28.94
-29.75
-28.35
-24.70
-19.28
-12.96
-6.69
-1.30
2.81
5.56
7.11
7.70
7.52
6.61
4.89
2.27
-1.23
-5.30
-9.28
-12.27
-13.33
-11.69
-6.85
1.37
12.68
26.13
40.10
52.40
60.86
64.13
62.21
56.60
49.87
44.84
43.58
46.82
53.77
62.41
70.31
75.37
76.50
73.86
68.54
61.94
55.01
47.98
40.57
32.59
24.30
16.44
9.85
4.96
1.72
-0.16
-0.84
-0.20
2.03
5.88
10.93
16.34
21.13
24.49
25.87
24.92
21.49
15.63
7.83
-0.93
-9.29
-16.01
-20.41
-22.60
-23.29
-23.42
-23.71
-24.45
-25.55
-26.78
-27.87
-28.53
-28.36
-26.79
-23.32
-17.85
-10.91
-3.66
2.62
7.14
9.94
11.75
13.39
14.97
15.60
13.78
8.27
-0.95
-12.35
-23.45
-31.99
-36.98
-38.94
-39.34
-39.36
-39.09
-37.44
-32.98
-25.04
-14.33
-2.72
7.60
15.02
18.88
19.15
15.96
9.22
-1.22
-15.05
-31.00
-46.80
-59.54
-66.42
-65.58
-56.69
-41.05
-21.27
-0.53
18.30
33.34
44.00
50.74
54.60
56.65
57.75
58.30
58.35
57.58
55.43
51.44
45.60
38.54
31.44
25.46
21.08
17.75
13.89
7.62
-2.49
-16.74
-34.15
-52.78
-70.19
-84.02
-92.24
-93.51
-87.38
-74.60
-57.09
-37.71
-19.57
-5.31
3.73
7.78
8.53
8.51
10.17
15.09
23.57
34.75
47.01
58.70
68.46
75.28
78.39
77.09
70.87
59.89
45.38
29.62
15.35
4.61
-2.24
-6.74
-11.71
-19.75
-31.96
-47.32
-63.03
-75.61
-82.19
-81.29
-73.17
-59.47
-42.75
-25.84
-11.34
-1.21
3.55
2.93
-2.09
-9.95
-18.97
-27.75
-35.30
-41.05
-44.76
-46.35
-45.88
-43.61
-39.89
-35.12
-29.68
-23.90
-18.22
-13.24
-9.91
-9.25
-12.08
-18.51
-27.75
-38.14
-47.54
-53.85
-55.52
-51.82
-43.03
-30.42
-15.87
-1.56
10.45
18.76
22.84
23.24
21.62
20.43
22.27
29.15
41.58
58.07
75.40
89.65
97.78
98.85
94.31
87.11
80.14
74.86
70.92
66.84
61.22
53.65
44.74
35.47
26.31
17.00
6.86
-4.37
-15.99
-26.49
-34.22
-38.24
-38.77
-36.92
-33.99
-30.72
-27.00
-22.09
-15.30
-6.63
2.97
11.71
17.66
19.49
17.02
11.37
4.48
-1.59
-5.39
-6.40
-5.01
-2.16
1.12
4.04
6.21
7.52
7.98
7.62
6.51
4.71
2.42
-0.03
-2.27
-4.01
-5.20
-6.15
-7.45
-9.72
-13.39
-18.41
-24.37
-30.64
-36.71
-42.32
-47.40
-51.83
-55.25
-57.06
-56.57
-53.39
-47.64
-39.96
-31.22
-22.20
-13.39
-4.95
3.06
10.44
16.83
21.82
25.31
27.60
29.35
31.30
33.82
36.78
39.60
41.66
42.67
42.86
42.80
43.09
43.99
45.37
46.70
47.36
46.72
44.25
39.58
32.60
23.73
14.09
5.39
-0.61
-2.76
-1.30
2.08
4.72
4.00
-1.66
-12.19
-26.04
-40.86
-54.27
-64.43
-70.00
-70.13
-64.27
-52.50
-35.90
-16.68
2.08
17.36
27.19
31.45
31.85
31.18
32.14
36.26
43.40
51.91
59.35
63.40
62.76
57.58
49.52
41.14
34.97
32.43
33.18
35.32
36.17
33.50
26.51
16.02
3.86
-8.09
-18.56
-27.09
-33.40
-37.00
-37.25
-33.93
-27.95
-21.65
-18.08
-19.64
-26.92
-38.22
-50.20
-59.15
-62.21
-58.19
-47.56
-32.19
-14.67
2.15
15.81
24.66
28.25
27.44
23.95
19.89
17.15
17.09
20.29
26.53
34.75
43.20
49.99
53.69
53.99
51.86
49.01
46.93
45.99
45.25
42.95
37.73
29.57
19.97
11.15
4.76
0.88
-2.11
-6.59
-14.24
-25.13
-37.55
-48.92
-56.93
-60.56
-60.19
-57.09
-52.88
-48.91
-46.17
-45.36
-46.93
-51.03
-57.26
-64.44
-70.61
-73.42
-70.83
-61.99
-47.80
-30.88
-14.84
-3.13
2.06
0.53
-6.06
-14.73
-22.14
-25.40
-22.82
-14.27
-1.15
14.06
28.61
40.40
48.62
53.66
56.59
58.43
59.51
59.66
58.43
55.69
51.90
48.05
45.35
44.76
46.82
51.48
58.22
66.27
74.81
82.96
89.69
93.73
93.53
87.61
74.98
55.68
30.93
2.95
-25.63
-52.32
-75.17
-92.75
-104.03
-108.34
-105.54
-96.49
-83.26
-69.09
-57.60
-51.91
-53.66
-62.61
-76.85
-93.41
-109.20
-121.64
-129.04
-130.74
-126.98
-118.74
-107.48
-94.77
-81.92
-69.75
-58.53
-48.18
-38.61
-29.98
-22.69
-17.21
-13.73
-11.86
-10.47
-7.95
-2.65
6.54
19.69
35.76
52.77
68.46
80.85
88.78
92.20
92.08
90.04
87.87
86.98
88.03
90.78
94.28
97.19
98.40
97.39
94.45
90.49
86.56
83.17
79.73
74.58
65.40
50.20
28.12
-0.01
-31.94
-64.70
-95.53
-122.47
-144.43
-160.90
-171.50
-175.85
-173.67
-165.07
-150.73
-131.69
-109.06
-83.65
-55.99
-26.44
4.45
35.70
65.88
93.30
116.49
134.43
146.75
153.68
155.92
154.46
150.38
144.71
138.19
131.27
124.09
116.72
109.40
102.71
97.35
93.77
91.83
90.63
88.77
84.87
78.02
68.03
55.19
40.02
23.04
4.94
-13.30
-30.28
-44.52
-54.98
-61.49
-64.96
-67.03
-69.54
-73.88
-80.63
-89.48
-99.28
-108.44
-115.32
-118.72
-118.20
-114.18
-107.65
-99.79
-91.47
-83.12
-74.89
-66.84
-59.23
-52.41
-46.55
-41.51
-36.83
-31.92
-26.40
-20.30
-14.00
-8.02
-2.70
1.97
6.29
10.63
15.23
19.94
24.22
27.36
28.63
27.67
24.49
19.59
13.77
8.11
3.86
2.27
4.28
10.02
18.66
28.28
36.52
41.28
41.47
37.29
29.97
21.00
11.49
1.80
-8.24
-18.76
-29.44
-39.27
-46.97
-51.39
-52.09
-49.44
-44.39
-38.09
-31.49
-25.17
-19.43
-14.50
-10.72
-8.55
-8.32
-9.98
-12.87
-15.84
-17.59
-17.22
-14.53
-10.09
-5.02
-0.48
2.71
4.42
5.33
6.78
10.35
17.23
27.64
40.32
52.64
61.29
63.37
57.49
44.30
26.25
6.67
-11.30
-25.46
-34.81
-39.27
-39.28
-35.61
-29.33
-21.74
-14.15
-7.52
-2.02
3.01
8.75
16.16
25.45
35.79
45.66
53.51
58.41
60.32
59.92
58.21
55.93
53.44
50.67
47.53
44.05
40.45
37.04
34.02
31.43
29.11
26.94
24.91
23.21
22.07
21.60
21.62
21.68
21.21
19.74
17.10
13.48
9.31
5.04
1.04
-2.59
-5.89
-8.99
-12.00
-14.92
-17.72
-20.36
-22.86
-25.30
-27.72
-30.05
-32.15
-33.93
-35.48
-37.09
-39.19
-41.99
-45.35
-48.59
-50.68
-50.55
-47.39
-40.75
-30.69
-17.76
-2.98
12.13
25.75
36.17
42.23
43.67
41.22
36.21
30.11
24.05
18.75
14.56
11.68
10.19
10.02
10.83
12.02
12.86
12.86
11.84
9.98
7.57
4.81
1.73
-1.79
-5.86
-10.39
-15.13
-19.83
-24.32
-28.58
-32.68
-36.65
-40.36
-43.54
-45.92
-47.35
-47.92
-47.88
-47.62
-47.48
-47.75
-48.68
-50.43
-53.08
-56.52
-60.26
-63.46
-64.98
-63.75
-59.03
-50.72
-39.42
-26.24
-12.51
0.58
12.19
21.88
29.45
34.92
38.35
39.92
39.92
38.79
37.03
35.19
33.67
32.69
32.27
32.26
32.42
32.49
32.30
31.75
30.83
29.61
28.14
26.40
24.37
21.96
19.21
16.24
13.26
10.56
8.32
6.57
5.13
3.72
2.02
-0.11
-2.64
-5.34
-7.93
-10.21
-12.17
-14.02
-16.10
-18.67
-21.81
-25.44
-29.28
-32.92
-35.87
-37.57
-37.48
-35.22
-30.68
-24.11
-16.12
-7.54
0.77
8.11
14.08
18.56
21.59
23.41
24.24
24.34
23.95
23.33
22.73
22.40
22.54
23.19
24.27
25.56
26.78
27.74
28.34
28.58
28.49
28.06
27.21
25.79
23.78
21.24
18.41
15.57
12.97
10.71
8.70
6.70
4.44
1.79
-1.20
-4.27
-7.10
-9.47
-11.37
-13.05
-14.84
-17.08
-19.93
-23.37
-27.24
-31.25
-35.00
-37.90
-39.21
-38.27
-34.69
-28.62
-20.76
-12.19
-3.95
3.24
9.15
13.87
17.63
20.55
22.58
23.63
23.78
23.31
22.69
22.39
22.64
23.43
24.47
25.45
26.20
26.71
27.14
27.62
28.16
28.59
28.67
28.24
27.30
26.03
24.69
23.49
22.50
21.65
20.78
19.70
18.31
16.57
14.59
12.56
10.78
9.48
8.80
8.60
8.47
7.80
5.88
2.13
-3.78
-11.79
-21.44
-31.83
-41.79
-50.06
-55.54
-57.62
-56.23
-51.94
-45.69
-38.43
-30.92
-23.56
-16.59
-10.29
-5.12
-1.50
0.31
0.59
0.05
-0.44
-0.19
1.08
3.39
6.77
11.46
17.77
25.64
34.37
42.48
48.28
50.47
48.78
43.96
37.36
30.30
23.55
17.48
12.36
8.76
7.55
9.44
14.33
20.98
27.31
31.11
31.03
27.00
20.27
12.66
5.77
0.45
-3.31
-6.08
-8.53
-11.00
-13.50
-15.81
-17.71
-19.19
-20.46
-21.67
-22.71
-22.98
-21.48
-17.24
-9.86
0.10
11.05
20.95
28.08
31.77
32.76
32.76
33.68
36.62
41.34
46.32
49.49
49.25
45.21
38.32
30.47
23.63
19.07
16.92
16.38
16.15
14.95
11.79
5.84
-3.67
-17.43
-35.58
-57.19
-79.92
-100.36
-114.76
-120.18
-115.39
-101.20
-80.20
-56.12
-32.96
-14.27
-2.56
1.09
-2.80
-12.42
-25.13
-38.27
-49.85
-58.74
-64.56
-67.30
-66.91
-63.24
-56.28
-46.32
-34.20
-21.20
-8.64
2.46
11.55
18.63
24.04
28.12
31.11
33.08
33.96
33.69
32.25
29.71
26.40
22.93
20.27
19.44
21.07
24.86
29.40
32.49
32.02
26.90
17.61
5.91
-5.76
-15.32
-21.47
-23.70
-22.10
-17.13
-9.66
-1.08
6.72
11.95
13.53
11.60
7.47
2.86
-0.84
-3.25
-4.98
-7.19
-10.91
-16.61
-24.16
-32.93
-41.99
-50.30
-56.71
-60.05
-59.34
-54.08
-44.53
-31.76
-17.50
-3.64
8.26
17.40
23.83
28.25
31.58
34.55
37.44
40.18
42.46
44.03
44.83
44.99
44.77
44.49
44.43
44.65
44.96
44.78
43.26
39.43
32.49
22.26
9.48
-4.17
-16.41
-25.03
-28.82
-28.19
-25.22
-23.04
-24.60
-31.46
-43.09
-57.16
-70.40
-79.97
-84.31
-83.30
-77.70
-68.51
-56.48
-42.14
-26.11
-9.30
7.20
22.51
36.31
48.86
60.53
71.11
79.51
84.00
83.14
76.74
66.42
55.19
46.19
41.31
40.26
40.85
40.09
35.73
27.32
16.28
5.08
-4.08
-10.06
-13.00
-13.62
-12.56
-10.01
-5.92
-0.59
5.05
9.53
11.43
10.12
6.05
0.53
-4.85
-8.91
-11.24
-12.17
-12.43
-12.64
-13.14
-13.90
-14.75
-15.61
-16.69
-18.50
-21.51
-25.78
-30.51
-34.06
-34.39
-29.89
-20.09
-5.92
10.54
26.89
41.04
51.57
57.77
59.36
56.47
49.72
40.40
30.29
21.25
14.41
9.78
6.32
2.59
-2.35
-8.41
-14.52
-19.13
-20.90
-19.24
-14.45
-7.57
-0.15
6.16
9.89
10.12
7.00
1.83
-2.99
-4.65
-0.89
9.05
24.11
41.82
59.12
73.54
83.76
89.61
91.46
89.47
83.28
72.26
56.23
36.08
13.84
-7.87
-26.71
-41.36
-51.78
-58.75
-63.24
-65.70
-65.84
-62.73
-55.42
-43.46
-27.40
-8.87
9.79
26.20
38.56
45.99
48.54
46.77
41.33
32.86
22.02
9.63
-3.38
-16.33
-29.07
-42.11
-56.10
-71.15
-86.29
-99.50
-108.35
-111.08
-107.31
-98.28
-86.37
-74.33
-64.48
-58.30
-56.16
-57.49
-60.96
-64.90
-67.77
-68.58
-67.20
-64.26
-60.84
-57.88
-55.70
-53.89
-51.52
-47.58
-41.52
-33.55
-24.60
-16.05
-9.23
-4.98
-3.24
-3.10
-3.02
-1.50
2.13
7.30
12.25
14.69
12.83
6.28
-3.60
-14.27
-22.89
-27.52
-27.58
-23.89
-18.04
-11.63
-5.83
-1.30
1.52
2.21
0.35
-3.99
-9.93
-15.52
-18.25
-16.02
-8.13
4.21
18.30
31.09
40.54
46.20
48.97
50.08
50.23
49.24
46.53
41.87
35.82
29.58
24.39
20.96
19.40
19.42
20.97
24.33
30.04
38.43
49.22
61.43
73.58
84.04
91.44
95.04
94.85
91.58
86.36
80.22
73.74
66.97
59.60
51.48
42.87
34.33
26.39
19.14
12.26
5.27
-1.95
-9.11
-15.66
-21.34
-26.63
-32.67
-40.80
-51.81
-65.32
-79.73
-92.72
-101.88
-105.43
-102.67
-94.10
-81.37
-66.99
-53.88
-44.74
-41.46
-44.63
-53.34
-65.38
-77.66
-86.99
-90.72
-87.31
-76.53
-59.41
-37.97
-14.82
7.18
25.34
37.63
43.33
43.34
40.17
37.20
37.50
42.53
51.67
62.57
72.39
79.15
82.54
83.72
84.47
86.31
89.96
95.50
102.56
110.58
118.66
125.55
129.69
129.69
124.82
115.34
102.43
87.78
73.16
59.82
48.36
38.47
29.08
18.47
4.93
-12.71
-34.60
-59.83
-86.71
-113.36
-137.96
-158.61
-173.15
-179.22
-175.02
-160.54
-138.34
-113.19
-90.59
-74.60
-66.30
-63.73
-63.40
-62.20
-58.86
-53.96
-48.72
-43.72
-38.19
-30.59
-19.80
-6.15
8.50
21.59
31.05
36.18
37.86
37.98
38.69
41.69
47.75
56.59
66.92
76.66
83.35
84.77
79.59
67.95
51.46
32.82
14.94
0.03
-10.96
-18.29
-22.98
-26.08
-28.24
-29.62
-30.16
-29.76
-28.56
-26.77
-24.60
-22.17
-19.63
-17.35
-15.97
-16.22
-18.43
-22.22
-26.31
-29.00
-28.71
-24.84
-18.09
-10.32
-3.98
-1.20
-2.91
-8.45
-15.72
-22.01
-25.04
-23.92
-19.38
-13.30
-7.68
-3.63
-0.90
1.83
6.17
13.12
22.77
34.38
46.97
59.72
72.11
83.70
93.83
101.60
106.12
106.97
104.51
99.75
93.96
88.01
81.92
74.99
66.12
54.56
40.39
24.63
8.91
-5.12
-16.47
-25.10
-31.86
-38.09
-45.08
-53.66
-63.94
-75.34
-86.64
-96.40
-103.15
-105.77
-103.75
-97.33
-87.52
-75.78
-63.64
-52.32
-42.44
-33.96
-26.48
-19.59
-13.17
-7.58
-3.55
-1.67
-1.99
-3.67
-5.08
-4.26
0.30
9.05
21.10
34.43
46.59
55.39
59.44
58.28
52.31
42.47
30.02
16.30
2.64
-9.78
-20.05
-27.59
-32.20
-34.16
-34.13
-33.01
-31.77
-31.18
-31.61
-32.99
-34.88
-36.65
-37.70
-37.48
-35.62
-31.94
-26.55
-20.00
-13.31
-7.75
-4.38
-3.56
-4.64
-5.99
-5.67
-2.05
5.50
16.43
29.18
41.79
52.35
59.52
62.70
61.97
58.00
51.76
44.41
37.12
30.91
26.51
24.21
23.76
24.47
25.39
25.65
24.74
22.77
20.36
18.42
17.72
18.48
20.23
21.91
22.33
20.50
16.09
9.36
0.97
-8.33
-17.87
-27.14
-35.58
-42.52
-47.25
-49.26
-48.51
-45.61
-41.63
-37.78
-35.00
-33.73
-33.91
-35.12
-36.75
-38.16
-38.71
-37.78
-34.82
-29.50
-21.86
-12.35
-1.78
8.94
19.07
28.12
35.95
42.62
48.17
52.60
55.83
57.86
58.83
59.02
58.75
58.27
57.68
56.94
55.88
54.34
52.15
49.23
45.52
41.00
35.74
29.96
24.00
18.36
13.38
9.09
5.06
0.46
-5.64
-13.74
-23.63
-34.25
-43.97
-51.07
-54.26
-52.98
-47.60
-39.31
-29.87
-21.32
-15.38
-13.07
-14.30
-17.96
-22.26
-25.40
-26.24
-24.56
-20.99
-16.51
-11.96
-7.76
-3.90
-0.20
3.43
6.96
10.17
12.88
14.98
16.47
17.42
17.94
18.24
18.65
19.79
22.45
27.33
34.65
43.74
53.10
60.69
64.69
64.06
58.94
50.45
40.21
29.75
20.14
11.96
5.49
0.87
-1.82
-2.75
-2.41
-1.59
-1.19
-2.01
-4.47
-8.60
-13.99
-19.91
-25.47
-29.74
-32.00
-31.91
-29.54
-25.36
-20.03
-14.21
-8.36
-2.75
2.47
7.15
11.08
14.11
16.27
17.76
18.94
20.18
21.61
23.07
24.06
23.93
22.10
18.39
13.18
7.47
2.68
0.15
0.62
3.78
8.15
11.55
11.86
7.82
-0.59
-12.20
-25.16
-37.51
-47.49
-53.61
-54.65
-49.72
-38.66
-22.40
-3.05
16.47
33.20
44.86
50.29
49.46
43.13
32.63
19.73
6.64
-4.25
-10.92
-12.43
-9.35
-3.67
1.96
5.27
5.15
1.95
-3.06
-8.28
-12.54
-15.17
-15.95
-14.76
-11.43
-5.96
1.26
9.17
16.23
20.82
21.83
19.07
13.37
6.18
-0.97
-7.08
-11.89
-15.79
-19.42
-23.16
-26.89
-29.98
-31.60
-31.04
-27.95
-22.28
-14.28
-4.48
6.25
16.62
25.14
30.56
32.39
31.34
29.05
27.45
27.80
30.14
33.26
35.44
35.44
33.26
30.40
29.19
31.87
39.43
51.15
64.73
77.24
86.15
90.17
89.42
85.07
78.77
72.31
67.46
65.88
68.80
76.37
87.05
97.61
104.03
102.95
92.98
75.16
52.30
27.79
4.28
-16.88
-35.45
-51.74
-65.94
-77.93
-87.44
-94.29
-98.45
-99.94
-98.73
-94.80
-88.38
-80.34
-72.17
-65.69
-62.29
-62.33
-64.80
-67.86
-69.60
-68.92
-66.02
-62.02
-58.35
-55.97
-55.10
-55.43
-56.62
-58.72
-62.18
-67.50
-74.74
-83.21
-91.53
-98.08
-101.62
-101.69
-98.67
-93.52
-87.23
-80.47
-73.47
-66.18
-58.64
-51.19
-44.48
-39.26
-36.08
-35.08
-35.86
-37.72
-39.84
-41.52
-42.37
-42.32
-41.51
-40.20
-38.60
-36.78
-34.69
-32.23
-29.39
-26.48
-24.13
-23.27
-24.75
-28.90
-35.01
-41.35
-45.57
-45.53
-40.25
-30.17
-17.00
-3.01
9.79
20.21
27.89
33.13
36.52
38.81
40.77
43.08
46.14
49.78
53.18
55.02
54.05
49.63
42.15
32.92
23.79
16.50
12.25
11.46
13.94
19.26
26.92
36.37
46.68
56.36
63.44
66.10
63.29
55.37
43.96
31.34
19.54
9.77
2.20
-3.55
-7.92
-11.15
-13.24
-14.31
-14.85
-15.75
-17.94
-22.06
-28.00
-34.82
-41.04
-45.00
-45.45
-41.86
-34.60
-24.70
-13.62
-2.62
7.51
16.55
24.71
32.29
39.41
45.82
51.04
54.56
56.12
55.84
54.14
51.54
48.48
45.20
41.84
38.54
35.58
33.32
31.99
31.53
31.50
31.17
29.79
26.81
22.09
15.84
8.50
0.54
-7.53
-15.29
-22.31
-28.22
-32.78
-35.89
-37.59
-37.94
-36.89
-34.21
-29.60
-22.96
-14.56
-5.18
4.05
12.05
18.25
22.88
26.84
31.11
36.09
41.14
44.75
45.38
42.41
36.79
30.70
26.46
25.16
25.99
26.54
24.14
17.41
7.05
-4.47
-14.14
-19.79
-20.69
-17.35
-10.77
-1.71
9.30
21.54
33.55
43.17
48.11
47.04
40.37
30.34
20.33
13.62
12.29
16.52
24.77
34.43
42.76
47.72
48.25
44.33
36.56
25.79
12.95
-0.98
-14.95
-27.90
-38.85
-47.25
-53.03
-56.51
-58.10
-57.94
-55.74
-50.77
-42.34
-30.24
-15.18
1.23
16.79
29.35
37.36
40.32
38.77
34.03
27.83
21.86
17.30
14.55
13.07
11.57
8.51
2.91
-5.14
-14.30
-22.44
-27.56
-28.46
-25.05
-18.07
-8.51
2.67
14.66
26.65
37.64
46.60
52.66
55.39
54.62
50.22
41.97
29.67
13.70
-4.61
-22.84
-38.19
-48.42
-52.85
-52.55
-49.75
-46.71
-44.67
-43.49
-41.99
-38.73
-32.71
-23.67
-11.94
1.85
16.86
32.10
46.26
57.88
65.51
68.22
65.86
59.19
49.75
39.45
30.04
22.56
17.09
12.79
8.41
2.95
-3.83
-11.23
-17.97
-22.73
-24.58
-23.24
-19.12
-13.21
-6.88
-1.69
0.97
0.30
-3.62
-9.92
-17.31
-24.68
-31.53
-37.93
-44.18
-50.33
-55.91
-59.99
-61.51
-59.80
-54.79
-47.09
-37.74
-27.91
-18.57
-10.36
-3.66
1.40
4.79
6.55
6.90
6.21
4.96
3.65
2.60
1.80
1.02
-0.05
-1.47
-2.89
-3.51
-2.41
1.18
7.52
16.17
26.16
36.08
44.41
49.71
50.99
47.96
41.27
32.41
23.38
16.13
11.90
10.92
12.35
14.73
16.50
16.47
14.01
8.99
1.56
-7.93
-19.02
-30.95
-42.70
-53.12
-61.14
-66.21
-68.40
-68.40
-67.24
-65.86
-64.77
-63.97
-63.09
-61.63
-59.24
-55.84
-51.61
-46.89
-41.97
-36.99
-31.89
-26.61
-21.10
-15.53
-10.19
-5.41
-1.42
1.76
4.26
6.29
7.94
9.21
10.05
10.41
10.33
9.96
9.47
9.02
8.66
8.36
8.00
7.46
6.58
5.30
3.64
1.69
-0.43
-2.59
-4.78
-7.05
-9.50
-12.34
-15.63
-19.31
-23.08
-26.37
-28.47
-28.68
-26.54
-21.92
-15.19
-7.04
1.67
10.11
17.66
23.98
28.91
32.44
34.60
35.48
35.27
34.28
32.95
31.71
30.92
30.69
30.97
31.53
32.13
32.64
32.92
32.87
32.31
31.12
29.17
26.55
23.50
20.33
17.31
14.52
11.86
9.11
6.15
2.98
-0.21
-3.11
-5.51
-7.34
-8.74
-9.98
-11.38
-13.19
-15.54
-18.35
-21.25
-23.70
-24.99
-24.48
-21.70
-16.58
-9.40
-0.81
8.40
17.37
25.39
31.91
36.59
39.30
40.13
39.36
37.43
34.87
32.19
29.88
28.24
27.45
27.43
27.94
28.59
29.05
29.08
28.68
28.03
27.40
27.06
27.02
27.14
27.07
26.45
25.01
22.71
19.68
16.14
12.28
8.26
4.17
0.25
-3.09
-5.28
-5.78
-4.27
-0.74
4.53
11.06
18.38
25.98
33.30
39.66
44.30
46.52
46.05
43.20
38.84
34.17
30.19
27.43
25.67
24.19
21.99
18.28
12.65
5.36
-2.83
-10.75
-17.02
-20.42
-20.16
-16.15
-9.14
-0.46
8.30
15.79
21.23
24.54
26.22
27.04
27.73
28.78
30.39
32.47
34.68
36.42
36.97
35.59
31.77
25.53
17.54
8.94
0.93
-5.78
-11.46
-17.22
-24.48
-34.10
-45.64
-57.38
-66.91
-72.14
-72.19
-67.67
-60.17
-51.64
-43.58
-36.83
-31.76
-28.69
-27.99
-29.90
-34.06
-39.18
-43.26
-44.32
-41.22
-34.46
-26.13
-19.24
-16.50
-19.25
-26.88
-37.14
-46.96
-53.44
-54.64
-49.83
-39.39
-24.66
-7.62
9.38
23.95
34.04
38.52
37.38
31.86
24.06
16.30
10.52
7.78
8.13
10.77
14.43
17.63
19.14
18.16
14.48
8.61
1.60
-5.08
-10.01
-12.17
-11.40
-8.32
-4.18
-0.26
2.71
4.72
6.28
7.94
9.91
11.92
13.67
15.29
17.50
21.47
28.07
37.35
48.34
59.46
69.25
76.86
82.05
84.67
84.25
79.95
71.05
57.61
40.90
23.10
6.57
-7.01
-17.10
-24.26
-29.71
-34.84
-40.89
-48.83
-59.36
-72.79
-88.93
-106.98
-125.56
-142.88
-157.10
-166.68
-170.67
-168.83
-161.45
-149.24
-133.12
-114.25
-93.96
-73.77
-55.25
-39.69
-27.89
-19.97
-15.45
-13.65
-13.95
-15.93
-19.20
-22.99
-26.09
-26.98
-24.42
-17.99
-8.45
2.50
12.79
20.73
25.59
27.67
27.90
27.38
26.77
26.12
25.04
22.97
19.64
15.26
10.53
6.37
3.80
3.77
6.98
13.79
23.82
35.69
47.04
54.90
56.55
50.63
37.70
20.05
0.85
-17.09
-32.06
-43.51
-51.40
-55.58
-55.47
-50.46
-40.63
-27.22
-12.42
1.50
13.20
22.89
31.96
42.05
53.97
67.25
80.51
92.32
101.91
109.35
115.02
118.89
120.16
117.65
110.60
99.55
86.34
73.37
62.44
53.91
46.82
39.63
31.38
22.27
13.49
6.44
1.87
-0.56
-1.94
-3.47
-5.86
-9.08
-12.70
-16.31
-19.77
-23.10
-26.21
-28.63
-29.72
-29.02
-26.61
-23.26
-20.11
-18.22
-18.15
-19.94
-23.10
-26.96
-30.81
-33.98
-35.92
-36.46
-35.88
-34.89
-34.43
-35.16
-37.16
-39.84
-42.17
-43.16
-42.16
-38.98
-33.73
-26.71
-18.26
-8.87
0.78
9.85
17.45
22.91
25.88
26.47
25.23
22.97
20.64
19.11
19.04
20.68
23.82
27.75
31.42
33.68
33.73
31.44
27.44
22.95
19.34
17.54
17.66
18.92
19.98
19.49
16.70
11.77
5.72
0.13
-3.49
-4.04
-1.28
4.23
11.37
18.97
26.12
32.43
37.91
42.72
46.87
50.07
51.90
52.00
50.43
47.62
44.37
41.53
39.81
39.63
41.02
43.62
46.63
48.83
48.74
44.91
36.43
23.18
6.02
-13.45
-33.29
-51.70
-67.40
-79.74
-88.80
-95.18
-99.92
-104.12
-108.64
-113.75
-118.83
-122.43
-122.63
-117.72
-106.96
-91.11
-72.30
-53.55
-37.72
-26.57
-20.15
-16.97
-14.71
-11.35
-5.97
1.06
8.52
15.26
20.85
25.66
30.36
35.13
39.40
41.91
41.61
38.32
33.12
27.86
24.38
23.65
25.41
28.51
31.55
33.47
33.88
32.92
30.93
28.23
25.05
21.59
18.27
15.55
13.92
13.66
14.72
16.68
18.79
20.04
19.38
16.07
9.99
1.93
-6.65
-14.04
-19.06
-21.56
-22.46
-23.36
-25.65
-29.97
-35.95
-42.57
-48.68
-53.36
-56.00
-56.16
-53.39
-47.51
-38.94
-29.09
-20.13
-14.39
-13.33
-16.90
-23.46
-30.56
-35.96
-38.35
-37.41
-33.30
-26.12
-15.81
-2.60
12.41
27.01
38.53
44.91
45.71
42.25
36.97
32.09
28.74
26.73
25.15
23.30
21.09
18.99
17.40
16.24
14.84
12.56
9.22
5.51
2.60
1.63
3.03
6.33
10.37
13.77
15.37
14.38
10.42
3.46
-6.25
-18.07
-30.91
-43.38
-54.00
-61.69
-66.02
-67.38
-66.60
-64.59
-62.02
-59.16
-56.19
-53.47
-51.67
-51.56
-53.45
-56.69
-59.50
-59.38
-54.00
-42.27
-25.04
-4.98
14.16
28.82
36.74
37.68
33.32
26.55
20.55
17.77
19.45
25.45
34.58
45.15
55.55
64.58
71.57
76.12
77.91
76.57
71.90
64.18
54.52
44.60
36.13
30.00
25.77
21.85
16.31
7.97
-2.96
-14.84
-25.40
-32.65
-35.64
-34.59
-30.52
-24.75
-18.50
-12.80
-8.47
-5.93
-5.07
-5.08
-4.70
-2.88
0.61
4.76
7.80
7.96
4.43
-2.17
-10.07
-17.07
-21.32
-21.68
-17.79
-9.87
1.27
14.21
26.88
36.86
42.05
41.44
35.59
26.43
16.58
8.34
3.06
0.91
1.11
2.50
3.91
4.45
3.55
0.93
-3.40
-9.14
-15.78
-22.71
-29.36
-35.42
-40.86
-45.86
-50.54
-54.82
-58.25
-60.10
-59.62
-56.33
-50.27
-41.98
-32.41
-22.57
-13.28
-5.15
1.51
6.64
10.34
12.85
14.51
15.76
17.03
18.67
20.79
23.17
25.36
26.72
26.78
25.48
23.46
21.95
22.40
25.73
31.70
38.75
44.38
46.13
42.64
34.32
23.13
11.83
2.86
-2.39
-3.69
-1.49
3.56
10.89
19.96
29.75
38.80
45.38
48.04
46.19
40.12
30.87
19.78
8.18
-2.63
-11.43
-17.20
-19.61
-19.29
-17.95
-17.77
-20.48
-26.54
-34.85
-43.25
-49.33
-51.35
-48.50
-40.90
-29.27
-14.79
0.96
16.04
28.51
36.86
40.44
39.63
35.51
29.42
22.42
15.15
7.93
1.00
-5.42
-11.05
-15.76
-19.61
-22.85
-25.67
-28.15
-30.15
-31.44
-31.91
-31.64
-30.94
-30.28
-30.04
-30.37
-31.10
-31.83
-32.02
-31.24
-29.11
-25.34
-19.75
-12.37
-3.43
6.50
16.71
26.53
35.55
43.50
50.27
55.62
59.19
60.70
60.09
57.74
54.39
50.77
47.23
43.59
39.19
33.25
25.27
15.40
4.45
-6.33
-15.64
-22.59
-26.84
-28.71
-28.97
-28.56
-28.36
-28.96
-30.66
-33.41
-36.87
-40.46
-43.34
-44.67
-43.83
-40.81
-36.42
-32.19
-30.02
-31.52
-37.38
-46.99
-58.49
-69.14
-76.08
-76.96
-70.45
-56.50
-36.31
-12.03
13.67
38.04
58.81
74.56
84.92
90.53
92.75
93.11
92.68
91.78
89.98
86.53
80.99
73.71
65.82
58.83
53.78
50.77
48.80
46.28
41.87
35.12
26.58
17.44
8.90
1.69
-4.08
-8.65
-12.34
-15.32
-17.62
-19.27
-20.44
-21.47
-22.81
-24.79
-27.54
-31.10
-35.36
-40.20
-45.39
-50.57
-55.15
-58.41
-59.64
-58.43
-54.75
-48.85
-41.11
-31.82
-21.06
-8.90
4.31
17.77
30.36
40.92
48.56
52.83
53.54
50.74
44.64
35.86
25.64
15.88
8.64
5.46
6.55
10.71
15.71
19.26
19.92
17.62
13.42
8.80
5.01
2.51
1.12
0.26
-0.63
-2.05
-4.45
-8.44
-14.70
-23.67
-35.17
-48.30
-61.56
-73.35
-82.26
-87.29
-87.74
-83.28
-74.00
-60.60
-44.54
-27.75
-12.06
1.49
12.94
23.23
33.47
44.20
55.00
64.52
71.25
74.02
72.62
67.69
60.39
51.82
42.77
33.68
24.81
16.56
9.43
3.88
-0.02
-2.73
-5.17
-8.32
-12.79
-18.62
-25.18
-31.44
-36.09
-37.74
-35.22
-27.99
-16.53
-2.64
10.83
20.78
24.94
22.80
15.81
6.93
-0.58
-4.24
-3.20
1.72
8.59
15.29
20.28
23.05
24.06
24.31
24.80
26.18
28.61
32.02
36.19
40.81
45.42
49.31
51.55
51.27
48.05
42.22
34.80
27.13
20.41
15.35
12.05
10.24
9.52
9.60
10.27
11.32
12.30
12.54
11.41
8.70
4.86
0.98
-1.68
-2.29
-0.97
1.16
2.38
1.13
-3.38
-10.85
-20.14
-29.69
-37.97
-43.75
-46.12
-44.54
-38.98
-30.13
-19.57
-9.47
-2.18
0.50
-2.14
-9.51
-19.86
-30.84
-40.13
-46.06
-47.95
-46.28
-42.51
-38.57
-36.26
-36.75
-40.28
-46.42
-54.34
-63.32
-72.83
-82.45
-91.57
-99.14
-103.85
-104.45
-100.15
-90.96
-77.59
-61.19
-42.90
-23.71
-4.53
13.56
29.12
40.46
46.10
45.34
38.67
27.73
14.87
2.54
-7.29
-13.38
-15.32
-13.46
-8.71
-2.37
4.14
9.55
13.03
14.36
13.81
11.88
9.09
5.80
2.21
-1.59
-5.54
-9.57
-13.54
-17.17
-19.99
-21.38
-20.78
-17.89
-12.85
-6.29
0.89
7.81
13.87
18.77
22.45
24.93
26.27
26.59
26.16
25.34
24.50
23.83
23.17
22.13
20.26
17.34
13.51
9.29
5.25
1.78
-1.08
-3.67
-6.44
-9.68
-13.31
-16.77
-19.25
-19.92
-18.22
-14.11
-8.09
-1.02
6.18
12.82
18.63
23.82
28.90
34.51
41.17
49.03
57.77
66.66
74.65
80.79
84.54
85.95
85.64
84.55
83.41
82.51
81.50
79.77
76.85
72.86
68.60
65.31
64.12
65.40
68.53
71.95
73.71
72.21
66.77
57.79
46.60
34.86
23.99
14.72
7.14
0.79
-4.97
-10.73
-16.99
-24.08
-32.23
-41.34
-50.95
-60.21
-68.09
-73.86
-77.44
-79.45
-81.01
-83.10
-86.03
-89.37
-92.21
-93.75
-93.86
-93.20
-92.93
-94.14
-97.37
-102.28
-107.77
-112.20
-113.75
-110.75
-101.99
-87.00
-66.19
-41.05
-13.90
12.53
35.65
53.64
65.83
72.71
75.64
76.25
76.02
75.78
75.59
74.93
72.94
68.87
62.47
54.08
44.64
35.41
27.50
21.54
17.48
14.65
12.10
9.01
4.97
-0.02
-5.58
-11.23
-16.59
-21.43
-25.68
-29.38
-32.55
-35.26
-37.62
-39.78
-41.87
-43.97
-46.05
-47.97
-49.57
-50.78
-51.65
-52.33
-52.91
-53.25
-52.91
-51.24
-47.60
-41.64
-33.56
-24.06
-14.16
-4.92
2.85
8.75
12.85
15.50
17.16
18.21
18.83
19.09
19.07
18.94
18.96
19.46
20.65
22.58
25.16
28.28
31.93
36.23
41.41
47.54
54.36
61.16
66.97
70.86
72.35
71.62
69.39
66.60
63.87
61.35
58.78
55.70
51.89
47.35
42.14
36.12
28.77
19.37
7.50
-6.48
-21.21
-34.38
-43.35
-45.80
-40.51
-27.66
-8.93
12.79
34.19
52.20
64.83
71.54
73.21
71.72
69.25
67.49
67.03
67.35
67.15
65.09
60.47
53.48
44.92
35.78
26.74
17.96
9.36
0.92
-7.05
-14.03
-19.61
-23.79
-27.01
-29.84
-32.67
-35.37
-37.58
-38.91
-39.31
-39.10
-38.79
-38.83
-39.37
-40.39
-41.85
-43.87
-46.75
-50.76
-55.90
-61.68
-67.19
-71.19
-72.60
-70.71
-65.48
-57.50
-47.81
-37.69
-28.39
-20.96
-16.05
-13.77
-13.56
-14.23
-14.31
-12.62
-8.86
-3.82
0.84
3.32
2.57
-1.29
-6.94
-12.48
-16.03
-16.24
-12.39
-4.44
7.00
20.68
34.75
47.06
55.57
58.97
56.99
50.61
41.70
32.51
25.08
20.55
19.00
19.48
20.46
20.32
17.80
12.22
3.46
-8.14
-21.82
-36.45
-50.63
-62.93
-72.33
-78.53
-81.97
-83.51
-83.82
-83.13
-81.04
-76.85
-69.85
-59.61
-46.18
-30.04
-12.16
6.24
23.86
39.61
52.70
62.66
69.15
71.83
70.53
65.48
57.66
48.63
40.08
33.04
27.42
22.10
15.61
7.04
-3.48
-14.74
-25.03
-32.73
-36.73
-36.62
-32.54
-25.08
-15.19
-4.08
6.93
16.62
24.07
28.70
30.27
28.87
24.93
19.15
12.41
5.55
-0.84
-6.46
-11.22
-15.09
-17.89
-19.35
-19.21
-17.40
-14.23
-10.30
-6.45
-3.61
-2.63
-4.09
-8.11
-14.25
-21.53
-28.72
-34.57
-38.07
-38.47
-35.28
-28.32
-17.92
-5.01
8.99
22.43
34.00
43.09
49.70
54.09
56.33
56.07
52.91
46.92
38.97
30.46
22.69
16.14
10.21
3.76
-4.09
-13.20
-22.36
-29.82
-34.12
-34.72
-32.19
-27.79
-23.06
-19.29
-17.31
-17.39
-19.13
-21.59
-23.49
-23.65
-21.37
-16.67
-10.07
-2.32
6.05
14.70
23.27
31.17
37.54
41.70
43.57
43.93
44.15
45.55
48.68
53.04
57.32
59.98
59.86
56.43
49.85
40.79
30.31
19.76
10.47
3.44
-1.18
-4.27
-7.41
-12.16
-19.36
-28.66
-38.64
-47.41
-53.24
-55.01
-52.50
-46.21
-37.29
-27.29
-17.92
-10.78
-7.06
-7.42
-11.84
-19.67
-29.60
-39.80
-48.17
-52.83
-52.67
-47.82
-39.55
-29.85
-20.48
-12.29
-5.08
2.03
9.82
18.39
27.02
34.57
40.09
43.28
44.60
44.86
44.83
44.82
44.70
44.10
42.74
40.53
37.60
34.06
29.94
25.10
19.42
12.93
5.91
-1.11
-7.59
-13.09
-17.39
-20.54
-22.79
-24.46
-25.91
-27.38
-29.02
-30.90
-33.04
-35.52
-38.47
-42.00
-46.07
-50.29
-53.94
-56.07
-55.81
-52.63
-46.62
-38.49
-29.36
-20.42
-12.62
-6.47
-2.04
0.85
2.44
2.90
2.28
0.65
-1.82
-4.85
-8.04
-11.01
-13.44
-15.07
-15.78
-15.51
-14.37
-12.68
-11.06
-10.36
-11.46
-14.97
-20.87
-28.35
-35.82
-41.32
-43.13
-40.41
-33.46
-23.82
-13.57
-4.71
1.46
4.63
5.28
4.35
2.90
1.85
1.83
3.08
5.36
8.15
10.79
12.87
14.42
15.93
18.04
21.21
25.53
30.69
36.15
41.31
45.60
48.47
49.47
48.33
45.25
40.89
36.18
31.98
28.71
26.25
24.18
22.09
19.95
18.10
17.12
17.49
19.39
22.64
26.77
31.21
35.32
38.59
40.66
41.45
41.15
40.06
38.53
36.73
34.72
32.48
30.19
28.17
26.84
26.45
26.77
27.25
27.07
25.57
22.32
17.11
9.76
0.14
-11.63
-24.80
-37.89
-48.78
-55.47
-56.78
-52.87
-45.23
-36.07
-27.47
-20.72
-16.13
-13.34
-11.81
-11.17
-11.29
-12.07
-13.22
-14.21
-14.43
-13.56
-11.68
-9.25
-6.86
-4.95
-3.67
-3.01
-2.96
-3.63
-5.15
-7.50
-10.32
-13.02
-14.95
-15.77
-15.53
-14.68
-13.78
-13.26
-13.31
-13.89
-14.86
-16.12
-17.63
-19.38
-21.33
-23.37
-25.39
-27.33
-29.21
-31.01
-32.49
-33.17
-32.38
-29.57
-24.59
-17.77
-9.87
-1.74
5.96
12.87
18.89
23.85
27.49
29.42
29.44
27.76
25.06
22.31
20.39
19.80
20.48
22.01
23.76
25.06
25.27
23.88
20.57
15.42
9.07
2.65
-2.61
-5.94
-7.44
-8.11
-9.50
-12.93
-18.93
-27.05
-36.14
-44.91
-52.39
-58.01
-61.47
-62.50
-60.75
-56.06
-48.64
-39.27
-29.22
-19.75
-11.74
-5.38
-0.27
4.18
8.45
12.80
17.30
22.12
27.54
33.80
40.83
48.06
54.41
58.76
60.41
59.49
56.93
53.97
51.59
50.07
48.99
47.64
45.58
42.88
40.06
37.68
35.85
34.12
31.74
28.17
23.44
18.16
12.93
7.89
2.38
-4.82
-14.77
-27.80
-43.14
-59.21
-74.09
-86.14
-94.19
-97.56
-96.08
-90.09
-80.65
-69.58
-59.11
-51.20
-46.82
-45.45
-45.31
-44.17
-40.21
-32.74
-22.28
-10.02
2.81
15.45
27.66
39.31
50.12
59.51
66.83
71.74
74.44
75.68
76.44
77.44
78.84
80.21
80.72
79.56
76.27
70.99
64.40
57.56
51.52
46.85
43.49
40.72
37.54
33.24
27.77
21.89
16.73
13.25
11.71
11.49
11.40
10.26
7.51
3.39
-1.18
-5.15
-7.87
-9.43
-10.56
-12.26
-15.30
-19.77
-25.00
-29.72
-32.51
-32.23
-28.39
-21.28
-11.94
-1.87
7.31
14.27
18.18
18.81
16.40
11.47
4.57
-3.66
-12.54
-21.29
-29.17
-35.65
-40.66
-44.64
-48.44
-52.86
-58.25
-64.17
-69.31
-71.82
-70.00
-62.97
-51.19
-36.45
-21.36
-8.53
0.27
4.53
4.99
3.11
0.54
-1.34
-1.72
-0.37
2.41
6.00
9.49
11.92
12.35
10.19
5.27
-1.91
-10.22
-18.07
-23.75
-25.92
-24.03
-18.53
-10.64
-2.03
5.81
12.06
16.66
20.13
23.23
26.38
29.30
31.03
30.21
25.67
17.01
4.81
-9.47
-23.90
-36.51
-45.54
-49.54
-47.47
-39.12
-25.45
-8.73
7.91
21.44
29.99
33.45
33.29
31.59
29.81
28.18
25.86
21.80
15.61
8.00
0.36
-6.03
-10.71
-14.16
-17.31
-20.93
-25.13
-29.48
-33.34
-36.36
-38.52
-39.89
-40.30
-39.23
-35.96
-30.04
-21.65
-11.67
-1.43
7.76
15.02
20.03
23.00
24.36
24.56
23.98
22.88
21.54
20.24
19.25
18.73
18.66
18.87
19.13
19.24
19.12
18.82
18.38
17.83
17.16
16.38
15.50
14.56
13.57
12.44
11.01
9.19
7.01
4.68
2.53
0.77
-0.58
-1.63
-2.54
-3.38
-4.06
-4.47
-4.75
-5.44
-7.47
-11.89
-19.33
-29.68
-41.98
-54.61
-65.78
-73.99
-78.35
-78.69
-75.42
-69.32
-61.37
-52.59
-43.98
-36.43
-30.55
-26.54
-23.96
-21.84
-18.82
-13.63
-5.60
5.07
17.22
29.11
38.96
45.41
47.92
46.84
43.13
38.09
32.93
28.57
25.57
24.17
24.47
26.51
30.25
35.44
41.47
47.47
52.39
55.40
56.12
54.76
51.93
48.38
44.56
40.57
36.12
30.72
23.98
15.76
6.24
-4.18
-14.97
-25.55
-35.32
-43.72
-50.16
-54.16
-55.48
-54.23
-50.97
-46.52
-41.81
-37.59
-34.18
-31.61
-29.65
-28.07
-26.73
-25.59
-24.60
-23.67
-22.65
-21.39
-19.82
-17.98
-15.99
-13.92
-11.75
-9.34
-6.64
-3.68
-0.73
1.82
3.58
4.33
4.17
3.55
3.23
4.13
7.06
12.37
19.80
28.45
36.96
43.99
48.65
50.71
50.59
49.02
46.64
43.76
40.28
35.90
30.35
23.71
16.43
9.32
3.32
-0.79
-2.64
-2.36
-0.53
2.11
4.95
7.66
10.24
12.76
15.30
17.75
20.02
22.10
24.20
26.61
29.58
33.22
37.36
41.75
46.00
49.78
52.77
54.66
55.20
54.23
51.78
48.00
43.12
37.33
30.68
23.11
14.53
5.00
-5.22
-15.71
-26.03
-35.82
-44.90
-53.21
-60.78
-67.58
-73.56
-78.68
-82.92
-86.32
-88.81
-90.16
-89.96
-87.72
-83.13
-76.23
-67.56
-57.94
-48.29
-39.34
-31.41
-24.51
-18.39
-12.83
-7.76
-3.33
0.22
2.68
4.04
4.48
4.39
4.27
4.62
5.85
8.10
11.22
14.73
17.92
20.01
20.54
19.48
17.28
14.66
12.23
10.20
8.38
6.34
3.69
0.32
-3.61
-7.77
-11.85
-15.64
-19.01
-21.81
-23.91
-25.29
-26.14
-26.89
-28.11
-30.18
-33.05
-36.24
-38.91
-40.19
-39.44
-36.42
-31.31
-24.61
-16.97
-9.04
-1.30
5.99
12.73
19.00
24.87
30.30
35.12
39.11
42.08
44.02
45.10
45.64
45.94
46.18
46.37
46.35
45.95
45.01
43.49
41.47
39.10
36.52
33.77
30.87
27.76
24.45
21.05
17.74
14.71
12.11
9.98
8.25
6.91
5.94
5.34
5.05
4.85
4.39
3.29
1.30
-1.63
-5.26
-9.26
-13.36
-17.41
-21.30
-24.80
-27.43
-28.46
-27.23
-23.29
-16.57
-7.28
4.28
17.76
32.71
48.24
63.11
75.80
85.13
90.75
93.28
93.93
93.64
92.56
89.83
84.22
74.95
62.47
48.45
35.10
24.04
15.48
8.21
0.23
-10.02
-22.83
-37.05
-50.58
-61.30
-67.89
-70.09
-68.57
-64.56
-59.38
-54.26
-50.13
-47.46
-46.33
-46.29
-46.67
-46.79
-46.22
-44.82
-42.64
-39.78
-36.25
-32.06
-27.18
-21.62
-15.39
-8.47
-0.85
7.33
15.68
23.51
29.89
33.89
34.91
32.93
28.56
22.94
17.43
13.30
11.55
12.76
17.10
24.26
33.29
42.74
50.76
55.55
55.84
51.26
42.40
30.69
18.00
6.16
-3.46
-10.29
-14.62
-17.49
-20.18
-23.70
-28.23
-33.04
-36.84
-38.28
-36.82
-32.95
-28.07
-24.00
-22.14
-23.03
-26.25
-30.55
-34.43
-36.56
-36.17
-33.06
-27.59
-20.59
-13.09
-6.27
-1.05
2.19
3.86
5.22
8.05
14.01
24.12
38.26
55.09
72.47
88.04
99.88
106.89
108.89
106.31
99.98
90.86
80.00
68.60
57.79
48.34
40.26
32.81
24.77
15.12
3.61
-9.15
-21.97
-33.58
-43.10
-50.01
-54.05
-55.04
-52.92
-48.07
-41.57
-35.06
-30.25
-28.16
-28.65
-30.48
-31.94
-31.58
-28.87
-24.17
-18.36
-12.41
-6.94
-2.39
0.83
2.13
0.88
-3.30
-10.12
-18.62
-27.50
-35.56
-42.11
-47.08
-50.76
-53.52
-55.60
-57.00
-57.68
-57.59
-56.71
-55.06
-52.51
-48.79
-43.54
-36.39
-27.21
-16.27
-4.30
7.60
18.19
26.40
31.69
34.10
34.20
32.82
30.72
28.37
25.89
23.16
19.97
16.12
11.50
6.18
0.41
-5.38
-10.54
-14.37
-16.18
-15.58
-12.51
-7.27
-0.43
7.33
15.28
22.80
29.32
34.42
37.81
39.43
39.44
38.28
36.56
34.90
33.78
33.36
33.48
33.69
33.54
32.76
31.43
29.85
28.40
27.35
26.65
26.05
25.14
23.56
21.20
18.16
14.76
11.47
8.76
6.93
5.97
5.49
4.68
2.51
-1.94
-9.22
-19.27
-31.36
-44.40
-57.20
-68.88
-78.95
-87.35
-94.18
-99.56
-103.44
-105.73
-106.32
-105.15
-102.14
-96.97
-89.04
-77.61
-62.27
-43.51
-22.92
-2.96
13.84
25.82
32.71
35.70
36.67
37.34
38.68
40.80
43.39
46.18
49.08
51.94
54.24
54.94
52.72
46.69
36.84
24.26
10.89
-1.16
-10.20
-15.33
-16.54
-14.54
-10.54
-6.01
-2.30
-0.39
-0.62
-2.66
-5.68
-8.82
-11.54
-13.76
-15.81
-18.02
-20.42
-22.57
-23.69
-22.91
-19.78
-14.43
-7.69
-0.87
4.64
7.82
8.29
6.40
3.01
-0.93
-4.84
-8.65
-12.69
-17.28
-22.35
-27.28
-31.17
-33.23
-33.11
-31.08
-27.80
-23.93
-19.88
-15.71
-11.28
-6.51
-1.55
3.27
7.61
11.35
14.68
18.00
21.71
25.99
30.64
35.24
39.27
42.27
43.99
44.28
43.01
40.09
35.47
29.31
21.99
14.20
6.72
0.37
-4.21
-6.68
-7.00
-5.41
-2.29
2.02
7.35
13.64
20.80
28.44
35.77
41.73
45.31
46.10
44.47
41.51
38.63
36.93
36.80
37.76
38.80
38.92
37.59
34.99
31.81
28.91
26.90
25.98
25.86
26.05
25.87
24.64
21.66
16.35
8.41
-2.00
-14.27
-27.45
-40.54
-52.74
-63.50
-72.53
-79.60
-84.56
-87.36
-88.28
-88.02
-87.62
-88.18
-90.38
-94.15
-98.47
-101.55
-101.37
-96.32
-85.73
-70.19
-51.40
-31.56
-12.75
3.74
17.53
28.93
38.48
46.54
53.08
57.85
60.68
61.69
61.26
59.89
57.85
55.05
51.18
45.94
39.41
32.13
25.03
19.21
15.61
14.80
16.82
21.08
26.47
31.54
34.85
35.38
32.87
27.96
21.95
16.30
12.07
9.54
8.25
7.33
6.01
3.88
1.04
-2.17
-5.49
-8.83
-12.24
-15.79
-19.34
-22.66
-25.61
-28.26
-30.94
-34.02
-37.56
-41.14
-43.89
-44.91
-43.60
-40.03
-34.87
-29.15
-23.86
-19.72
-17.01
-15.74
-15.73
-16.72
-18.41
-20.45
-22.50
-24.18
-25.19
-25.36
-24.68
-23.28
-21.44
-19.42
-17.48
-15.77
-14.37
-13.35
-12.77
-12.70
-13.15
-14.10
-15.41
-16.95
-18.60
-20.31
-22.08
-23.86
-25.58
-27.08
-28.27
-29.17
-29.96
-30.93
-32.40
-34.58
-37.58
-41.29
-45.31
-48.99
-51.47
-51.84
-49.42
-43.98
-35.83
-25.79
-14.91
-4.22
5.59
14.17
21.46
27.49
32.32
35.91
38.21
39.28
39.33
38.71
37.85
37.03
36.35
35.76
35.18
34.57
34.00
33.47
32.90
32.12
30.89
29.04
26.60
23.82
21.07
18.68
16.84
15.46
14.33
13.11
11.50
9.32
6.56
3.40
0.24
-2.56
-4.72
-6.30
-7.77
-9.87
-13.35
-18.58
-25.15
-31.71
-36.28
-36.75
-31.67
-20.85
-5.41
12.54
30.58
46.69
59.67
69.21
75.74
80.14
83.46
86.60
90.08
93.87
97.47
100.07
100.91
99.52
95.86
90.19
82.95
74.56
65.38
55.76
45.99
36.37
27.07
18.20
9.90
2.37
-4.06
-9.10
-12.68
-15.07
-16.88
-18.81
-21.51
-25.27
-29.99
-35.18
-40.18
-44.41
-47.54
-49.65
-51.13
-52.50
-54.06
-55.64
-56.55
-55.84
-52.67
-46.72
-38.40
-28.63
-18.63
-9.30
-1.16
5.79
11.80
17.14
21.95
26.15
29.50
31.67
32.38
31.43
28.87
25.16
21.10
17.70
15.92
16.30
18.77
22.63
26.73
29.80
30.81
29.16
24.81
18.17
10.02
1.32
-6.86
-13.59
-18.12
-20.00
-19.20
-16.13
-11.62
-6.80
-2.82
-0.60
-0.59
-2.70
-6.37
-10.77
-15.01
-18.26
-19.89
-19.41
-16.67
-11.75
-5.09
2.61
10.50
17.78
23.83
28.37
31.41
33.14
33.76
33.34
31.89
29.43
26.17
22.57
19.22
16.66
15.14
14.53
14.46
14.48
14.39
14.20
14.04
14.00
13.93
13.57
12.61
10.98
8.77
6.23
3.61
1.01
-1.53
-4.05
-6.55
-8.97
-11.28
-13.56
-16.00
-18.88
-22.44
-26.72
-31.54
-36.46
-40.81
-43.81
-44.69
-42.95
-38.48
-31.66
-23.36
-14.67
-6.62
0.07
5.16
8.82
11.43
13.43
15.09
16.43
17.37
17.72
17.46
16.78
16.07
15.79
16.26
17.46
18.96
20.11
20.23
18.93
16.28
12.75
9.00
5.66
3.09
1.26
-0.14
-1.55
-3.41
-5.92
-8.99
-12.30
-15.49
-18.29
-20.74
-23.12
-25.83
-29.24
-33.42
-38.14
-42.85
-46.81
-49.19
-49.34
-46.86
-41.80
-34.60
-26.02
-16.96
-8.16
-0.12
6.96
12.95
17.78
21.32
23.46
24.26
24.08
23.51
23.22
23.72
25.17
27.33
29.70
31.72
32.98
33.42
33.28
33.01
32.97
33.28
33.74
33.92
33.31
31.52
28.50
24.44
19.68
14.62
9.53
4.64
0.07
-4.13
-8.04
-11.88
-15.96
-20.52
-25.59
-30.95
-36.08
-40.39
-43.36
-44.66
-44.22
-42.25
-39.20
-35.61
-32.12
-29.22
-27.10
-25.61
-24.23
-22.44
-19.94
-16.85
-13.66
-11.05
-9.49
-9.04
-9.29
-9.57
-9.24
-7.96
-5.82
-3.28
-0.92
0.74
1.38
0.80
-1.09
-4.48
-9.53
-16.28
-24.50
-33.58
-42.59
-50.48
-56.34
-59.70
-60.59
-59.57
-57.60
-55.82
-55.20
-56.35
-59.33
-63.61
-68.25
-72.03
-73.85
-72.90
-68.97
-62.38
-53.98
-44.83
-35.93
-27.89
-20.80
-14.24
-7.60
-0.40
7.33
15.06
22.01
27.60
31.69
34.61
36.88
38.74
40.03
40.19
38.69
35.40
30.63
25.15
19.79
15.27
12.03
10.42
10.64
12.75
16.59
21.65
27.16
32.15
35.82
37.66
37.68
36.36
34.39
32.40
30.65
28.96
26.85
23.83
19.77
15.03
10.31
6.23
2.92
-0.24
-4.48
-11.17
-21.18
-34.32
-49.18
-63.37
-74.21
-79.56
-78.62
-72.10
-61.97
-50.73
-40.55
-32.52
-26.51
-21.45
-15.96
-9.12
-0.78
8.45
17.61
25.79
32.54
37.87
42.11
45.64
48.74
51.60
54.39
57.32
60.49
63.76
66.57
67.92
66.71
62.14
54.15
43.58
32.01
21.27
12.84
7.31
4.29
2.69
1.24
-1.04
-4.55
-9.18
-14.55
-20.23
-25.91
-31.34
-36.29
-40.58
-44.14
-46.98
-49.21
-50.88
-51.89
-51.98
-50.81
-48.10
-43.80
-38.02
-31.03
-23.15
-14.75
-6.29
1.75
8.89
14.79
19.26
22.25
23.89
24.40
24.17
23.76
23.81
24.94
27.48
31.28
35.65
39.56
41.94
42.05
39.75
35.52
30.34
25.29
21.26
18.70
17.57
17.37
17.42
17.08
15.92
13.90
11.27
8.44
5.84
3.69
2.02
0.66
-0.55
-1.76
-2.93
-3.90
-4.28
-3.47
-0.73
4.60
12.81
23.45
35.34
46.82
56.15
62.05
63.89
61.64
55.69
46.68
35.42
22.94
10.31
-1.53
-12.06
-21.32
-29.82
-38.18
-46.77
-55.45
-63.47
-69.81
-73.54
-74.12
-71.52
-66.05
-58.18
-48.43
-37.38
-25.92
-15.35
-7.26
-3.01
-3.14
-6.94
-12.52
-17.44
-19.64
-18.15
-13.38
-6.76
0.02
5.67
9.74
12.53
14.71
16.92
19.54
22.53
25.78
29.25
33.03
37.40
42.54
48.37
54.35
59.68
63.44
65.01
64.22
61.36
57.06
51.91
46.21
39.88
32.58
24.05
14.34
3.98
-6.22
-15.38
-22.90
-28.63
-32.78
-35.78
-38.05
-39.84
-41.23
-42.25
-42.91
-43.35
-43.76
-44.36
-45.28
-46.58
-48.19
-50.02
-51.97
-54.00
-56.05
-57.98
-59.56
-60.52
-60.63
-59.89
-58.54
-57.04
-55.85
-55.24
-55.06
-54.71
-53.31
-49.94
-44.00
-35.47
-24.98
-13.53
-2.22
8.14
17.10
24.60
30.64
35.18
38.05
39.05
38.20
35.86
32.69
29.50
27.12
26.36
28.07
33.02
41.63
53.50
67.14
80.08
89.56
93.42
90.87
82.70
70.78
57.30
44.03
31.93
21.34
12.29
4.78
-1.16
-5.59
-8.82
-11.43
-14.06
-17.25
-21.15
-25.52
-29.76
-33.12
-34.88
-34.53
-31.75
-26.35
-18.24
-7.54
5.28
19.23
32.90
44.76
53.66
59.24
61.91
62.54
61.89
60.30
57.71
54.08
49.72
45.47
42.33
40.92
41.11
42.00
42.41
41.45
38.89
35.06
30.39
25.13
19.16
12.32
4.64
-3.53
-11.75
-19.84
-28.02
-36.63
-45.65
-54.47
-61.91
-66.84
-68.71
-67.91
-65.50
-62.76
-60.52
-58.95
-57.70
-56.16
-53.83
-50.39
-45.72
-39.86
-33.04
-25.74
-18.54
-12.10
-6.80
-2.72
0.36
2.70
4.42
5.41
5.52
4.76
3.41
2.03
1.20
1.32
2.44
4.30
6.50
8.65
10.52
11.91
12.69
12.75
11.97
10.39
8.20
5.71
3.35
1.46
0.19
-0.53
-0.99
-1.61
-2.72
-4.43
-6.57
-8.81
-10.79
-12.37
-13.60
-14.84
-16.55
-19.12
-22.70
-27.02
-31.38
-34.81
-36.29
-35.14
-31.18
-24.85
-16.94
-8.30
0.42
8.92
17.03
24.61
31.38
37.00
41.18
43.86
45.16
45.39
44.87
44.00
43.26
43.17
44.13
46.18
48.91
51.47
52.96
52.84
51.12
48.23
44.72
40.96
36.96
32.69
28.32
24.44
21.89
21.37
22.98
26.09
29.41
31.44
30.96
27.45
21.15
12.83
3.47
-6.06
-15.17
-23.40
-30.32
-35.36
-38.02
-37.99
-35.40
-30.78
-24.90
-18.39
-11.60
-4.73
2.04
8.21
13.01
15.64
15.60
12.86
7.84
1.18
-6.54
-14.91
-23.71
-32.65
-41.25
-48.72
-54.14
-56.60
-55.52
-50.86
-43.12
-33.31
-22.66
-12.53
-4.10
1.71
4.42
4.07
1.23
-3.06
-7.62
-11.36
-13.72
-14.76
-15.05
-15.48
-16.76
-19.18
-22.48
-26.01
-29.07
-31.16
-32.18
-32.32
-31.83
-30.82
-29.29
-27.38
-25.59
-24.84
-26.13
-30.04
-36.38
-44.03
-51.34
-56.59
-58.42
-56.06
-49.37
-38.78
-25.33
-10.58
3.50
15.00
22.50
25.50
24.45
20.54
15.11
9.27
3.62
-1.60
-6.33
-10.47
-13.88
-16.43
-18.14
-19.26
-20.13
-21.10
-22.37
-23.87
-25.35
-26.54
-27.31
-27.68
-27.87
-28.17
-28.81
-29.93
-31.47
-33.18
-34.67
-35.39
-34.82
-32.49
-28.21
-22.15
-14.88
-7.21
-0.01
6.15
11.11
15.12
18.56
21.75
24.69
27.12
28.77
29.53
29.62
29.59
30.07
31.49
34.07
37.76
42.45
48.02
54.33
61.03
67.41
72.38
74.72
73.62
68.90
61.21
51.80
42.14
33.38
26.24
20.89
17.19
14.96
14.05
14.33
15.69
17.89
20.55
23.37
26.11
28.85
32.08
36.63
43.53
53.66
67.34
84.11
102.72
121.40
138.39
152.41
162.96
170.43
175.85
180.55
185.83
192.63
201.26
211.26
221.26
229.11
232.23
228.16
215.19
192.73
161.51
123.23
80.26
35.17
-9.65
-52.17
-90.82
-124.73
-153.67
-177.97
-198.34
-215.34
-229.16
-239.58
-246.10
-248.34
-246.37
-240.77
-232.51
-222.71
-212.32
-202.03
-192.32
-183.45
-175.56
-168.60
-162.18
-155.53
-147.68
-137.66
-124.84
-109.24
-91.44
-72.55
-53.74
-36.01
-19.89
-5.61
6.90
17.70
26.83
34.34
40.37
45.27
49.55
53.84
58.62
64.22
70.68
77.81
85.27
92.56
99.07
104.08
106.74
106.19
101.69
92.76
79.33
61.86
41.36
19.20
-3.01
-23.80
-42.01
-56.96
-68.46
-76.70
-82.11
-85.28
-86.87
-87.56
-88.02
-88.66
-89.50
-90.12
-89.74
-87.48
-82.72
-75.33
-65.76
-54.91
-43.82
-33.31
-23.88
-15.67
-8.61
-2.69
2.05
5.47
7.53
8.44
8.67
8.82
9.42
10.76
12.81
15.35
18.08
20.81
23.49
26.12
28.67
31.05
33.11
34.74
35.94
36.80
37.43
37.88
38.07
37.85
37.06
35.71
34.02
32.39
31.25
30.82
31.06
31.57
31.78
31.18
29.56
27.20
24.85
23.63
24.68
28.85
36.41
46.89
59.13
71.51
82.32
90.20
94.28
94.24
90.23
82.68
72.26
59.81
46.41
33.18
21.21
11.27
3.68
-1.72
-5.46
-8.10
-10.07
-11.58
-12.70
-13.53
-14.24
-15.19
-16.67
-18.89
-21.82
-25.19
-28.69
-32.07
-35.26
-38.33
-41.45
-44.68
-47.98
-51.16
-53.99
-56.26
-57.82
-58.65
-58.86
-58.65
-58.28
-58.02
-57.98
-58.05
-57.79
-56.56
-53.62
-48.45
-40.93
-31.43
-20.76
-9.86
0.47
9.68
17.59
24.18
29.48
33.51
36.31
37.97
38.78
39.12
39.36
39.74
40.33
40.99
41.55
41.86
41.86
41.61
41.18
40.65
40.04
39.28
38.30
37.01
35.43
33.65
31.86
30.27
29.01
28.11
27.44
26.78
25.84
24.47
22.65
20.62
18.71
17.26
16.44
16.16
16.14
15.92
15.08
13.32
10.61
7.23
3.78
1.09
-0.01
1.11
4.67
10.43
17.77
26.00
34.47
42.78
50.72
58.17
65.06
71.35
77.06
82.28
87.06
91.35
94.89
97.22
97.85
96.38
92.67
86.85
79.17
69.98
59.61
48.40
36.76
25.19
14.23
4.33
-4.19
-11.28
-17.00
-21.53
-25.09
-27.89
-30.17
-32.21
-34.26
-36.47
-38.85
-41.22
-43.35
-45.03
-46.17
-46.93
-47.63
-48.66
-50.31
-52.66
-55.45
-58.14
-60.00
-60.39
-58.90
-55.62
-51.06
-46.10
-41.72
-38.75
-37.69
-38.61
-41.15
-44.77
-48.84
-52.80
-56.21
-58.73
-60.04
-59.90
-58.15
-54.82
-50.21
-44.80
-39.10
-33.52
-28.28
-23.33
-18.54
-13.75
-8.94
-4.24
0.15
3.97
6.99
9.05
10.05
9.98
8.95
7.18
4.98
2.70
0.54
-1.50
-3.60
-6.09
-9.31
-13.48
-18.72
-25.02
-32.21
-39.91
-47.40
-53.68
-57.62
-58.31
-55.38
-49.16
-40.64
-31.02
-21.46
-12.77
-5.35
0.69
5.38
8.81
11.17
12.69
13.76
14.83
16.35
18.64
21.75
25.49
29.35
32.70
34.86
35.28
33.64
29.94
24.49
17.89
10.91
4.25
-1.58
-6.47
-10.64
-14.49
-18.37
-22.38
-26.43
-30.29
-33.80
-36.94
-39.77
-42.34
-44.52
-46.17
-47.03
-47.02
-46.14
-44.39
-41.65
-37.56
-31.67
-23.58
-13.24
-1.06
12.12
25.26
37.33
47.54
55.35
60.43
62.72
62.39
60.03
56.57
53.08
50.50
49.33
49.49
50.52
51.78
52.73
53.02
52.46
50.81
47.89
43.59
38.04
31.75
25.46
19.89
15.52
12.39
10.19
8.48
6.84
5.11
3.36
1.73
0.27
-1.23
-3.17
-6.11
-10.46
-16.46
-24.07
-32.98
-42.63
-52.30
-61.09
-68.04
-72.40
-73.75
-72.26
-68.64
-63.85
-58.84
-54.29
-50.54
-47.65
-45.65
-44.61
-44.59
-45.67
-47.69
-50.36
-53.21
-55.84
-57.99
-59.63
-60.97
-62.31
-64.04
-66.56
-70.13
-74.92
-80.82
-87.44
-94.22
-100.50
-105.84
-110.21
-114.09
-118.39
-124.19
-132.32
-143.09
-156.14
-170.41
-184.46
-196.82
-206.36
-212.43
-215.02
-214.43
-211.13
-205.49
-197.64
-187.37
-174.18
-157.28
-135.74
-108.89
-76.61
-39.73
-0.05
39.94
77.64
111.00
138.78
160.62
176.74
187.67
194.21
197.34
198.21
197.86
196.95
195.56
193.32
189.65
184.26
177.29
169.32
161.11
153.22
145.91
139.08
132.43
125.58
118.21
110.16
101.55
92.95
85.28
79.62
76.78
77.00
79.70
83.63
87.20
88.97
88.01
84.06
77.43
68.72
58.56
47.48
36.00
24.71
14.35
5.80
-0.15
-2.94
-2.50
0.77
6.11
12.54
19.19
25.39
30.72
34.94
37.77
38.87
37.84
34.48
28.96
21.93
14.34
7.18
1.16
-3.42
-6.62
-8.67
-9.76
-10.05
-9.62
-8.66
-7.37
-6.06
-4.98
-4.36
-4.41
-5.20
-6.71
-8.73
-10.94
-12.99
-14.60
-15.62
-16.11
-16.26
-16.37
-16.83
-18.14
-20.86
-25.39
-31.70
-39.19
-46.66
-52.71
-56.14
-56.38
-53.67
-48.84
-42.91
-36.73
-30.81
-25.43
-20.77
-17.10
-14.72
-13.84
-14.32
-15.72
-17.33
-18.42
-18.43
-17.17
-14.76
-11.61
-8.23
-5.05
-2.29
0.07
2.25
4.52
7.04
9.69
12.08
13.76
14.34
13.72
12.10
9.82
7.19
4.27
0.86
-3.33
-8.49
-14.56
-21.17
-27.85
-34.15
-39.75
-44.40
-47.76
-49.34
-48.48
-44.60
-37.41
-27.10
-14.35
-0.14
14.42
28.36
40.92
51.60
60.22
66.70
71.16
73.75
74.75
74.51
73.52
72.36
71.60
71.68
72.79
74.84
77.49
80.30
82.74
84.43
85.17
85.11
84.74
84.64
85.08
85.65
85.04
81.36
72.79
58.35
38.42
14.58
-10.88
-35.69
-58.12
-77.09
-92.03
-102.64
-108.93
-111.36
-111.03
-109.53
-108.55
-109.22
-111.64
-114.79
-116.97
-116.55
-112.48
-104.61
-93.51
-80.12
-65.40
-50.28
-35.71
-22.60
-11.67
-3.12
3.54
9.42
15.77
23.45
32.53
42.32
51.76
59.96
66.52
71.51
75.18
77.62
78.66
78.04
75.57
71.46
66.24
60.53
54.74
48.86
42.51
35.16
26.54
16.81
6.66
-3.01
-11.40
-18.07
-23.08
-26.89
-30.10
-33.30
-36.86
-40.94
-45.36
-49.69
-53.13
-54.74
-53.68
-49.48
-42.30
-32.89
-22.33
-11.66
-1.65
7.32
15.08
21.47
26.26
29.22
30.29
29.70
27.99
25.84
23.84
22.29
21.16
20.20
19.08
17.58
15.63
13.29
10.67
7.93
5.15
2.39
-0.34
-3.09
-5.96
-9.00
-12.23
-15.51
-18.58
-21.09
-22.65
-22.91
-21.58
-18.53
-13.88
-8.13
-2.07
3.41
7.63
10.51
12.63
15.16
19.38
26.22
35.91
47.85
60.79
73.16
83.50
90.73
94.36
94.41
91.30
85.67
78.11
69.11
59.10
48.52
38.00
28.20
19.70
12.77
7.31
2.98
-0.58
-3.51
-5.68
-6.84
-6.90
-6.20
-5.61
-6.24
-9.03
-14.40
-22.03
-31.08
-40.53
-49.58
-57.82
-65.26
-72.20
-78.96
-85.85
-93.10
-100.87
-109.29
-118.40
-127.93
-137.38
-146.00
-152.96
-157.49
-159.11
-157.68
-153.48
-147.09
-139.27
-130.78
-122.15
-113.63
-105.10
-96.20
-86.36
-74.95
-61.40
-45.39
-26.85
-6.02
16.63
40.46
64.70
88.45
110.78
130.80
147.86
161.59
171.84
178.45
180.97
178.59
170.33
155.51
134.33
108.23
79.75
52.04
27.97
9.48
-2.83
-9.60
-12.26
-12.44
-11.54
-10.56
-10.11
-10.58
-12.31
-15.53
-20.38
-26.64
-33.74
-40.65
-46.05
-48.67
-47.62
-42.61
-34.06
-22.87
-10.05
3.46
16.94
29.67
40.82
49.37
54.41
55.49
52.93
47.93
42.14
37.21
34.24
33.52
34.53
36.33
37.95
38.72
38.46
37.32
35.61
33.57
31.26
28.61
25.50
21.89
17.83
13.49
9.09
4.97
1.58
-0.59
-1.08
0.34
3.57
8.17
13.54
19.01
23.98
27.91
30.34
30.94
29.69
27.03
24.01
22.14
23.03
27.96
37.52
51.50
68.93
88.24
107.51
124.71
138.10
146.47
149.57
147.99
142.87
135.34
126.00
114.71
100.92
84.17
64.59
43.02
20.64
-1.44
-22.49
-42.15
-60.18
-76.20
-89.69
-100.24
-107.89
-113.25
-117.41
-121.47
-126.21
-131.86
-138.16
-144.53
-150.39
-155.27
-158.92
-161.33
-162.62
-163.07
-162.93
-162.46
-161.81
-161.05
-159.99
-158.24
-155.10
-149.69
-141.15
-129.00
-113.28
-94.77
-74.74
-54.67
-35.84
-19.09
-4.84
6.78
15.77
22.10
25.83
27.25
26.93
25.70
24.41
23.69
23.75
24.40
25.19
25.71
25.69
25.12
24.04
22.50
20.47
17.82
14.49
10.58
6.37
2.23
-1.55
-4.85
-7.75
-10.51
-13.37
-16.53
-20.17
-24.40
-29.25
-34.64
-40.10
-44.81
-47.61
-47.36
-43.29
-35.35
-24.25
-11.27
2.17
14.92
26.26
35.88
43.68
49.60
53.56
55.53
55.76
54.76
53.26
51.95
51.29
51.35
51.87
52.37
52.35
51.42
49.32
45.99
41.41
35.68
28.95
21.49
13.64
5.90
-1.20
-7.21
-11.89
-15.31
-17.88
-20.18
-22.66
-25.47
-28.25
-30.22
-30.40
-27.86
-22.11
-13.21
-1.87
10.73
23.07
33.68
41.40
45.58
46.16
43.58
38.55
31.85
24.16
16.00
7.89
0.35
-6.01
-10.52
-12.70
-12.29
-9.42
-4.55
1.65
8.42
15.08
21.05
25.88
29.17
30.65
30.08
27.39
22.62
15.94
7.58
-2.23
-13.30
-25.45
-38.46
-51.84
-64.82
-76.21
-84.55
-88.45
-86.95
-79.85
-67.89
-52.56
-35.75
-19.35
-4.82
6.94
15.61
21.32
24.54
25.91
26.19
26.07
26.14
26.73
27.92
29.58
31.51
33.51
35.41
37.15
38.62
39.66
40.04
39.48
37.69
34.53
30.05
24.50
18.38
12.27
6.66
1.87
-2.19
-5.86
-9.67
-14.03
-18.99
-24.11
-28.50
-31.11
-30.98
-27.59
-21.06
-12.06
-1.70
8.76
18.28
26.13
32.02
35.93
38.06
38.63
37.92
36.20
33.84
31.22
28.68
26.45
24.58
23.06
21.86
21.06
20.81
21.15
21.92
22.64
22.60
21.15
17.86
12.80
6.56
0.03
-5.79
-10.14
-12.67
-13.55
-13.30
-12.72
-12.61
-13.60
-15.92
-19.28
-22.90
-25.63
-26.32
-24.17
-19.03
-11.54
-2.95
5.25
11.67
15.47
16.44
14.96
11.80
7.82
3.67
-0.21
-3.62
-6.47
-8.65
-10.04
-10.51
-10.00
-8.62
-6.58
-4.13
-1.49
1.18
3.83
6.40
8.74
10.65
11.82
11.94
10.89
8.81
6.13
3.57
1.84
1.47
2.63
5.12
8.44
12.03
15.37
18.09
19.98
20.96
21.07
20.59
20.08
20.36
22.33
26.64
33.37
41.79
50.46
57.67
61.98
62.69
59.95
54.52
47.38
39.39
31.08
22.79
14.88
7.83
2.18
-1.59
-3.35
-3.36
-2.17
-0.43
1.28
2.64
3.53
3.99
4.07
3.91
3.61
3.34
3.23
3.37
3.75
4.26
4.75
5.13
5.47
6.00
6.92
8.35
10.25
12.33
14.19
15.38
15.46
14.07
11.00
6.29
0.41
-5.71
-10.77
-13.57
-13.37
-10.28
-5.25
0.20
4.55
6.79
6.56
4.16
0.19
-4.70
-10.07
-15.60
-21.03
-26.05
-30.22
-33.17
-34.57
-34.29
-32.43
-29.36
-25.66
-22.04
-19.12
-17.19
-16.10
-15.23
-13.71
-10.79
-6.24
-0.56
5.13
9.52
11.75
11.77
10.51
9.46
10.07
13.08
18.15
23.90
28.18
28.73
23.96
13.80
0.47
-11.22
-14.48
-2.32
29.96
82.33
148.97
219.30
280.93
323.35
340.85
333.61
306.66
267.66
224.48
183.57
149.23
123.45
105.92
94.26
84.34
71.28
50.65
20.00
-20.26
-66.67
-113.58
-154.65
-184.40
-199.57
-199.69
-186.68
-164.18
-136.46
-107.29
-78.99
-52.48
-27.79
-4.99
15.23
31.41
41.80
45.04
40.61
28.93
11.03
-11.73
-38.09
-66.91
-96.94
-126.57
-153.55
-175.10
-188.32
-191.05
-182.62
-164.44
-139.77
-112.71
-87.04
-64.88
-46.61
-31.64
-19.35
-9.91
-4.17
-3.06
-6.70
-14.02
-22.97
-31.31
-37.28
-40.12
-40.01
-37.74
-34.26
-30.33
-26.46
-22.94
-20.04
-18.17
-17.75
-19.20
-22.63
-27.78
-33.97
-40.20
-45.51
-49.22
-51.26
-52.03
-52.32
-52.86
-54.04
-55.74
-57.39
-58.21
-57.56
-55.21
-51.35
-46.47
-41.09
-35.67
-30.46
-25.55
-20.88
-16.30
-11.63
-6.63
-1.10
4.99
11.50
18.19
24.84
31.42
38.07
45.00
52.27
59.62
66.43
71.90
75.31
76.19
74.49
70.52
64.78
57.86
50.22
42.26
34.26
26.43
18.91
11.73
4.91
-1.62
-7.95
-14.16
-20.25
-26.11
-31.50
-36.09
-39.56
-41.68
-42.34
-41.66
-39.87
-37.30
-34.28
-31.09
-27.96
-25.06
-22.50
-20.43
-19.00
-18.36
-18.56
-19.36
-20.23
-20.36
-18.93
-15.36
-9.56
-1.86
7.07
16.52
25.87
34.56
42.07
47.80
51.17
51.79
49.66
45.22
39.26
32.69
26.24
20.39
15.27
10.80
6.72
2.59
-2.15
-8.14
-15.79
-25.03
-35.11
-44.70
-52.21
-56.38
-56.68
-53.48
-47.73
-40.60
-32.99
-25.34
-17.78
-10.38
-3.38
2.74
7.46
10.46
11.80
11.88
11.30
10.52
9.80
9.13
8.40
7.56
6.66
5.92
5.58
5.82
6.56
7.59
8.59
9.27
9.56
9.58
9.59
9.88
10.56
11.47
12.28
12.54
11.94
10.46
8.39
6.33
4.96
4.88
6.43
9.61
14.09
19.31
24.62
29.35
33.01
35.25
35.87
34.87
32.37
28.53
23.58
17.81
11.53
5.15
-0.93
-6.33
-10.79
-14.19
-16.55
-18.03
-18.80
-19.09
-19.10
-19.05
-19.14
-19.51
-20.21
-21.20
-22.31
-23.31
-23.99
-24.26
-24.25
-24.23
-24.55
-25.45
-26.91
-28.60
-29.99
-30.56
-29.92
-27.97
-24.84
-20.78
-16.05
-10.87
-5.44
-0.03
5.00
9.28
12.56
14.78
16.12
16.91
17.52
18.18
19.03
19.99
20.95
21.77
22.33
22.60
22.62
22.48
22.20
21.67
20.58
18.51
15.08
10.21
4.26
-1.93
-7.35
-11.12
-12.87
-12.85
-11.80
-10.57
-9.79
-9.58
-9.63
-9.39
-8.38
-6.41
-3.61
-0.27
3.35
7.15
11.20
15.60
20.27
24.88
28.85
31.55
32.55
31.85
29.92
27.51
25.44
24.29
24.27
25.32
27.20
29.69
32.62
35.68
38.31
39.69
39.01
35.91
30.79
24.66
18.62
13.15
7.76
1.37
-6.96
-17.24
-28.32
-38.39
-45.92
-50.33
-52.05
-52.14
-51.43
-50.22
-48.30
-45.41
-41.62
-37.47
-33.59
-30.43
-27.98
-25.85
-23.46
-20.34
-16.23
-11.21
-5.61
0.12
5.48
10.08
13.71
16.38
18.32
19.97
21.88
24.51
28.15
32.75
37.87
42.92
47.31
50.60
52.61
53.32
52.79
51.08
48.24
44.22
39.01
32.53
24.65
15.30
4.51
-7.41
-19.87
-32.01
-42.95
-51.95
-58.65
-63.08
-65.59
-66.59
-66.38
-65.05
-62.48
-58.58
-53.32
-46.97
-39.92
-32.64
-25.53
-18.94
-13.06
-7.99
-3.68
0.14
3.86
7.96
12.73
18.15
23.77
28.84
32.53
34.21
33.69
31.19
27.35
22.90
18.51
14.65
11.54
9.29
7.91
7.37
7.63
8.54
9.86
11.27
12.45
13.15
13.18
12.46
11.01
8.94
6.44
3.78
1.24
-0.96
-2.73
-4.11
-5.24
-6.32
-7.52
-8.93
-10.52
-12.19
-13.78
-15.21
-16.52
-17.87
-19.40
-21.11
-22.81
-24.09
-24.54
-23.77
-21.49
-17.55
-11.86
-4.42
4.52
14.35
24.09
32.60
38.92
42.59
43.75
43.01
41.13
38.61
35.60
31.88
27.11
21.02
13.49
4.61
-5.44
-16.40
-27.95
-39.66
-50.80
-60.44
-67.55
-71.27
-71.26
-67.86
-61.98
-54.84
-47.49
-40.39
-33.33
-25.58
-16.38
-5.28
7.49
21.14
34.60
46.90
57.53
66.52
74.37
81.77
89.27
97.07
105.02
112.65
119.36
124.58
127.77
128.58
126.80
122.34
115.26
105.74
94.13
80.93
66.85
52.68
39.27
27.28
17.00
8.20
0.23
-7.57
-15.63
-23.78
-31.32
-37.32
-41.04
-42.30
-41.48
-39.36
-36.75
-34.24
-32.12
-30.50
-29.35
-28.63
-28.20
-27.79
-27.07
-25.73
-23.71
-21.25
-18.89
-17.29
-17.07
-18.59
-21.89
-26.71
-32.49
-38.54
-44.15
-48.71
-51.87
-53.54
-53.89
-53.25
-51.92
-50.02
-47.49
-44.12
-39.72
-34.28
-27.99
-21.32
-14.83
-9.04
-4.28
-0.63
2.03
3.92
5.25
6.23
6.94
7.45
7.72
7.58
6.69
4.70
1.33
-3.42
-9.15
-15.14
-20.47
-24.29
-26.05
-25.56
-22.98
-18.69
-13.19
-7.10
-1.04
4.37
8.60
11.32
12.48
12.31
11.24
9.75
8.21
6.83
5.69
4.79
4.13
3.74
3.71
4.10
4.91
6.08
7.47
8.91
10.23
11.26
11.84
11.85
11.24
10.06
8.49
6.79
5.27
4.15
3.48
3.18
3.03
2.79
2.28
1.48
0.43
-0.79
-2.12
-3.59
-5.23
-7.15
-9.38
-11.92
-14.62
-17.31
-19.72
-21.57
-22.60
-22.56
-21.35
-19.00
-15.78
-12.08
-8.43
-5.29
-2.98
-1.62
-1.11
-1.21
-1.62
-2.08
-2.33
-2.22
-1.67
-0.67
0.66
2.18
3.78
5.38
6.98
8.56
10.06
11.30
12.10
12.26
11.72
10.59
9.13
7.58
6.16
4.89
3.67
2.35
0.80
-1.02
-3.10
-5.33
-7.59
-9.71
-11.48
-12.71
-13.25
-13.16
-12.64
-12.08
-11.89
-12.35
-13.54
-15.30
-17.32
-19.21
-20.58
-21.10
-20.55
-18.78
-15.82
-11.86
-7.26
-2.46
2.10
6.01
9.07
11.22
12.56
13.26
13.48
13.32
12.88
12.21
11.41
10.58
9.82
9.20
8.73
8.39
8.14
7.96
7.81
7.65
7.40
7.01
6.49
5.88
5.32
4.98
4.94
5.23
5.71
6.21
6.51
6.48
6.10
5.42
4.56
3.55
2.39
1.06
-0.38
-1.80
-2.96
-3.60
-3.55
-2.85
-1.63
-0.15
1.35
2.63
3.51
3.90
3.86
3.60
3.41
3.56
4.14
5.13
6.31
7.36
8.00
8.01
7.23
5.65
3.40
0.74
-1.95
-4.29
-5.98
-6.93
-7.22
-7.04
-6.55
-5.87
-5.07
-4.21
-3.41
-2.81
-2.56
-2.68
-3.09
-3.61
-4.04
-4.26
-4.28
-4.26
-4.36
-4.68
-5.19
-5.81
-6.44
-7.13
-7.95
-9.00
-10.37
-12.04
-13.96
-16.03
-18.19
-20.25
-22.03
-23.23
-23.54
-22.74
-20.76
-17.74
-14.01
-10.02
-6.21
-2.90
-0.26
1.68
3.02
3.84
4.17
3.99
3.36
2.52
1.83
1.79
2.79
4.92
7.88
11.02
13.56
14.88
14.77
13.45
11.53
9.66
8.32
7.63
7.37
7.13
6.46
5.10
2.97
0.25
-2.75
-5.65
-8.15
-10.06
-11.39
-12.25
-12.84
-13.40
-14.12
-15.08
-16.29
-17.58
-18.66
-19.12
-18.55
-16.69
-13.53
-9.39
-4.80
-0.33
3.63
6.90
9.59
11.84
13.79
15.40
16.58
17.26
17.47
17.38
17.20
17.09
17.05
17.01
16.85
16.49
16.00
15.48
15.10
14.91
14.89
14.89
14.68
14.05
12.83
11.01
8.63
5.85
2.88
-0.05
-2.68
-4.86
-6.48
-7.62
-8.44
-9.24
-10.30
-11.76
-13.58
-15.45
-16.94
-17.55
-16.97
-15.06
-12.02
-8.24
-4.16
-0.20
3.35
6.38
8.91
10.97
12.63
13.89
14.74
15.20
15.31
15.15
14.81
14.34
13.76
13.05
12.19
11.21
10.19
9.25
8.51
7.98
7.62
7.24
6.69
5.82
4.54
2.83
0.75
-1.56
-3.92
-6.13
-8.02
-9.52
-10.66
-11.57
-12.45
-13.47
-14.79
-16.43
-18.23
-19.88
-20.91
-20.82
-19.31
-16.39
-12.44
-8.06
-3.89
-0.34
2.50
4.74
6.62
8.29
9.77
10.98
11.81
12.19
12.13
11.75
11.19
10.59
10.07
9.65
9.27
8.85
8.30
7.63
6.93
6.29
5.79
5.40
4.99
4.41
3.51
2.24
0.69
-1.02
-2.75
-4.37
-5.86
-7.28
-8.74
-10.35
-12.22
-14.35
-16.72
-19.19
-21.55
-23.48
-24.63
-24.66
-23.34
-20.66
-16.80
-12.19
-7.32
-2.68
1.35
4.54
6.83
8.26
9.02
9.25
9.10
8.60
7.80
6.78
5.73
4.92
4.55
4.70
5.28
6.04
6.73
7.20
7.44
7.53
7.50
7.33
6.87
6.02
4.73
3.03
1.02
-1.20
-3.53
-5.87
-8.11
-10.15
-11.88
-13.32
-14.54
-15.72
-17.04
-18.60
-20.35
-22.07
-23.39
-23.84
-23.04
-20.76
-17.04
-12.30
-7.10
-2.08
2.30
5.79
8.37
10.11
11.16
11.66
11.69
11.42
10.99
10.54
10.19
9.96
9.80
9.67
9.54
9.37
9.19
9.03
8.88
8.73
8.49
8.06
7.41
6.49
5.36
4.13
2.90
1.73
0.62
-0.47
-1.58
-2.77
-4.06
-5.46
-6.93
-8.36
-9.49
-9.97
-9.44
-7.68
-4.72
-0.91
3.23
7.16
10.50
13.12
15.08
16.47
17.38
17.82
17.83
17.48
16.92
16.32
15.81
15.40
15.01
14.51
13.87
13.15
12.51
12.06
11.79
11.49
10.90
9.76
8.06
5.98
3.87
2.08
0.79
-0.04
-0.63
-1.26
-2.18
-3.49
-5.13
-6.81
-8.12
-8.66
-8.13
-6.46
-3.82
-0.49
3.27
7.31
11.68
16.58
22.16
28.51
35.52
42.90
50.16
56.81
62.40
66.72
69.84
72.08
73.81
75.20
76.04
75.80
73.85
69.68
63.22
54.77
44.81
33.78
21.93
9.35
-3.89
-17.50
-31.00
-43.75
-55.17
-64.86
-72.62
-78.51
-82.68
-85.32
-86.62
-86.72
-85.61
-83.15
-79.04
-72.99
-64.91
-55.07
-44.16
-33.08
-22.67
-13.40
-5.33
1.85
8.53
14.96
21.13
26.81
31.77
35.92
39.40
42.53
45.70
49.27
53.40
58.07
63.02
67.77
71.67
74.01
74.14
71.67
66.55
59.04
49.68
39.08
27.76
16.09
4.30
-7.42
-19.00
-30.37
-41.59
-52.81
-64.15
-75.60
-86.81
-97.10
-105.57
-111.37
-113.87
-112.92
-108.80
-102.17
-93.85
-84.63
-75.14
-65.79
-56.79
-48.22
-40.20
-32.89
-26.53
-21.33
-17.43
-14.75
-13.11
-12.17
-11.59
-11.13
-10.60
-9.95
-9.13
-8.16
-6.92
-5.30
-3.20
-0.57
2.46
5.66
8.74
11.43
13.50
14.85
15.42
15.16
14.16
12.58
10.77
9.12
7.95
7.32
7.05
6.76
6.06
4.82
3.12
1.34
-0.08
-0.75
-0.42
0.94
3.25
6.36
10.12
14.32
18.79
23.29
27.58
31.48
34.91
37.96
40.82
43.79
47.04
50.58
54.22
57.56
60.15
61.60
61.67
60.38
58.05
55.23
52.53
50.56
49.67
49.96
51.23
53.07
55.00
56.64
57.74
58.28
58.42
58.44
58.63
59.08
59.61
59.66
58.44
55.06
48.74
39.06
26.08
10.33
-7.27
-25.55
-43.32
-59.53
-73.45
-84.67
-93.19
-99.22
-103.13
-105.31
-106.07
-105.61
-104.05
-101.47
-97.91
-93.43
-88.12
-82.13
-75.64
-68.93
-62.28
-55.97
-50.19
-45.02
-40.45
-36.36
-32.60
-28.99
-25.45
-21.95
-18.54
-15.38
-12.64
-10.56
-9.28
-8.82
-9.05
-9.70
-10.44
-11.00
-11.23
-11.13
-10.84
-10.53
-10.32
-10.23
-10.21
-10.10
-9.69
-8.72
-6.97
-4.20
-0.33
4.65
10.61
17.36
24.67
32.28
39.86
47.00
53.25
58.16
61.42
62.91
62.84
61.69
60.10
58.72
58.01
58.14
58.96
60.07
60.97
61.26
60.69
59.22
56.96
54.07
50.70
47.02
43.12
39.02
34.62
29.64
23.77
16.71
8.35
-1.16
-11.45
-22.08
-32.66
-42.84
-52.33
-60.78
-67.72
-72.72
-75.54
-76.27
-75.35
-73.45
-71.14
-68.81
-66.60
-64.43
-62.25
-60.08
-58.06
-56.35
-55.05
-54.12
-53.36
-52.53
-51.34
-49.62
-47.35
-44.68
-41.88
-39.27
-37.03
-35.21
-33.64
-32.05
-30.23
-28.11
-25.78
-23.45
-21.24
-19.13
-16.97
-14.49
-11.52
-8.08
-4.38
-0.75
2.45
5.10
7.38
9.71
12.67
16.71
21.97
28.28
35.22
42.28
49.05
55.29
60.85
65.63
69.46
72.15
73.57
73.70
72.68
70.77
68.26
65.39
62.30
59.07
55.71
52.29
48.84
45.33
41.63
37.43
32.37
26.18
18.85
10.62
1.88
-6.99
-15.75
-24.32
-32.70
-40.83
-48.59
-55.74
-62.04
-67.24
-71.14
-73.49
-74.02
-72.51
-68.80
-62.95
-55.14
-45.73
-35.10
-23.68
-11.95
-0.41
10.36
19.81
27.50
33.20
37.02
39.43
41.19
43.11
45.80
49.49
53.91
58.47
62.35
64.81
65.29
63.50
59.39
53.20
45.37
36.53
27.39
18.54
10.36
2.87
-4.13
-11.02
-18.14
-25.79
-34.04
-42.71
-51.43
-59.60
-66.53
-71.53
-74.12
-74.16
-71.85
-67.69
-62.31
-56.33
-50.28
-44.51
-39.31
-34.90
-31.42
-28.92
-27.32
-26.39
-25.85
-25.45
-25.01
-24.48
-23.86
-23.15
-22.29
-21.19
-19.73
-17.87
-15.62
-13.08
-10.42
-7.86
-5.68
-4.11
-3.28
-3.25
-3.91
-5.17
-6.92
-9.02
-11.30
-13.47
-15.11
-15.80
-15.19
-13.16
-9.82
-5.48
-0.63
4.25
8.71
12.42
15.22
17.09
18.11
18.44
18.27
17.83
17.31
16.98
17.07
17.77
19.13
21.09
23.42
25.79
27.79
28.98
29.07
27.88
25.47
22.12
18.26
14.32
10.62
7.33
4.43
1.80
-0.66
-2.99
-5.11
-6.84
-7.99
-8.45
-8.21
-7.38
-6.18
-4.79
-3.30
-1.78
-0.20
1.42
2.99
4.40
5.51
6.27
6.77
7.13
7.47
7.87
8.27
8.60
8.79
8.81
8.73
8.60
8.45
8.23
7.92
7.45
6.85
6.20
5.57
4.99
4.44
3.86
3.15
2.25
1.08
-0.41
-2.23
-4.37
-6.74
-9.20
-11.52
-13.44
-14.76
-15.38
-15.36
-14.89
-14.22
-13.59
-13.18
-13.07
-13.22
-13.58
-14.11
-14.80
-15.62
-16.44
-16.99
-16.99
-16.11
-14.10
-10.87
-6.39
-0.75
5.86
13.12
20.55
27.51
33.36
37.57
39.83
40.18
38.89
36.43
33.18
29.49
25.46
21.12
16.45
11.46
6.33
1.32
-3.24
-7.06
-9.93
-11.81
-12.71
-12.66
-11.62
-9.41
-5.77
-0.44
6.64
15.29
24.93
34.72
43.69
50.94
55.81
57.99
57.50
54.74
50.38
45.34
40.64
37.27
35.81
36.32
38.19
40.32
41.47
40.68
37.52
32.21
25.46
18.14
11.05
4.66
-0.85
-5.58
-9.71
-13.51
-17.21
-21.01
-25.02
-29.16
-33.13
-36.43
-38.47
-38.85
-37.56
-35.00
-31.94
-29.19
-27.31
-26.44
-26.32
-26.50
-26.58
-26.30
-25.52
-24.16
-22.15
-19.39
-15.88
-11.76
-7.34
-2.95
1.05
4.50
7.35
9.66
11.50
12.90
13.85
14.28
14.21
13.67
12.77
11.65
10.46
9.28
8.12
6.88
5.47
3.87
2.18
0.57
-0.78
-1.74
-2.27
-2.41
-2.25
-1.88
-1.42
-0.98
-0.70
-0.68
-0.97
-1.56
-2.34
-3.24
-4.20
-5.24
-6.38
-7.64
-8.96
-10.25
-11.40
-12.32
-12.87
-12.99
-12.61
-11.74
-10.49
-9.03
-7.59
-6.33
-5.31
-4.49
-3.72
-2.84
-1.77
-0.50
0.89
2.24
3.39
4.21
4.65
4.72
4.52
4.18
3.83
3.51
3.20
2.81
2.20
1.31
0.13
-1.20
-2.47
-3.47
-4.10
-4.34
-4.31
-4.13
-3.86
-3.55
-3.20
-2.82
-2.50
-2.32
-2.33
-2.51
-2.80
-3.18
-3.69
-4.36
-5.20
-6.07
-6.64
-6.59
-5.63
-3.74
-1.16
1.68
4.35
6.54
8.18
9.36
10.25
10.97
11.53
11.91
12.05
12.01
11.88
11.69
11.49
11.19
10.75
10.16
9.53
9.01
8.77
8.92
9.45
10.31
11.39
12.68
14.15
15.79
17.57
19.39
21.08
22.48
23.47
23.95
23.92
23.41
22.51
21.31
19.91
18.44
16.96
15.47
13.91
12.13
9.98
7.35
4.19
0.52
-3.56
-7.85
-12.04
-15.73
-18.51
-20.06
-20.28
-19.30
-17.44
-15.03
-12.37
-9.66
-7.08
-4.81
-3.01
-1.78
-1.08
-0.76
-0.54
-0.17
0.45
1.29
2.24
3.17
3.96
4.54
4.83
4.80
4.44
3.82
3.04
2.23
1.47
0.78
0.17
-0.41
-1.00
-1.65
-2.40
-3.31
-4.34
-5.44
-6.48
-7.31
-7.87
-8.17
-8.34
-8.57
-9.02
-9.76
-10.78
-11.92
-12.96
-13.67
-13.86
-13.44
-12.43
-10.95
-9.15
-7.22
-5.26
-3.36
-1.64
-0.17
0.97
1.76
2.27
2.61
2.92
3.33
3.86
4.54
5.37
6.33
7.37
8.37
9.23
9.85
10.28
10.61
11.00
11.54
12.14
12.60
12.67
12.16
10.97
9.13
6.72
3.80
0.47
-3.20
-7.07
-10.93
-14.51
-17.54
-19.81
-21.22
-21.80
-21.69
-21.12
-20.29
-19.31
-18.18
-16.84
-15.27
-13.47
-11.54
-9.57
-7.62
-5.71
-3.83
-2.02
-0.38
0.93
1.81
2.26
2.44
2.54
2.76
3.16
3.68
4.22
4.66
4.99
5.27
5.64
6.21
7.03
8.12
9.42
10.87
12.37
13.81
15.08
16.08
16.73
17.00
16.91
16.52
15.96
15.30
14.60
13.86
13.05
12.09
10.93
9.46
7.62
5.38
2.84
0.24
-2.15
-4.05
-5.33
-6.04
-6.35
-6.40
-6.28
-5.90
-5.16
-3.94
-2.23
-0.11
2.25
4.60
6.71
8.34
9.37
9.83
9.96
10.09
10.50
11.22
12.04
12.54
12.41
11.56
10.20
8.72
7.51
6.75
6.41
6.30
6.21
5.98
5.55
4.94
4.17
3.25
2.19
0.97
-0.46
-2.17
-4.25
-6.76
-9.72
-12.98
-16.30
-19.31
-21.68
-23.17
-23.73
-23.51
-22.83
-21.99
-21.23
-20.57
-19.92
-19.11
-18.02
-16.71
-15.31
-14.00
-12.87
-11.88
-10.81
-9.42
-7.56
-5.26
-2.72
-0.27
1.79
3.25
4.00
3.99
3.27
1.92
0.10
-1.90
-3.76
-5.14
-5.83
-5.80
-5.15
-4.01
-2.55
-0.90
0.78
2.23
3.11
3.11
2.05
0.00
-2.64
-5.33
-7.50
-8.78
-9.09
-8.64
-7.81
-6.99
-6.45
-6.30
-6.51
-7.03
-7.77
-8.71
-9.75
-10.72
-11.39
-11.51
-10.94
-9.69
-7.92
-5.86
-3.73
-1.74
0.00
1.43
2.51
3.26
3.70
3.88
3.83
3.58
3.14
2.52
1.77
0.93
0.06
-0.79
-1.63
-2.44
-3.23
-3.99
-4.70
-5.38
-5.99
-6.49
-6.76
-6.62
-5.87
-4.37
-2.11
0.74
3.93
7.16
10.18
12.83
15.00
16.60
17.55
17.71
16.98
15.30
12.67
9.22
5.21
0.96
-3.14
-6.77
-9.67
-11.71
-12.91
-13.39
-13.28
-12.79
-12.07
-11.31
-10.63
-10.14
-9.83
-9.68
-9.62
-9.59
-9.49
-9.28
-8.88
-8.29
-7.56
-6.80
-6.19
-5.93
-6.15
-6.85
-7.93
-9.12
-10.12
-10.66
-10.54
-9.68
-8.07
-5.80
-3.01
0.10
3.27
6.21
8.62
10.31
11.19
11.33
10.96
10.39
9.89
9.63
9.64
9.83
10.05
10.16
10.11
9.90
9.52
8.99
8.29
7.44
6.46
5.43
4.40
3.42
2.50
1.61
0.78
0.05
-0.50
-0.87
-1.05
-1.11
-1.13
-1.17
-1.31
-1.60
-2.07
-2.72
-3.48
-4.18
-4.60
-4.51
-3.75
-2.33
-0.34
1.96
4.27
6.35
8.00
9.12
9.72
9.90
9.80
9.62
9.55
9.71
10.20
10.97
11.84
12.53
12.76
12.33
11.25
9.73
8.09
6.61
5.48
4.68
4.06
3.41
2.60
1.59
0.48
-0.64
-1.65
-2.49
-3.16
-3.68
-4.10
-4.48
-4.89
-5.40
-6.03
-6.77
-7.50
-8.07
-8.28
-7.96
-7.07
-5.64
-3.80
-1.77
0.23
1.96
3.26
4.04
4.40
4.50
4.57
4.83
5.32
6.03
6.80
7.50
8.05
8.51
8.91
9.29
9.61
9.79
9.82
9.76
9.74
9.87
10.16
10.51
10.74
10.69
10.29
9.59
8.75
7.94
7.24
6.66
6.12
5.49
4.68
3.57
2.15
0.41
-1.53
-3.49
-5.22
-6.48
-7.11
-7.14
-6.75
-6.24
-5.98
-6.15
-6.73
-7.51
-8.11
-8.13
-7.33
-5.69
-3.38
-0.68
2.20
5.16
8.23
11.46
14.79
18.00
20.68
22.48
23.18
22.81
21.68
20.14
18.47
16.80
15.13
13.41
11.67
10.03
8.65
7.64
7.03
6.73
6.62
6.55
6.45
6.25
5.96
5.58
5.11
4.58
3.98
3.27
2.40
1.36
0.17
-1.01
-2.00
-2.65
-2.88
-2.75
-2.48
-2.35
-2.65
-3.52
-4.95
-6.74
-8.59
-10.20
-11.41
-12.20
-12.67
-12.95
-13.17
-13.43
-13.76
-14.20
-14.76
-15.45
-16.21
-16.96
-17.57
-17.95
-18.06
-17.93
-17.64
-17.32
-17.12
-17.14
-17.39
-17.80
-18.18
-18.36
-18.20
-17.70
-16.90
-15.89
-14.77
-13.56
-12.31
-11.03
-9.80
-8.71
-7.81
-7.11
-6.57
-6.09
-5.61
-5.09
-4.50
-3.87
-3.13
-2.26
-1.20
0.02
1.27
2.36
3.05
3.23
2.93
2.34
1.73
1.35
1.32
1.64
2.24
3.05
4.18
5.85
8.31
11.69
15.89
20.52
25.14
29.39
33.11
36.41
39.46
42.39
45.21
47.68
49.50
50.32
49.90
48.05
44.73
40.02
34.16
27.53
20.54
13.62
7.16
1.39
-3.52
-7.45
-10.32
-12.08
-12.70
-12.22
-10.73
-8.40
-5.54
-2.58
0.02
1.79
2.41
1.79
0.06
-2.51
-5.74
-9.54
-14.01
-19.16
-24.83
-30.55
-35.70
-39.71
-42.31
-43.62
-43.99
-43.80
-43.19
-42.12
-40.39
-37.97
-35.09
-32.20
-29.89
-28.63
-28.61
-29.72
-31.59
-33.70
-35.49
-36.51
-36.45
-35.27
-33.08
-30.15
-26.76
-23.12
-19.37
-15.50
-11.49
-7.28
-2.77
2.09
7.30
12.70
17.98
22.66
26.23
28.25
28.50
26.90
23.65
19.03
13.36
7.08
0.65
-5.45
-10.75
-14.97
-18.03
-20.04
-21.23
-21.84
-22.01
-21.75
-20.98
-19.61
-17.63
-15.10
-12.18
-9.05
-5.90
-2.89
-0.13
2.34
4.46
6.21
7.53
8.40
8.87
9.01
8.95
8.76
8.46
8.01
7.37
6.52
5.55
4.58
3.74
3.15
2.89
3.05
3.72
5.02
6.92
9.26
11.78
14.19
16.31
18.19
19.99
21.89
23.91
25.90
27.55
28.57
28.83
28.35
27.33
25.97
24.44
22.84
21.33
20.06
19.15
18.63
18.33
17.96
17.20
15.90
14.09
11.99
9.88
7.96
6.31
4.92
3.79
2.93
2.40
2.26
2.50
3.07
3.92
5.04
6.46
8.21
10.25
12.45
14.66
16.76
18.78
20.83
23.01
25.33
27.58
29.44
30.63
30.98
30.54
29.58
28.39
27.25
26.32
25.59
24.91
24.06
22.81
21.02
18.67
15.92
13.04
10.33
8.02
6.13
4.53
2.99
1.30
-0.60
-2.71
-4.87
-6.97
-8.94
-10.79
-12.51
-14.06
-15.34
-16.22
-16.67
-16.69
-16.38
-15.80
-15.05
-14.16
-13.21
-12.31
-11.57
-11.09
-10.85
-10.77
-10.73
-10.67
-10.60
-10.62
-10.81
-11.17
-11.58
-11.88
-11.90
-11.55
-10.82
-9.82
-8.75
-7.93
-7.66
-8.19
-9.51
-11.35
-13.22
-14.61
-15.21
-14.99
-14.21
-13.27
-12.54
-12.26
-12.43
-13.03
-13.94
-15.12
-16.47
-17.86
-19.12
-20.07
-20.58
-20.63
-20.29
-19.67
-18.92
-18.16
-17.45
-16.75
-15.97
-15.04
-13.93
-12.76
-11.68
-10.92
-10.60
-10.74
-11.16
-11.57
-11.68
-11.36
-10.62
-9.63
-8.61
-7.71
-6.97
-6.34
-5.68
-4.88
-3.85
-2.52
-0.82
1.29
3.74
6.38
8.98
11.37
13.47
15.34
17.07
18.73
20.23
21.39
22.05
22.14
21.76
21.10
20.36
19.62
18.82
17.83
16.55
14.98
13.26
11.60
10.14
8.95
7.94
6.92
5.74
4.31
2.71
1.11
-0.29
-1.33
-2.01
-2.43
-2.77
-3.18
-3.71
-4.25
-4.63
-4.67
-4.25
-3.35
-2.05
-0.44
1.41
3.46
5.63
7.80
9.79
11.38
12.41
12.81
12.69
12.22
11.62
11.04
10.53
9.98
9.33
8.53
7.61
6.68
5.77
4.92
4.06
3.17
2.21
1.17
-0.01
-1.37
-2.95
-4.76
-6.69
-8.56
-10.19
-11.50
-12.55
-13.50
-14.53
-15.72
-16.99
-18.13
-18.89
-19.05
-18.55
-17.54
-16.29
-15.15
-14.42
-14.25
-14.70
-15.65
-16.98
-18.52
-20.18
-21.80
-23.27
-24.42
-25.11
-25.27
-24.93
-24.25
-23.45
-22.72
-22.14
-21.68
-21.16
-20.43
-19.45
-18.28
-17.06
-15.90
-14.78
-13.59
-12.18
-10.47
-8.48
-6.40
-4.45
-2.84
-1.72
-1.10
-0.95
-1.23
-1.87
-2.76
-3.80
-4.80
-5.55
-5.88
-5.65
-4.88
-3.68
-2.24
-0.71
0.87
2.52
4.32
6.23
8.07
9.52
10.26
10.13
9.23
7.94
6.75
6.06
6.06
6.69
7.70
8.81
9.82
10.60
11.15
11.48
11.67
11.75
11.79
11.82
11.87
11.94
12.01
12.07
12.10
12.05
11.89
11.59
11.11
10.40
9.42
8.14
6.62
5.01
3.56
2.53
2.13
2.41
3.25
4.40
5.63
6.80
7.94
9.11
10.40
11.77
13.11
14.22
14.94
15.18
14.90
14.15
12.95
11.40
9.62
7.77
6.01
4.41
2.90
1.29
-0.69
-3.20
-6.22
-9.53
-12.78
-15.64
-17.88
-19.40
-20.21
-20.36
-19.93
-19.06
-17.90
-16.68
-15.59
-14.74
-14.14
-13.64
-12.97
-11.88
-10.20
-7.96
-5.30
-2.44
0.40
3.03
5.38
7.45
9.24
10.79
12.05
12.98
13.57
13.86
13.91
13.83
13.71
13.61
13.56
13.54
13.54
13.55
13.56
13.62
13.67
13.60
13.16
12.09
10.14
7.24
3.55
-0.55
-4.51
-7.77
-9.97
-10.99
-10.96
-10.19
-8.98
-7.57
-6.11
-4.68
-3.39
-2.31
-1.48
-0.78
0.03
1.33
3.40
6.34
10.01
14.04
18.01
21.54
24.29
26.01
26.52
25.77
23.91
21.26
18.30
15.46
13.05
11.20
9.86
8.98
8.60
8.84
9.92
11.94
14.90
18.58
22.70
26.95
31.06
34.89
38.29
41.11
43.19
44.34
44.48
43.62
41.91
39.59
36.89
33.91
30.56
26.63
21.82
15.93
8.93
1.00
-7.53
-16.28
-24.95
-33.29
-41.12
-48.24
-54.45
-59.49
-63.22
-65.55
-66.48
-66.03
-64.13
-60.63
-55.40
-48.49
-40.23
-31.20
-22.07
-13.46
-5.74
0.92
6.48
10.96
14.28
16.40
17.26
16.95
15.65
13.62
11.07
8.16
4.92
1.33
-2.63
-6.94
-11.43
-15.83
-19.81
-23.08
-25.48
-27.00
-27.79
-28.03
-27.93
-27.64
-27.25
-26.86
-26.54
-26.32
-26.16
-25.96
-25.50
-24.60
-23.09
-20.95
-18.20
-14.98
-11.43
-7.76
-4.20
-0.95
1.80
3.99
5.66
6.91
7.86
8.58
9.06
9.24
9.08
8.57
7.78
6.80
5.78
4.76
3.73
2.61
1.31
-0.20
-1.91
-3.72
-5.52
-7.20
-8.70
-9.99
-11.03
-11.83
-12.43
-12.93
-13.45
-14.09
-14.82
-15.51
-16.04
-16.24
-16.08
-15.60
-14.87
-13.96
-12.88
-11.66
-10.28
-8.76
-7.13
-5.53
-4.10
-2.96
-2.15
-1.66
-1.38
-1.24
-1.28
-1.65
-2.57
-4.22
-6.57
-9.39
-12.28
-14.81
-16.63
-17.58
-17.58
-16.71
-15.10
-12.88
-10.22
-7.26
-4.08
-0.72
2.74
6.20
9.44
12.17
14.08
15.02
15.01
14.26
13.10
11.85
10.74
9.90
9.31
8.87
8.45
7.94
7.35
6.82
6.56
6.85
7.91
9.77
12.32
15.33
18.51
21.65
24.64
27.45
30.09
32.58
34.91
37.07
39.06
40.85
42.42
43.68
44.58
45.04
45.00
44.41
43.23
41.41
38.87
35.61
31.71
27.37
22.85
18.40
14.16
10.19
6.47
3.04
-0.04
-2.56
-4.36
-5.34
-5.59
-5.37
-5.03
-4.84
-4.97
-5.37
-5.90
-6.41
-6.80
-7.06
-7.27
-7.57
-8.07
-8.83
-9.86
-11.11
-12.49
-13.94
-15.37
-16.69
-17.76
-18.41
-18.49
-17.90
-16.73
-15.19
-13.62
-12.30
-11.46
-11.14
-11.31
-11.83
-12.60
-13.55
-14.64
-15.82
-16.98
-17.98
-18.64
-18.82
-18.51
-17.74
-16.61
-15.22
-13.61
-11.75
-9.64
-7.33
-4.95
-2.73
-0.86
0.53
1.47
2.11
2.70
3.46
4.51
5.79
7.12
8.25
9.01
9.39
9.50
9.49
9.43
9.26
8.85
8.05
6.83
5.36
3.90
2.74
2.06
1.89
2.17
2.75
3.54
4.46
5.43
6.32
6.94
7.14
6.82
6.04
4.97
3.83
2.76
1.79
0.87
-0.12
-1.25
-2.52
-3.84
-5.11
-6.20
-7.07
-7.76
-8.34
-8.87
-9.32
-9.64
-9.68
-9.34
-8.61
-7.52
-6.20
-4.76
-3.25
-1.68
-0.06
1.56
3.07
4.31
5.19
5.73
6.06
6.34
6.76
7.40
8.21
9.10
9.91
10.53
10.86
10.92
10.71
10.25
9.48
8.30
6.67
4.62
2.38
0.26
-1.42
-2.52
-3.16
-3.62
-4.23
-5.14
-6.26
-7.31
-8.01
-8.20
-7.91
-7.29
-6.46
-5.51
-4.43
-3.26
-2.14
-1.25
-0.77
-0.75
-1.11
-1.61
-2.06
-2.29
-2.25
-1.98
-1.56
-1.10
-0.68
-0.40
-0.24
-0.19
-0.16
-0.04
0.18
0.51
0.90
1.31
1.79
2.39
3.10
3.92
4.76
5.56
6.33
7.13
7.96
8.80
9.50
9.89
9.89
9.54
9.06
8.69
8.68
9.19
10.23
11.68
13.40
15.21
16.99
18.64
20.12
21.40
22.42
23.10
23.38
23.22
22.62
21.68
20.50
19.20
17.83
16.42
14.97
13.47
11.97
10.56
9.35
8.46
7.94
7.78
7.85
8.04
8.21
8.28
8.24
8.10
7.86
7.50
6.98
6.24
5.30
4.20
3.02
1.84
0.69
-0.44
-1.54
-2.63
-3.70
-4.70
-5.60
-6.37
-6.97
-7.45
-7.81
-8.13
-8.47
-8.87
-9.31
-9.76
-10.08
-10.13
-9.82
-9.11
-8.08
-6.87
-5.68
-4.66
-3.92
-3.52
-3.44
-3.68
-4.21
-4.97
-5.83
-6.63
-7.23
-7.57
-7.75
-7.97
-8.46
-9.34
-10.58
-12.05
-13.54
-14.94
-16.20
-17.29
-18.13
-18.62
-18.60
-18.01
-16.94
-15.56
-14.16
-12.92
-11.94
-11.15
-10.39
-9.47
-8.31
-6.93
-5.46
-4.09
-2.93
-2.03
-1.30
-0.60
0.19
1.10
2.15
3.25
4.32
5.19
5.73
5.74
5.18
4.10
2.66
1.11
-0.35
-1.62
-2.70
-3.71
-4.77
-5.94
-7.23
-8.54
-9.73
-10.61
-11.04
-10.91
-10.19
-8.92
-7.20
-5.18
-3.03
-0.94
0.95
2.56
3.90
5.02
5.97
6.72
7.22
7.43
7.38
7.16
6.87
6.54
6.14
5.57
4.80
3.92
3.06
2.37
1.87
1.47
1.03
0.44
-0.32
-1.17
-2.04
-2.81
-3.48
-4.04
-4.52
-4.94
-5.34
-5.74
-6.14
-6.52
-6.75
-6.66
-6.13
-5.11
-3.67
-1.97
-0.24
1.38
2.85
4.22
5.56
6.90
8.15
9.12
9.60
9.45
8.68
7.52
6.27
5.23
4.63
4.53
4.85
5.45
6.18
6.94
7.66
8.31
8.85
9.28
9.62
9.87
10.02
10.03
9.87
9.50
8.97
8.35
7.75
7.21
6.64
5.89
4.77
3.24
1.42
-0.44
-2.03
-3.14
-3.70
-3.79
-3.47
-2.83
-1.91
-0.73
0.62
2.03
3.42
4.76
6.12
7.69
9.57
11.80
14.27
16.79
19.17
21.27
23.06
24.55
25.81
26.85
27.63
28.05
27.94
27.14
25.52
23.03
19.75
15.84
11.53
7.04
2.57
-1.75
-5.81
-9.54
-12.92
-15.99
-18.84
-21.49
-23.84
-25.68
-26.75
-26.91
-26.19
-24.87
-23.27
-21.66
-20.16
-18.70
-17.15
-15.49
-13.80
-12.26
-11.00
-10.06
-9.32
-8.63
-7.85
-6.97
-6.13
-5.48
-5.13
-5.05
-5.14
-5.30
-5.48
-5.77
-6.30
-7.18
-8.35
-9.61
-10.68
-11.30
-11.37
-10.93
-10.10
-9.04
-7.90
-6.77
-5.72
-4.79
-4.00
-3.35
-2.86
-2.52
-2.38
-2.46
-2.80
-3.37
-4.04
-4.55
-4.64
-4.11
-2.95
-1.28
0.67
2.65
4.49
6.07
7.32
8.20
8.67
8.70
8.32
7.64
6.85
6.12
5.61
5.35
5.33
5.44
5.57
5.57
5.36
4.87
4.16
3.33
2.55
1.91
1.48
1.23
1.09
1.01
0.99
1.00
1.02
0.97
0.76
0.34
-0.29
-1.08
-1.95
-2.84
-3.70
-4.51
-5.22
-5.79
-6.18
-6.39
-6.43
-6.35
-6.21
-6.12
-6.18
-6.55
-7.27
-8.28
-9.34
-10.10
-10.23
-9.58
-8.18
-6.25
-4.09
-1.90
0.20
2.22
4.17
5.99
7.55
8.71
9.44
9.84
10.14
10.56
11.24
12.11
13.02
13.74
14.09
14.05
13.66
13.04
12.29
11.45
10.51
9.46
8.31
7.15
6.07
5.16
4.45
3.91
3.43
2.88
2.20
1.36
0.42
-0.56
-1.52
-2.43
-3.28
-4.08
-4.78
-5.35
-5.74
-5.95
-6.03
-6.08
-6.23
-6.55
-7.05
-7.70
-8.41
-9.10
-9.69
-10.10
-10.31
-10.32
-10.17
-9.93
-9.65
-9.38
-9.09
-8.73
-8.23
-7.54
-6.71
-5.81
-4.96
-4.26
-3.79
-3.55
-3.52
-3.62
-3.79
-3.95
-4.02
-3.95
-3.69
-3.26
-2.73
-2.20
-1.81
-1.71
-2.01
-2.70
-3.68
-4.75
-5.68
-6.30
-6.56
-6.55
-6.42
-6.40
-6.61
-7.08
-7.69
-8.22
-8.43
-8.23
-7.71
-7.09
-6.69
-6.71
-7.18
-7.94
-8.75
-9.43
-9.92
-10.25
-10.45
-10.51
-10.33
-9.81
-8.89
-7.62
-6.01
-4.06
-1.66
1.32
4.89
8.90
12.97
16.70
19.75
21.98
23.44
24.26
24.56
24.41
23.81
22.72
21.17
19.17
16.79
14.06
11.07
8.00
5.05
2.47
0.40
-1.17
-2.37
-3.46
-4.64
-5.97
-7.34
-8.58
-9.55
-10.22
-10.71
-11.16
-11.67
-12.20
-12.68
-13.00
-13.15
-13.19
-13.19
-13.19
-13.15
-13.00
-12.77
-12.54
-12.45
-12.62
-13.06
-13.63
-14.09
-14.20
-13.79
-12.81
-11.36
-9.52
-7.41
-5.06
-2.53
0.08
2.59
4.81
6.59
7.88
8.79
9.44
9.97
10.45
10.89
11.32
11.81
12.46
13.30
14.23
15.07
15.60
15.66
15.25
14.50
13.57
12.55
11.43
10.05
8.22
5.84
2.95
-0.28
-3.56
-6.62
-9.22
-11.23
-12.61
-13.41
-13.74
-13.72
-13.52
-13.30
-13.23
-13.39
-13.84
-14.62
-15.74
-17.20
-18.91
-20.71
-22.36
-23.57
-24.04
-23.62
-22.29
-20.25
-17.79
-15.28
-13.03
-11.19
-9.80
-8.73
-7.78
-6.77
-5.57
-4.18
-2.66
-1.10
0.46
2.07
3.80
5.69
7.73
9.75
11.51
12.76
13.44
13.66
13.74
14.00
14.68
15.79
17.11
18.35
19.22
19.57
19.40
18.81
17.91
16.76
15.43
13.99
12.52
11.10
9.72
8.29
6.64
4.64
2.29
-0.18
-2.40
-3.88
-4.26
-3.39
-1.34
1.58
4.99
8.50
11.78
14.61
16.89
18.63
19.87
20.70
21.16
21.28
21.06
20.48
19.54
18.33
16.95
15.53
14.19
12.96
11.80
10.60
9.22
7.53
5.50
3.21
0.87
-1.31
-3.17
-4.62
-5.74
-6.71
-7.70
-8.80
-10.02
-11.22
-12.28
-13.13
-13.81
-14.41
-15.02
-15.61
-16.03
-16.05
-15.45
-14.14
-12.22
-9.91
-7.51
-5.30
-3.46
-2.10
-1.28
-0.97
-1.16
-1.75
-2.62
-3.56
-4.39
-4.92
-5.06
-4.84
-4.33
-3.70
-3.08
-2.56
-2.18
-1.92
-1.71
-1.47
-1.12
-0.62
-0.01
0.63
1.13
1.33
1.14
0.52
-0.45
-1.64
-2.91
-4.20
-5.51
-6.95
-8.61
-10.55
-12.72
-14.91
-16.82
-18.09
-18.42
-17.60
-15.62
-12.62
-8.87
-4.73
-0.58
3.27
6.57
9.17
11.02
12.13
12.59
12.47
11.85
10.86
9.72
8.69
8.04
7.94
8.36
9.10
9.85
10.29
10.25
9.73
8.85
7.75
6.55
5.25
3.82
2.22
0.50
-1.25
-2.85
-4.09
-4.83
-5.03
-4.80
-4.33
-3.87
-3.69
-3.98
-4.84
-6.18
-7.69
-9.00
-9.68
-9.45
-8.23
-6.20
-3.67
-0.94
1.76
4.31
6.66
8.71
10.37
11.53
12.16
12.33
12.21
11.98
11.82
11.83
12.09
12.55
13.06
13.41
13.35
12.74
11.59
10.04
8.29
6.50
4.75
3.02
1.25
-0.56
-2.34
-3.95
-5.29
-6.27
-6.97
-7.49
-8.03
-8.77
-9.85
-11.33
-13.16
-15.16
-17.05
-18.38
-18.63
-17.25
-13.82
-8.26
-0.96
7.26
15.29
22.07
26.80
29.16
29.20
27.28
23.87
19.44
14.46
9.49
5.04
1.58
-0.63
-1.59
-1.58
-1.04
-0.44
-0.12
-0.21
-0.72
-1.58
-2.76
-4.31
-6.32
-8.80
-11.63
-14.50
-17.04
-18.94
-20.02
-20.39
-20.25
-19.91
-19.54
-19.17
-18.70
-18.00
-17.04
-15.88
-14.70
-13.66
-12.79
-11.99
-10.99
-9.50
-7.39
-4.74
-1.89
0.72
2.70
3.90
4.35
4.26
3.79
2.99
1.82
0.23
-1.67
-3.51
-4.73
-4.87
-3.66
-1.28
1.76
4.77
7.13
8.54
9.03
8.86
8.33
7.65
6.87
5.96
4.89
3.67
2.36
1.01
-0.38
-1.82
-3.29
-4.75
-6.07
-7.17
-8.01
-8.68
-9.31
-10.12
-11.23
-12.65
-14.20
-15.54
-16.18
-15.61
-13.49
-9.70
-4.44
1.82
8.50
15.02
20.89
25.83
29.65
32.27
33.64
33.72
32.57
30.36
27.43
24.22
21.16
18.55
16.48
14.86
13.49
12.22
11.01
9.88
8.85
7.92
7.02
6.04
4.95
3.71
2.34
0.88
-0.63
-2.08
-3.35
-4.33
-5.04
-5.58
-6.18
-7.09
-8.47
-10.38
-12.71
-15.24
-17.70
-19.73
-20.96
-21.12
-20.03
-17.76
-14.57
-10.83
-6.91
-3.10
0.44
3.68
6.53
8.89
10.69
11.88
12.59
13.00
13.29
13.53
13.64
13.40
12.66
11.41
9.83
8.21
6.81
5.80
5.19
4.89
4.83
4.95
5.17
5.36
5.36
4.99
4.24
3.24
2.23
1.45
0.99
0.76
0.51
0.01
-0.87
-2.10
-3.56
-5.03
-6.31
-7.19
-7.38
-6.66
-4.87
-1.98
1.79
6.03
10.21
13.77
16.26
17.42
17.17
15.70
13.34
10.52
7.67
5.21
3.43
2.46
2.32
2.84
3.77
4.82
5.69
6.23
6.37
6.19
5.79
5.22
4.44
3.34
1.80
-0.26
-2.72
-5.31
-7.68
-9.48
-10.49
-10.71
-10.32
-9.62
-8.91
-8.39
-8.11
-7.99
-7.87
-7.49
-6.64
-5.10
-2.74
0.48
4.41
8.76
13.12
17.08
20.28
22.48
23.59
23.62
22.72
21.17
19.32
17.60
16.30
15.56
15.29
15.22
15.02
14.41
13.33
11.83
10.10
8.28
6.44
4.54
2.53
0.40
-1.74
-3.70
-5.32
-6.51
-7.38
-8.11
-8.94
-10.00
-11.26
-12.59
-13.86
-15.05
-16.24
-17.64
-19.36
-21.37
-23.44
-25.17
-26.11
-25.96
-24.61
-22.19
-18.97
-15.30
-11.51
-7.89
-4.70
-2.16
-0.43
0.47
0.69
0.46
0.12
-0.06
0.13
0.75
1.78
3.17
4.81
6.58
8.33
9.91
11.22
12.20
12.86
13.23
13.36
13.26
12.98
12.53
12.00
11.46
11.00
10.68
10.54
10.62
10.97
11.60
12.46
13.40
14.22
14.63
14.48
13.68
12.43
11.06
10.03
9.76
10.42
11.98
14.11
16.35
18.30
19.67
20.38
20.38
19.71
18.36
16.37
13.88
11.14
8.48
6.20
4.48
3.30
2.52
1.99
1.58
1.21
0.81
0.30
-0.39
-1.27
-2.20
-2.99
-3.43
-3.50
-3.30
-3.10
-3.10
-3.38
-3.84
-4.24
-4.38
-4.10
-3.39
-2.29
-0.90
0.66
2.22
3.58
4.58
5.18
5.59
6.15
7.28
9.25
12.09
15.57
19.22
22.56
25.12
26.61
26.92
26.09
24.30
21.86
19.11
16.33
13.73
11.34
9.05
6.62
3.85
0.59
-3.13
-7.13
-11.13
-14.80
-17.90
-20.30
-22.04
-23.28
-24.23
-25.04
-25.78
-26.41
-26.87
-27.04
-26.91
-26.48
-25.83
-25.04
-24.20
-23.44
-22.93
-22.80
-23.19
-24.06
-25.18
-26.18
-26.62
-26.21
-24.94
-23.09
-21.09
-19.38
-18.19
-17.55
-17.36
-17.48
-17.75
-18.01
-17.96
-17.24
-15.56
-12.80
-9.16
-5.13
-1.31
1.80
3.97
5.32
6.07
6.44
6.45
5.93
4.63
2.44
-0.45
-3.52
-6.01
-7.24
-6.83
-4.83
-1.70
1.77
4.83
6.88
7.79
8.05
8.68
11.17
16.99
27.15
41.62
59.11
77.09
92.36
101.85
103.46
96.62
82.33
62.66
40.11
16.97
-5.07
-24.81
-41.33
-53.88
-61.90
-65.25
-64.45
-60.56
-54.86
-48.43
-41.87
-35.30
-28.74
-22.46
-17.20
-14.09
-14.07
-17.52
-23.92
-31.96
-39.97
-46.54
-50.88
-52.97
-53.39
-52.85
-51.92
-50.78
-49.37
-47.53
-45.17
-42.36
-39.20
-35.73
-31.86
-27.39
-22.21
-16.46
-10.48
-4.81
0.09
4.00
