1565877929.00
64.000000
-0.00
-0.00
-0.00
-0.00
-0.00
-0.00
-0.00
-0.00
-0.00
-0.00
0.00
0.01
0.01
-0.00
-0.03
-0.05
-0.05
0.00
0.13
0.36
0.66
1.01
1.37
1.72
2.06
2.40
2.79
3.24
3.80
4.42
5.07
5.69
6.25
6.76
7.30
7.93
8.70
9.73
10.92
12.16
13.35
14.43
15.44
16.55
17.98
19.86
22.42
25.46
28.73
31.92
34.86
37.65
40.59
44.15
48.63
54.44
61.22
68.46
75.57
82.22
88.49
94.90
102.16
110.84
121.50
133.63
146.45
159.05
170.90
182.05
193.17
205.65
218.22
233.17
251.13
272.18
295.09
316.95
333.47
340.03
333.33
312.54
280.06
239.75
195.90
151.70
108.68
67.10
26.86
-11.73
-47.90
-80.34
-108.43
-131.93
-151.26
-166.83
-178.72
-186.70
-190.35
-189.65
-184.88
-177.17
-167.89
-158.44
-149.78
-142.33
-136.00
-130.06
-124.00
-117.54
-110.90
-104.51
-98.79
-93.91
-89.76
-85.99
-82.28
-78.52
-74.83
-71.58
-69.09
-67.54
-66.78
-66.45
-66.16
-65.70
-65.26
-65.29
-66.31
-68.59
-72.01
-75.96
-79.65
-82.51
-84.50
-86.26
-88.86
-93.36
-100.26
-109.26
-119.33
-129.17
-137.87
-145.30
-152.25
-159.95
-169.64
-182.05
-197.26
-214.71
-233.17
-250.85
-265.30
-273.71
-273.55
-263.51
-244.26
-218.65
-190.81
-164.85
-143.33
-126.63
-113.24
-100.98
-88.30
-75.05
-62.23
-51.13
-42.11
-34.26
-25.79
-15.29
-2.86
9.48
18.51
21.65
18.62
12.15
6.99
7.63
15.90
29.81
44.42
54.28
56.25
51.06
42.73
36.26
34.89
38.42
43.75
46.83
45.35
40.08
34.34
31.87
34.41
40.44
45.97
46.73
40.75
29.65
17.81
10.00
8.80
13.32
19.89
24.09
23.23
17.56
9.74
3.20
0.05
0.04
0.94
0.01
-4.21
-10.94
-17.60
-21.25
-20.43
-16.25
-11.81
-10.73
-15.02
-23.78
-33.54
-39.91
-39.92
-33.56
-23.66
-14.35
-8.77
-7.43
-8.33
-8.34
-5.35
0.45
6.64
10.08
8.87
3.61
-2.87
-7.01
-6.53
-1.70
4.94
9.93
10.97
8.07
3.54
0.46
0.89
4.61
9.33
12.11
11.35
7.94
4.89
5.76
12.39
23.64
35.82
44.52
46.94
43.53
37.68
33.91
35.35
42.11
51.32
58.93
62.07
60.76
57.89
57.36
61.74
70.60
80.58
87.21
87.48
81.51
72.68
65.70
64.12
68.47
75.97
82.28
83.99
80.41
73.77
67.74
65.11
66.05
68.19
68.10
63.56
55.08
45.78
39.81
39.90
45.87
54.45
60.98
61.82
56.04
45.95
35.69
29.12
27.95
31.06
35.47
38.11
37.48
34.26
30.67
28.83
29.42
31.02
30.91
26.82
18.66
9.20
3.22
5.21
16.90
36.11
57.49
74.96
84.39
85.21
79.88
71.87
63.54
54.94
44.60
31.32
15.77
0.73
-10.30
-14.98
-13.52
-8.51
-3.41
-0.65
-0.33
-0.48
1.58
7.24
15.34
22.49
24.94
20.84
12.30
5.20
7.16
23.86
55.59
95.42
130.41
145.95
131.47
85.47
17.28
-55.67
-114.38
-145.73
-147.31
-127.57
-100.94
-81.09
-75.31
-83.49
-100.82
-122.09
-144.76
-168.59
-192.92
-214.02
-225.07
-219.56
-196.07
-160.99
-126.98
-107.77
-111.51
-136.80
-173.33
-206.71
-224.65
-221.43
-198.83
-163.25
-121.92
-80.04
-40.41
-4.62
25.24
46.31
56.22
54.95
46.05
35.97
32.01
39.04
57.24
82.01
105.77
121.47
125.69
119.66
108.25
97.09
89.83
87.13
87.17
87.44
85.96
81.82
75.21
67.10
58.57
49.99
40.27
26.82
6.62
-21.66
-55.96
-90.61
-118.40
-133.88
-136.25
-129.32
-119.23
-110.60
-103.76
-94.68
-77.37
-47.23
-3.48
50.48
108.36
162.83
207.53
238.45
254.31
256.49
247.80
231.64
211.08
188.64
166.41
146.17
129.18
115.52
103.33
88.67
66.30
31.80
-15.82
-72.23
-127.68
-169.35
-186.01
-172.28
-131.26
-73.53
-13.38
36.18
67.06
77.23
69.29
48.09
18.77
-13.93
-45.42
-71.11
-87.05
-90.99
-83.24
-66.65
-45.67
-24.81
-7.34
5.15
12.54
15.58
15.39
13.24
10.47
8.32
7.73
9.04
11.94
15.65
19.31
22.51
25.44
28.70
32.88
38.19
44.13
49.80
54.30
57.29
59.27
61.44
65.18
71.40
80.17
90.73
102.06
113.40
124.55
135.72
146.94
157.46
165.86
170.56
170.59
165.97
157.69
146.87
134.01
118.67
99.53
74.77
42.38
0.72
-50.69
-110.19
-173.39
-233.56
-283.34
-317.27
-333.82
-335.84
-329.05
-319.50
-311.36
-306.01
-302.83
-300.54
-298.00
-294.14
-286.83
-272.08
-244.36
-198.62
-133.14
-51.88
35.39
115.28
175.21
207.68
212.63
196.73
170.28
143.33
122.87
111.99
110.71
117.28
129.30
144.07
158.82
170.83
177.80
177.96
169.81
151.67
121.85
79.78
27.47
-29.44
-82.23
-121.55
-140.38
-136.41
-112.64
-76.00
-34.94
2.87
32.33
51.41
60.88
63.47
62.77
62.16
63.84
68.20
73.62
77.39
77.00
71.29
60.97
48.10
35.04
23.34
13.23
4.10
-4.62
-12.53
-18.05
-19.16
-14.74
-5.47
6.26
17.38
25.62
30.28
31.92
31.20
27.78
20.18
6.97
-11.42
-31.66
-47.89
-53.94
-46.16
-25.31
3.46
32.61
55.63
69.84
77.32
83.39
93.37
109.26
128.32
144.12
149.68
140.80
118.05
86.32
52.38
21.87
-2.70
-22.20
-39.46
-57.56
-78.99
-105.73
-139.54
-181.47
-230.62
-282.94
-331.23
-367.06
-383.72
-378.88
-355.39
-319.81
-279.55
-240.24
-204.47
-172.08
-141.37
-110.26
-77.13
-41.26
-3.29
34.59
68.87
95.61
112.01
117.53
114.03
105.00
94.15
84.23
76.63
71.72
69.39
69.26
70.54
71.70
70.70
65.85
56.80
45.21
34.45
28.27
29.00
36.10
46.13
54.00
55.38
48.90
36.96
24.80
17.89
19.21
27.73
38.87
46.80
47.35
40.02
27.92
15.91
7.91
5.06
5.73
7.04
6.95
5.55
4.60
6.00
10.13
15.16
17.99
16.11
9.30
0.17
-7.05
-8.57
-3.12
7.29
18.31
25.36
25.94
20.73
13.06
7.02
5.09
6.90
9.66
9.92
5.74
-1.94
-9.97
-14.69
-14.11
-9.11
-2.91
0.78
-0.06
-4.56
-9.45
-10.99
-7.18
1.04
10.19
16.23
16.77
12.32
5.94
1.34
0.72
3.51
6.80
7.10
2.58
-5.64
-13.98
-18.29
-16.17
-8.38
1.61
9.32
11.66
8.45
2.20
-3.43
-5.75
-4.58
-1.99
-0.92
-3.18
-8.16
-13.11
-14.79
-11.33
-3.48
5.64
12.25
13.86
10.49
4.54
-0.75
-3.12
-2.43
-0.46
0.29
-1.69
-5.96
-10.35
-12.10
-9.50
-2.97
5.13
11.64
14.27
12.82
9.18
6.18
5.84
8.07
10.74
10.89
6.68
-1.27
-9.92
-15.33
-14.84
-8.62
0.30
7.63
10.07
7.00
0.66
-5.24
-7.76
-6.38
-3.21
-1.66
-4.23
-10.80
-18.56
-23.44
-22.42
-15.26
-4.71
4.99
10.38
10.62
7.74
5.30
6.12
10.66
16.63
20.41
19.26
12.91
3.86
-3.97
-7.41
-5.84
-1.48
1.99
1.53
-3.26
-9.93
-14.49
-13.77
-7.34
2.15
10.41
13.90
11.82
6.38
1.35
-0.31
1.78
5.21
6.20
1.90
-7.86
-20.29
-30.95
-35.98
-33.99
-26.74
-18.23
-12.55
-12.00
-16.03
-21.87
-26.33
-27.71
-26.80
-26.05
-27.76
-32.14
-36.74
-37.69
-32.16
-20.35
-5.88
5.92
10.77
7.51
-1.74
-13.25
-24.23
-34.20
-44.44
-55.96
-67.38
-74.45
-71.90
-56.69
-31.18
-3.77
13.79
11.45
-14.11
-57.41
-106.10
-146.44
-169.23
-173.41
-165.24
-154.03
-146.83
-145.02
-144.52
-138.87
-123.06
-95.97
-60.78
-23.54
8.86
30.46
38.12
32.72
19.42
6.41
2.16
11.86
34.82
64.33
90.30
103.53
99.40
79.53
50.74
22.27
2.58
-3.17
5.63
25.09
48.03
66.21
73.20
66.58
48.77
25.86
5.11
-7.74
-10.14
-2.58
12.65
33.10
56.92
82.50
107.71
129.54
144.45
149.78
145.04
132.53
116.76
102.66
93.63
90.26
90.27
89.72
84.96
74.43
59.40
43.43
30.66
23.99
23.83
27.97
32.71
34.59
31.87
25.09
16.44
8.43
2.66
-0.80
-3.07
-5.54
-8.88
-12.63
-15.44
-15.85
-13.14
-7.79
-1.41
3.94
6.58
6.00
3.05
-0.43
-2.57
-2.36
-0.21
2.35
3.54
2.43
-0.52
-3.66
-5.19
-4.20
-1.21
2.06
3.80
3.15
0.68
-2.00
-3.17
-2.05
0.84
4.02
5.99
6.05
4.59
2.76
1.69
1.85
2.78
3.45
2.90
0.94
-1.69
-3.66
-3.75
-1.51
2.36
6.39
8.93
8.99
6.63
2.91
-0.74
-3.10
-3.76
-3.11
-2.06
-1.41
-1.46
-1.92
-2.22
-2.04
-1.60
-1.61
-2.81
-5.36
-8.63
-11.30
-12.06
-10.27
-6.35
-1.56
2.63
5.27
6.34
6.52
6.73
7.39
8.22
8.39
7.09
4.13
0.21
-3.30
-5.08
-4.53
-2.25
0.33
1.71
1.15
-0.80
-2.62
-2.60
0.13
5.21
11.17
16.37
19.76
21.33
21.78
21.86
21.68
20.53
17.27
11.03
1.94
-8.77
-19.10
-27.07
-31.54
-32.58
-31.32
-29.25
-27.37
-25.69
-23.36
-19.34
-13.23
-5.75
1.52
6.92
9.64
10.17
10.03
10.94
13.83
18.39
23.22
26.59
27.21
24.74
19.80
13.49
6.93
0.98
-3.78
-6.70
-6.87
-3.16
5.39
18.86
36.18
55.18
73.27
88.24
98.96
105.37
107.95
107.04
102.34
93.17
79.07
60.67
39.96
20.00
4.01
-5.87
-9.53
-9.10
-8.24
-10.64
-18.44
-31.26
-46.43
-60.35
-70.24
-75.31
-76.79
-76.69
-76.21
-74.77
-70.42
-61.37
-47.63
-31.95
-19.08
-13.73
-18.42
-32.01
-50.00
-66.18
-74.91
-72.86
-59.72
-37.63
-10.10
19.21
47.29
72.16
92.96
109.78
123.45
135.06
145.33
154.24
160.64
162.35
156.41
139.92
111.28
71.56
25.27
-20.17
-56.42
-77.13
-80.30
-69.07
-50.31
-31.75
-19.29
-15.50
-19.95
-30.59
-45.06
-61.15
-76.46
-88.13
-92.99
-88.71
-74.97
-54.17
-31.11
-11.84
-1.68
-3.67
-17.50
-39.65
-64.51
-86.00
-99.31
-102.12
-94.97
-80.66
-63.12
-46.12
-32.23
-22.45
-16.43
-12.92
-10.48
-7.88
-4.37
0.13
5.02
9.07
10.58
7.76
-0.70
-15.04
-33.89
-54.27
-72.03
-82.90
-83.62
-73.11
-52.68
-25.76
3.40
31.18
55.71
76.96
96.00
113.78
130.18
143.82
152.59
154.70
149.48
137.64
120.95
101.77
82.47
65.03
51.06
41.56
36.68
35.56
36.03
34.47
26.01
5.60
-30.23
-81.18
-141.90
-202.60
-251.78
-280.07
-283.29
-263.56
-227.73
-184.44
-141.19
-102.71
-71.07
-46.64
-29.12
-18.02
-12.56
-11.52
-13.45
-16.91
-20.86
-24.46
-26.76
-26.49
-21.92
-11.25
6.73
31.94
62.40
94.20
122.03
140.45
145.28
134.86
110.53
76.44
38.54
3.38
-23.13
-36.72
-35.39
-19.87
6.34
37.34
65.76
84.21
86.99
71.52
39.00
-5.78
-55.58
-102.20
-138.23
-158.47
-161.12
-148.15
-124.77
-97.77
-73.08
-53.48
-37.57
-20.59
3.01
36.31
77.66
120.47
155.50
174.37
172.90
152.53
119.41
81.81
47.24
20.47
3.35
-4.49
-4.28
2.36
13.04
24.16
31.29
30.64
21.19
5.72
-9.86
-18.96
-17.34
-4.88
14.68
35.71
53.14
64.06
67.86
65.32
57.64
46.07
32.09
17.66
5.01
-4.17
-9.58
-12.57
-15.60
-21.07
-30.09
-41.78
-53.42
-61.61
-63.75
-59.23
-49.78
-38.64
-29.08
-23.02
-20.40
-19.74
-19.39
-18.75
-18.72
-21.22
-27.94
-39.25
-53.76
-68.83
-81.71
-90.66
-95.47
-97.11
-96.82
-95.11
-91.30
-83.74
-70.64
-50.94
-24.91
5.75
38.28
69.19
94.65
110.72
114.11
102.98
78.10
43.29
4.98
-28.96
-50.92
-54.97
-37.98
-0.46
52.90
113.51
170.49
213.53
236.22
238.26
225.20
205.80
187.87
175.02
165.87
155.75
139.42
113.51
77.52
33.85
-12.68
-55.55
-87.89
-104.44
-103.92
-90.22
-71.17
-55.57
-49.33
-53.19
-63.11
-72.97
-77.92
-76.59
-70.99
-64.74
-60.70
-59.66
-60.27
-60.18
-57.42
-51.32
-42.93
-34.34
-27.71
-24.22
-23.48
-23.64
-22.55
-18.89
-12.96
-6.50
-1.55
0.78
0.87
0.18
0.21
1.45
3.22
4.24
3.70
1.93
0.19
-0.18
1.43
4.63
8.35
11.37
12.60
10.97
5.46
-4.38
-17.66
-31.51
-41.52
-43.45
-35.21
-18.20
3.10
23.06
37.24
44.04
44.79
42.48
40.04
38.97
39.11
39.24
38.06
35.00
30.19
24.01
16.54
7.46
-3.20
-14.10
-22.16
-23.65
-16.28
-1.53
14.94
25.32
23.52
8.66
-13.89
-34.95
-46.06
-43.70
-31.17
-16.98
-10.96
-19.89
-44.77
-80.69
-118.86
-150.00
-167.20
-167.38
-151.27
-122.79
-88.08
-54.55
-29.43
-17.80
-20.45
-32.95
-46.93
-53.47
-47.03
-27.66
-0.30
28.38
53.38
72.87
87.23
96.85
100.91
98.00
87.91
72.81
56.50
42.32
31.40
22.88
15.64
10.03
8.35
13.04
24.08
37.73
47.71
48.36
37.92
19.79
0.83
-12.20
-16.02
-12.07
-4.92
0.80
3.23
4.02
6.70
13.82
24.76
35.46
40.36
35.49
20.88
1.00
-17.24
-27.70
-27.86
-19.68
-8.23
1.07
5.22
4.70
2.63
2.53
6.15
12.49
18.61
21.50
19.85
14.71
8.65
4.09
1.79
0.58
-1.62
-6.07
-11.92
-16.24
-15.59
-8.17
4.72
18.80
28.75
30.80
24.70
13.76
3.10
-2.97
-2.93
1.57
7.06
10.31
9.93
6.73
2.91
0.55
0.62
2.61
5.09
6.73
7.08
6.99
8.17
12.20
19.36
27.88
34.24
34.43
25.96
9.37
-11.42
-30.35
-41.44
-41.11
-29.60
-10.86
8.83
22.93
26.70
18.57
0.28
-23.85
-48.42
-68.29
-79.64
-80.39
-70.47
-52.05
-29.45
-8.76
3.45
2.13
-14.26
-42.74
-76.52
-107.29
-128.11
-135.73
-131.22
-118.67
-102.75
-86.59
-70.97
-55.40
-40.07
-27.02
-19.24
-18.19
-21.18
-20.98
-8.42
23.17
74.14
138.26
205.08
265.70
316.42
359.16
398.38
436.96
473.53
502.77
518.23
515.48
494.05
456.90
408.58
353.27
293.77
231.57
167.63
103.34
40.95
-16.71
-67.02
-108.32
-140.44
-164.59
-182.75
-196.86
-208.15
-216.91
-222.72
-225.02
-223.61
-218.96
-212.10
-204.27
-196.43
-189.03
-181.96
-174.76
-166.97
-158.38
-149.14
-139.66
-130.42
-121.78
-113.83
-106.46
-99.44
-92.59
-85.81
-79.14
-72.69
-66.56
-60.84
-55.54
-50.61
-46.00
-41.69
-37.66
-33.90
-30.41
-27.21
-24.28
-21.64
-19.26
-17.09
-15.13
-13.40
-11.87
-10.54
-9.36
-8.33
-7.43
-6.63
-5.91
-5.28
-4.71
-4.20
-3.73
-3.30
-2.91
-2.54
-2.19
-1.85
-1.49
-1.15
-0.85
-0.62
-0.48
-0.42
-0.37
-0.25
0.03
0.48
1.06
1.66
2.16
2.53
2.73
2.89
3.16
3.64
4.39
5.32
6.30
7.11
7.69
8.02
8.33
8.91
10.02
11.73
13.85
15.95
17.57
18.43
18.58
18.53
19.04
20.75
23.85
27.89
31.86
34.69
35.74
35.08
33.69
33.02
34.15
37.23
41.09
43.64
42.69
36.93
26.41
12.88
-1.07
-13.31
-22.93
-30.71
-38.64
-48.48
-60.71
-75.61
-92.32
-109.37
-124.39
-133.75
-133.00
-118.62
-90.90
-54.76
-20.15
1.88
4.06
-13.48
-43.17
-73.67
-95.41
-103.79
-100.12
-89.24
-75.56
-60.88
-44.51
-25.36
-3.59
17.85
35.54
46.89
51.58
51.64
50.18
50.05
52.50
56.74
60.75
62.48
60.77
55.87
49.40
43.49
39.90
39.22
40.79
42.99
44.21
43.40
40.42
36.14
31.93
29.10
28.28
29.27
31.09
32.53
32.53
30.57
26.94
22.47
18.11
14.43
11.28
7.69
2.27
-6.35
-18.95
-35.11
-53.49
-72.03
-88.84
-102.65
-113.09
-120.46
-125.25
-127.93
-128.73
-128.02
-125.75
-121.11
-111.97
-95.20
-68.03
-29.64
16.30
63.27
103.75
132.34
147.56
151.79
149.32
144.02
137.73
130.17
121.34
110.40
98.37
86.84
76.99
68.68
60.79
51.88
40.88
28.05
14.56
2.28
-7.57
-14.11
-17.93
-20.42
-23.13
-26.97
-31.76
-36.37
-39.14
-38.76
-34.80
-28.09
-20.37
-13.62
-9.24
-7.47
-7.48
-7.68
-6.69
-3.78
0.53
4.94
8.16
9.57
9.68
9.97
12.33
18.10
27.89
41.36
57.48
74.48
89.67
99.59
100.67
90.63
69.60
40.84
9.62
-18.85
-41.28
-57.15
-68.02
-75.92
-82.16
-86.97
-89.86
-90.98
-91.53
-93.42
-98.54
-107.95
-121.19
-134.73
-145.33
-148.28
-139.70
-118.64
-88.10
-54.47
-25.07
-5.28
3.53
3.69
-0.30
-4.55
-7.37
-9.19
-11.19
-13.84
-16.29
-16.91
-14.84
-10.18
-4.10
1.87
6.63
10.11
13.00
16.26
20.65
25.97
31.65
37.06
41.98
46.74
52.02
58.51
66.34
75.17
84.03
92.00
98.74
104.54
110.05
116.13
123.77
132.61
143.70
156.10
166.55
170.14
161.91
139.56
105.02
64.70
26.93
-1.41
-17.92
-24.90
-27.15
-29.29
-33.55
-39.66
-45.77
-50.40
-53.29
-55.67
-59.06
-63.92
-69.96
-76.16
-81.35
-84.77
-86.54
-87.89
-90.67
-96.56
-105.78
-117.69
-129.32
-139.67
-148.23
-155.14
-160.44
-162.59
-159.76
-146.21
-118.08
-75.12
-21.29
36.90
93.06
142.90
184.28
214.25
231.01
231.57
214.09
180.52
137.99
96.91
66.17
49.49
44.01
43.20
40.11
30.88
15.61
-3.30
-22.87
-40.87
-55.60
-65.41
-68.38
-64.39
-55.74
-45.95
-40.81
-42.93
-50.52
-58.38
-61.06
-56.06
-45.57
-34.76
-28.36
-27.91
-30.83
-32.82
-30.87
-25.23
-18.84
-15.31
-16.67
-22.04
-28.56
-33.02
-34.00
-32.46
-30.82
-31.44
-35.30
-41.71
-48.84
-54.94
-58.68
-60.19
-60.51
-60.96
-62.28
-64.36
-65.96
-65.40
-61.41
-53.28
-41.31
-26.58
-10.35
6.47
23.51
40.88
58.61
75.64
91.23
104.13
113.11
117.61
118.07
115.93
112.98
111.15
110.66
111.04
111.05
109.58
106.11
101.10
95.72
91.34
89.04
89.43
92.94
99.17
106.39
111.25
109.39
97.01
72.97
40.11
4.55
-26.35
-47.23
-56.71
-57.27
-53.26
-48.40
-44.07
-39.60
-33.69
-25.91
-17.47
-10.47
-6.60
-5.99
-7.26
-8.08
-6.30
-1.27
6.08
13.33
17.65
16.97
10.81
0.51
-11.36
-22.10
-30.16
-35.72
-40.43
-46.45
-55.33
-66.55
-79.18
-91.68
-102.72
-111.23
-115.53
-113.31
-102.42
-82.62
-57.42
-32.87
-16.05
-11.46
-18.87
-32.78
-45.71
-51.76
-48.72
-38.27
-23.84
-8.34
7.54
23.15
37.94
49.98
56.53
55.79
48.27
36.65
24.30
14.30
7.51
2.78
-2.26
-10.06
-21.89
-37.67
-55.86
-73.92
-88.14
-94.82
-90.75
-74.02
-47.41
-15.90
14.37
40.09
60.43
77.61
94.76
113.61
132.06
145.87
149.51
139.86
118.54
90.27
63.15
42.78
30.55
23.91
18.35
10.78
0.54
-10.65
-21.00
-30.00
-39.33
-51.80
-69.84
-94.29
-122.59
-151.37
-175.01
-187.66
-185.03
-166.73
-136.70
-102.25
-71.45
-49.85
-38.79
-35.23
-34.37
-32.17
-27.21
-20.53
-13.54
-6.81
0.56
10.17
23.24
39.34
56.58
72.28
84.09
91.06
93.54
92.73
89.81
85.49
79.49
70.94
59.07
43.79
26.07
7.50
-10.09
-25.35
-37.46
-46.45
-52.85
-57.16
-59.50
-59.55
-57.11
-52.26
-45.72
-38.37
-31.56
-26.48
-23.45
-21.84
-20.30
-17.60
-12.81
-5.70
3.53
13.66
23.26
31.85
40.40
51.73
69.94
100.67
144.81
201.40
264.44
323.25
366.00
383.57
373.19
338.75
290.24
239.28
194.32
157.10
123.40
87.17
42.83
-12.55
-79.90
-156.17
-234.93
-307.39
-364.21
-398.32
-406.54
-393.22
-362.97
-331.88
-319.42
-336.29
-377.17
-423.69
-462.22
-481.54
-477.98
-454.60
-419.23
-379.03
-335.16
-290.43
-247.01
-207.09
-171.42
-140.27
-112.87
-88.14
-63.71
-37.05
-8.00
22.70
52.24
78.03
97.98
111.91
121.50
130.93
145.57
169.03
204.16
248.43
294.19
330.88
350.36
351.31
340.56
329.51
327.86
343.39
375.47
415.89
452.80
476.97
485.55
481.89
472.14
461.66
459.43
472.02
502.28
548.54
606.00
668.17
727.05
773.30
764.37
675.04
508.51
298.33
89.33
-85.03
-211.72
-293.95
-342.53
-369.05
-377.06
-368.34
-346.08
-318.36
-294.20
-279.88
-277.33
-285.12
-300.91
-318.75
-333.17
-342.03
-347.11
-351.72
-358.20
-367.30
-378.17
-388.40
-391.00
-378.46
-346.83
-298.84
-243.45
-192.17
-153.81
-130.47
-117.32
-104.74
-85.19
-58.01
-29.35
-7.53
2.26
0.67
-7.01
-14.86
-19.22
-20.13
-20.03
-21.06
-22.92
-23.28
-19.63
-10.77
2.05
15.52
25.95
30.39
28.38
22.09
15.45
12.81
17.29
29.24
45.71
61.28
69.44
65.90
50.95
30.02
11.82
4.91
13.99
38.24
71.85
105.19
127.87
131.59
112.24
71.10
14.99
-45.24
-98.96
-134.36
-144.55
-130.30
-99.52
-63.69
-33.47
-15.51
-11.37
-18.65
-32.80
-49.44
-64.85
-75.98
-80.28
-75.75
-61.44
-37.54
-5.24
33.74
76.91
121.56
165.01
204.81
238.65
263.96
277.77
277.19
260.66
229.06
186.38
138.82
92.75
52.29
18.07
-11.90
-39.93
-66.40
-89.20
-104.96
-111.30
-108.47
-99.44
-88.17
-77.30
-66.84
-54.47
-37.37
-14.02
14.78
46.19
76.34
101.49
119.12
128.52
130.95
129.26
127.07
127.25
130.69
135.94
140.12
140.94
138.53
135.82
136.71
143.61
155.17
166.07
169.27
159.41
135.51
101.59
65.26
34.69
16.97
16.57
34.21
66.32
105.25
140.91
163.69
167.62
150.86
116.59
71.06
20.50
-31.12
-82.86
-135.47
-189.43
-243.72
-297.92
-350.79
-400.00
-442.67
-475.82
-497.46
-507.64
-508.82
-505.34
-504.58
-512.23
-529.25
-552.16
-575.56
-595.65
-612.51
-629.33
-631.06
-606.13
-547.40
-454.70
-335.10
-199.76
-61.13
68.65
179.44
264.62
321.78
353.41
364.26
360.35
348.38
334.39
322.74
315.98
314.42
313.89
301.72
268.10
207.76
122.86
23.95
-72.58
-149.11
-192.59
-200.06
-177.88
-137.22
-89.93
-44.65
-5.56
26.70
53.16
75.24
93.52
108.61
122.70
139.00
160.52
188.17
219.35
248.13
267.49
272.48
263.12
245.49
228.90
221.71
227.33
242.73
260.24
271.41
270.66
257.01
233.51
204.81
174.95
146.44
120.63
98.56
81.01
68.20
59.06
51.26
41.78
28.47
11.56
-5.89
-18.89
-22.86
-15.81
0.45
20.75
38.34
47.27
44.14
28.66
3.19
-27.88
-58.88
-83.79
-97.73
-98.31
-86.52
-66.42
-43.22
-20.69
0.57
23.17
50.80
85.25
124.64
163.60
195.87
217.63
229.31
234.74
238.42
242.37
244.67
240.85
226.48
199.87
163.15
120.85
77.12
33.59
-10.74
-57.68
-107.02
-155.24
-196.37
-224.81
-238.50
-240.22
-236.68
-235.68
-242.95
-259.78
-283.15
-307.63
-328.11
-342.06
-350.22
-355.64
-361.59
-369.66
-378.79
-385.97
-387.63
-381.58
-368.17
-349.81
-329.57
-309.34
-288.89
-266.42
-240.40
-211.22
-181.67
-156.14
-138.27
-129.09
-126.26
-124.92
-119.66
-106.73
-84.91
-55.36
-20.40
18.01
59.03
102.98
150.44
201.25
253.78
304.96
351.07
388.82
416.33
433.25
440.29
438.29
427.64
408.09
379.10
340.59
293.39
239.59
182.45
125.92
73.95
29.61
-5.66
-32.20
-51.89
-67.10
-79.66
-90.33
-99.06
-105.65
-110.50
-114.64
-119.07
-124.02
-128.25
-129.46
-125.12
-113.75
-95.53
-72.33
-46.88
-21.72
1.58
22.58
41.61
59.24
75.97
92.01
107.36
121.58
133.71
142.09
144.83
140.32
128.00
108.78
84.77
58.67
32.95
9.32
-11.45
-29.35
-44.87
-58.68
-71.25
-82.72
-92.68
-100.31
-104.71
-105.33
-102.23
-96.16
-88.39
-80.35
-73.21
-67.62
-63.55
-60.26
-56.61
-51.60
-44.70
-36.14
-26.63
-17.00
-7.82
0.56
7.69
12.92
15.46
14.98
12.00
7.94
4.44
2.66
2.67
3.62
4.41
4.39
3.63
2.77
2.75
4.61
9.56
18.98
34.06
55.19
81.44
110.58
139.78
166.85
190.94
212.47
232.27
250.32
265.05
273.74
273.78
264.15
246.25
223.51
199.98
178.68
160.74
145.69
132.55
120.96
111.35
104.30
99.33
94.37
86.42
73.01
53.86
31.25
9.21
-8.36
-19.28
-23.75
-23.64
-21.24
-18.10
-14.71
-10.98
-6.86
-2.70
0.89
3.46
5.23
7.05
10.10
15.23
22.59
31.49
40.66
48.83
55.38
60.48
64.83
68.79
71.55
70.86
63.59
46.80
18.97
-19.20
-64.77
-113.03
-158.64
-196.63
-223.41
-237.38
-239.15
-231.37
-217.93
-202.89
-189.42
-179.11
-172.18
-168.34
-167.63
-170.78
-178.82
-192.13
-209.80
-229.49
-248.27
-263.50
-273.25
-276.31
-271.58
-257.80
-233.98
-200.18
-157.92
-109.96
-59.36
-8.80
39.21
81.35
112.61
127.02
120.07
91.98
48.93
1.47
-39.23
-65.68
-75.96
-72.81
-61.01
-45.29
-29.22
-16.75
-12.72
-21.59
-44.60
-77.10
-108.84
-127.61
-124.46
-96.53
-48.56
9.94
68.85
120.80
162.62
194.37
217.43
233.03
243.25
250.12
255.80
262.47
272.11
286.48
306.64
332.03
350.84
351.57
326.63
277.19
212.84
145.88
85.36
34.56
-7.77
-44.51
-76.12
-101.15
-117.38
-123.85
-122.03
-115.02
-105.90
-96.73
-88.53
-80.79
-73.02
-65.34
-58.60
-53.88
-52.02
-53.26
-57.59
-65.15
-75.84
-89.75
-105.72
-122.72
-140.38
-158.58
-177.09
-194.81
-208.96
-214.82
-207.43
-186.34
-151.06
-105.49
-56.22
-9.70
30.07
62.19
87.47
105.83
115.29
113.24
98.30
72.80
43.03
17.09
1.47
-1.57
4.99
14.91
22.29
23.95
20.53
15.68
13.42
16.98
27.79
44.29
62.09
75.59
79.12
68.80
44.27
9.53
-28.65
-59.66
-74.24
-69.55
-49.59
-22.87
1.47
16.89
19.70
7.53
-19.81
-59.31
-104.24
-144.16
-167.32
-165.93
-139.67
-95.22
-42.00
12.86
65.61
114.16
157.99
195.74
224.39
241.04
245.24
239.60
228.36
220.02
215.35
213.34
213.09
214.34
217.37
222.14
227.40
230.70
225.33
206.50
173.26
128.24
76.53
24.17
-23.65
-63.70
-95.10
-119.19
-138.59
-155.78
-172.79
-190.89
-210.12
-229.06
-245.29
-256.23
-260.44
-258.53
-252.64
-245.58
-239.38
-234.11
-227.82
-217.69
-201.47
-178.65
-150.77
-120.92
-92.96
-70.54
-55.75
-48.31
-45.45
-42.89
-36.76
-25.28
-9.76
6.09
18.05
23.54
22.68
17.74
11.74
6.90
4.20
3.82
5.91
11.00
19.86
32.57
48.03
63.96
77.47
86.17
89.07
86.95
81.97
76.70
72.96
71.17
70.42
69.10
65.94
60.68
54.16
47.74
42.55
38.83
35.95
32.92
28.95
24.02
18.66
13.57
9.18
5.47
2.22
-0.79
-3.43
-5.44
-6.56
-6.87
-6.80
-7.01
-8.08
-10.29
-13.57
-17.52
-21.77
-26.13
-30.77
-35.92
-41.39
-46.26
-48.83
-47.20
-40.08
-27.56
-11.21
6.48
22.88
36.11
45.02
48.93
46.94
37.85
20.57
-4.84
-36.41
-70.50
-102.72
-129.30
-148.40
-160.34
-166.94
-170.24
-171.40
-170.27
-165.97
-157.80
-146.05
-132.14
-118.04
-105.29
-94.16
-83.39
-70.63
-53.55
-31.08
-4.17
24.09
49.39
67.51
75.57
72.72
60.05
39.72
14.29
-13.37
-39.66
-59.85
-68.81
-62.87
-41.84
-9.88
25.88
58.63
85.28
107.76
131.37
160.91
197.00
234.83
266.05
282.56
280.10
259.36
224.72
181.77
135.13
87.91
42.38
1.05
-33.00
-56.69
-68.29
-68.54
-60.68
-49.67
-40.49
-36.32
-37.48
-41.53
-44.52
-42.90
-35.02
-21.65
-5.41
10.78
25.16
37.64
49.41
61.64
74.41
86.34
95.42
100.18
100.90
99.60
99.16
101.97
108.75
118.54
129.30
139.09
146.54
150.84
151.33
147.09
137.24
121.52
100.77
77.00
52.65
29.71
9.12
-9.17
-25.49
-39.73
-51.11
-58.60
-61.77
-61.40
-59.29
-57.31
-56.28
-55.28
-52.01
-44.11
-30.55
-12.47
7.05
24.28
36.33
42.12
42.35
38.67
32.54
24.45
13.99
0.36
-16.71
-36.32
-56.32
-73.91
-86.67
-93.44
-94.74
-92.35
-88.20
-83.48
-78.20
-71.63
-63.34
-54.15
-46.33
-42.71
-45.34
-54.08
-66.47
-78.74
-87.48
-91.01
-89.89
-86.19
-82.19
-79.25
-77.28
-75.29
-72.11
-67.14
-60.56
-53.15
-45.79
-38.97
-32.59
-26.07
-18.80
-10.43
-1.18
8.19
16.73
23.70
28.96
32.87
36.00
38.55
40.12
39.71
36.31
29.54
20.18
10.04
1.29
-4.46
-6.97
-7.41
-7.75
-9.66
-13.56
-18.50
-22.79
-25.10
-25.22
-23.97
-22.56
-21.64
-21.04
-20.01
-18.07
-15.46
-13.12
-11.96
-12.19
-12.98
-12.78
-9.95
-3.41
7.05
20.83
36.71
53.29
69.11
82.99
94.22
102.78
109.29
114.72
119.85
124.59
127.80
127.29
120.57
105.79
82.65
52.89
19.93
-12.01
-39.33
-60.03
-74.17
-83.49
-90.52
-97.60
-106.15
-116.35
-127.23
-137.10
-144.05
-146.41
-143.13
-133.83
-119.10
-100.47
-80.37
-61.78
-47.29
-37.83
-32.16
-27.31
-20.15
-9.45
3.12
13.62
18.11
15.21
7.34
-0.32
-2.63
2.74
14.00
26.36
34.63
35.99
31.19
23.96
19.25
21.23
31.84
50.15
72.34
92.34
103.14
99.08
78.08
43.28
2.83
-32.36
-52.32
-51.03
-27.89
13.17
66.10
124.85
184.39
240.28
287.50
320.31
333.12
322.56
289.14
237.94
177.33
116.41
62.27
18.17
-16.72
-46.06
-73.81
-102.07
-130.12
-155.14
-174.05
-185.61
-191.05
-192.91
-192.88
-190.16
-181.56
-163.72
-136.03
-102.29
-69.92
-46.65
-36.81
-39.06
-47.27
-53.72
-52.92
-43.79
-29.30
-14.16
-1.90
6.63
13.12
20.09
29.06
39.49
49.08
55.16
56.19
52.57
46.31
39.80
34.58
30.74
27.50
24.33
21.81
21.44
24.64
31.53
40.63
49.62
56.62
61.21
64.32
67.36
71.01
74.81
77.57
78.22
76.53
73.04
68.48
63.08
56.17
46.62
33.55
17.06
-1.62
-20.60
-38.14
-53.25
-65.92
-76.59
-85.42
-91.91
-95.02
-93.91
-88.67
-80.50
-71.24
-62.54
-55.25
-49.19
-43.63
-37.78
-31.04
-23.08
-14.00
-4.81
2.39
4.62
-0.82
-14.65
-34.64
-55.87
-72.52
-80.11
-77.22
-65.75
-49.63
-32.96
-18.53
-7.44
0.27
4.59
5.23
1.76
-5.66
-15.78
-26.14
-33.68
-35.65
-30.60
-18.94
-2.86
14.36
29.41
39.96
45.47
47.30
48.21
51.40
59.16
72.09
88.87
106.90
123.17
135.47
142.92
145.98
145.56
142.05
134.63
121.44
100.14
68.54
25.53
-27.93
-88.22
-149.25
-203.22
-241.93
-258.38
-248.53
-213.42
-158.71
-92.87
-24.43
39.96
96.00
141.12
173.56
191.70
192.73
174.54
137.27
84.20
20.83
-46.66
-112.15
-169.38
-211.85
-235.98
-242.00
-234.57
-221.73
-212.83
-215.78
-234.44
-267.40
-296.59
-303.94
-279.14
-226.08
-159.16
-92.88
-35.18
12.22
50.39
78.20
94.71
97.06
83.73
57.68
26.59
0.23
-13.12
-9.43
12.03
44.60
77.92
102.57
113.42
110.03
94.38
68.45
33.52
-8.80
-55.95
-102.74
-141.39
-163.59
-163.65
-140.78
-99.26
-46.62
8.79
59.14
98.53
123.89
135.49
136.82
133.59
132.03
136.71
149.00
166.06
182.23
191.32
189.30
175.49
152.18
123.04
91.58
60.46
31.70
7.62
-8.85
-14.63
-8.05
9.89
35.33
62.67
86.66
104.24
115.24
121.62
125.84
129.24
131.66
132.19
130.45
127.28
124.34
122.87
122.40
120.45
113.53
98.94
76.43
48.71
20.49
-3.44
-20.04
-29.18
-33.82
-38.65
-48.62
-66.88
-93.64
-125.63
-156.70
-179.44
-187.43
-177.52
-151.48
-116.30
-82.26
-59.29
-52.63
-59.92
-71.41
-74.01
-57.68
-20.85
27.85
73.35
101.37
105.52
90.24
67.79
51.42
48.73
58.68
73.72
85.15
88.46
85.13
80.91
81.47
88.73
99.62
107.95
107.95
97.37
78.54
56.65
36.86
21.58
9.58
-2.86
-19.35
-41.06
-65.91
-89.31
-106.59
-115.01
-115.02
-109.93
-104.50
-103.12
-108.03
-118.64
-131.84
-143.55
-150.73
-152.80
-151.74
-150.73
-152.01
-155.58
-159.17
-159.44
-153.56
-140.27
-119.99
-94.30
-65.09
-34.25
-3.71
24.29
47.59
64.62
74.92
79.22
78.63
73.65
63.53
46.59
21.55
-10.57
-45.56
-76.54
-96.08
-99.09
-84.93
-57.45
-23.32
10.50
38.68
57.81
65.81
61.48
44.73
17.53
-15.49
-47.70
-72.15
-83.63
-79.80
-61.33
-31.23
5.54
42.65
73.38
92.21
96.94
90.05
78.04
68.91
68.48
77.85
93.36
108.98
119.58
123.33
121.86
118.58
116.71
117.89
122.31
129.48
138.94
150.13
161.63
170.63
173.02
164.62
142.83
108.11
64.11
16.68
-28.25
-66.72
-98.10
-124.98
-151.49
-180.86
-213.01
-243.73
-265.64
-270.96
-254.66
-216.69
-162.21
-99.64
-37.78
16.61
59.61
89.62
106.13
109.02
98.77
77.14
47.57
14.78
-16.34
-41.92
-59.71
-69.01
-70.34
-64.81
-54.31
-41.30
-28.83
-19.89
-16.57
-19.30
-26.60
-35.69
-43.44
-47.78
-48.40
-46.74
-45.12
-45.24
-46.91
-47.63
-43.20
-29.01
-1.77
39.23
91.38
149.04
204.63
250.38
279.99
289.94
280.02
253.06
214.01
168.82
123.36
82.52
49.49
25.30
8.83
-2.74
-12.74
-23.70
-36.32
-49.52
-61.26
-69.88
-74.85
-76.60
-75.78
-72.65
-67.02
-58.74
-48.41
-37.54
-28.08
-21.71
-19.15
-20.17
-23.95
-29.63
-36.52
-44.10
-51.63
-58.00
-61.96
-62.41
-58.84
-51.56
-41.62
-30.66
-20.62
-13.29
-9.96
-11.23
-16.77
-25.45
-35.58
-45.29
-53.02
-57.86
-59.64
-58.74
-55.82
-51.33
-45.44
-38.16
-29.56
-20.00
-10.25
-1.20
6.42
12.21
16.31
19.06
20.79
21.74
21.99
21.61
20.85
20.06
19.71
20.23
21.78
24.05
26.33
27.54
26.64
23.07
16.96
9.22
1.24
-5.67
-10.70
-13.72
-15.25
-16.08
-16.92
-18.20
-20.14
-22.70
-25.82
-29.30
-32.93
-36.59
-40.23
-43.99
-48.12
-52.93
-58.47
-64.53
-70.52
-75.66
-79.45
-81.88
-83.64
-85.92
-89.89
-96.24
-104.76
-114.30
-123.17
-129.63
-132.40
-131.19
-126.65
-120.14
-113.07
-106.30
-99.64
-91.97
-81.80
-67.88
-49.63
-27.19
-1.51
25.52
51.11
72.19
86.90
96.07
103.83
116.19
138.23
171.04
210.38
248.31
276.85
291.78
294.30
289.51
283.02
278.05
274.59
270.75
264.90
256.69
246.42
233.82
217.54
195.90
168.82
139.02
111.53
91.43
81.03
78.32
77.95
74.09
63.49
47.19
29.63
15.96
9.25
8.82
10.73
9.83
2.12
-13.87
-37.16
-65.61
-97.16
-130.44
-164.27
-196.59
-223.94
-242.10
-247.97
-241.53
-226.66
-210.14
-198.84
-196.84
-203.70
-214.99
-224.63
-227.57
-221.70
-207.95
-189.00
-167.59
-145.53
-123.44
-101.26
-78.83
-56.01
-32.64
-8.45
16.71
42.50
67.81
90.85
109.57
122.17
127.57
125.54
116.78
102.85
86.17
69.70
56.41
48.48
46.54
49.56
55.33
61.64
67.37
72.76
78.84
86.27
94.36
100.95
103.45
100.14
91.25
78.97
66.44
56.17
48.86
43.09
36.20
25.83
11.21
-6.16
-23.09
-35.90
-42.02
-40.95
-34.35
-25.15
-16.13
-9.09
-4.64
-3.00
-4.93
-12.20
-27.29
-52.59
-89.43
-137.34
-193.72
-253.60
-309.89
-354.34
-379.10
-378.91
-352.83
-304.84
-242.50
-174.38
-107.37
-45.25
11.14
62.55
109.72
152.75
191.20
224.61
252.76
275.42
291.92
301.44
303.63
299.42
291.41
282.87
276.36
272.23
268.19
260.43
245.48
222.17
192.35
160.09
129.75
103.99
82.72
63.50
42.90
18.11
-12.16
-47.48
-86.11
-125.58
-163.15
-195.71
-220.24
-234.12
-235.86
-225.65
-204.99
-175.84
-139.33
-95.34
-43.14
16.86
81.58
144.60
197.28
231.87
244.23
235.25
209.93
174.70
134.56
91.93
47.38
0.96
-45.55
-88.45
-123.76
-149.38
-166.21
-177.69
-187.47
-197.38
-207.68
-216.35
-220.37
-217.29
-206.42
-188.60
-166.24
-141.85
-117.58
-96.90
-82.49
-75.50
-75.54
-81.33
-90.95
-103.30
-117.19
-131.66
-148.37
-168.53
-191.47
-214.24
-232.41
-241.13
-238.00
-222.91
-185.42
-125.06
-51.26
21.28
81.24
121.81
149.00
167.41
178.32
181.18
173.40
155.16
130.57
105.80
86.20
74.94
71.43
73.98
81.23
90.60
100.58
110.73
120.78
130.20
138.79
146.23
153.40
162.15
172.40
180.07
179.90
166.89
139.34
100.67
57.20
15.47
-20.20
-51.91
-82.23
-111.60
-138.00
-157.97
-168.70
-167.72
-155.97
-134.53
-108.02
-81.70
-59.33
-42.09
-28.51
-15.90
-2.32
13.64
31.37
48.56
63.35
75.22
84.82
93.50
102.92
111.79
119.85
126.63
131.01
132.20
129.79
123.51
113.34
99.68
80.36
56.68
31.82
8.78
-10.84
-27.28
-41.69
-55.19
-68.18
-81.10
-93.35
-104.54
-114.80
-123.78
-130.25
-132.40
-128.77
-119.24
-104.12
-85.80
-66.77
-49.87
-35.23
-19.66
1.51
30.30
63.90
96.00
119.89
131.29
130.03
119.90
106.33
93.91
84.91
79.60
77.36
77.54
79.80
83.73
88.68
93.49
96.65
96.70
92.77
84.79
73.40
59.98
46.34
34.57
26.24
21.94
20.93
21.59
22.20
21.57
19.62
17.10
15.15
14.48
15.06
16.07
16.31
14.71
10.54
3.48
-6.49
-19.23
-34.54
-52.00
-70.75
-89.40
-106.21
-119.56
-128.59
-133.52
-135.55
-136.19
-136.52
-136.73
-136.23
-134.12
-129.90
-123.60
-115.68
-106.62
-96.51
-85.16
-72.49
-58.90
-45.32
-32.90
-22.49
-14.36
-8.30
-4.05
-1.73
-1.82
-4.84
-10.58
-17.87
-24.72
-29.13
-29.95
-27.30
-22.41
-16.75
-11.31
-6.28
-1.29
4.16
10.20
16.62
23.13
29.52
35.67
41.43
46.36
49.69
50.64
48.71
43.93
36.83
28.27
19.30
10.93
3.82
-1.97
-7.20
-13.17
-21.24
-32.02
-44.83
-57.71
-67.94
-72.91
-70.77
-60.90
-43.90
-21.19
5.24
33.17
60.44
85.08
105.48
120.53
129.61
132.61
130.03
123.16
114.04
105.25
99.19
97.33
99.79
105.23
111.32
115.68
116.61
113.47
106.51
96.37
84.23
71.94
61.97
56.82
58.04
65.12
75.13
83.42
84.67
75.41
55.28
26.83
-5.79
-38.69
-69.20
-96.12
-119.11
-139.02
-156.69
-172.71
-187.47
-201.12
-213.65
-224.48
-232.38
-235.66
-233.89
-227.32
-217.02
-204.46
-190.97
-177.20
-162.35
-144.33
-114.56
-69.84
-14.17
41.82
85.89
109.68
111.18
94.97
69.33
42.85
22.06
11.37
12.44
23.79
42.35
61.87
75.71
79.88
74.62
63.52
52.04
44.84
43.82
47.69
53.04
56.96
58.53
59.00
60.17
63.44
69.10
76.61
85.06
93.65
101.92
109.16
113.93
113.83
106.53
90.91
67.96
40.55
12.38
-13.08
-33.48
-47.98
-56.89
-61.23
-62.27
-61.31
-59.62
-58.28
-57.77
-57.87
-57.83
-56.88
-54.83
-52.08
-49.27
-46.58
-43.31
-37.99
-29.26
-16.92
-2.48
11.12
20.48
22.91
17.31
4.17
-14.85
-37.74
-62.63
-87.77
-111.48
-131.91
-147.09
-155.37
-156.05
-150.00
-139.58
-128.11
-118.63
-112.78
-110.16
-108.49
-104.66
-96.24
-82.64
-65.19
-46.50
-29.16
-14.86
-4.03
3.76
9.50
14.11
18.53
23.76
30.81
40.42
52.64
66.65
80.95
94.22
106.18
117.80
130.63
145.53
161.64
176.24
185.77
187.30
179.91
165.02
145.94
126.67
110.89
101.57
100.56
108.16
122.40
138.75
150.72
151.69
137.38
107.45
65.90
19.48
-24.68
-61.28
-87.64
-103.25
-108.58
-104.07
-90.10
-67.58
-38.94
-8.30
19.14
38.66
47.70
46.67
38.77
28.31
19.13
13.24
10.94
11.60
14.54
19.48
25.83
32.14
35.67
33.23
22.72
4.70
-17.06
-36.76
-48.97
-51.30
-45.63
-37.41
-33.08
-36.98
-49.29
-66.16
-81.93
-92.11
-95.47
-93.93
-90.72
-87.91
-85.03
-79.54
-68.71
-51.57
-29.64
-6.42
14.34
30.17
40.55
46.70
50.70
54.43
59.01
64.51
70.07
74.22
75.49
72.96
66.95
59.17
52.16
48.36
49.06
53.91
61.21
68.82
75.10
79.37
81.62
82.01
80.35
76.11
68.73
58.13
44.98
30.46
15.81
1.69
-12.04
-26.22
-41.90
-59.68
-79.12
-98.52
-115.36
-127.05
-132.08
-130.72
-124.94
-117.72
-111.79
-108.65
-107.98
-108.05
-106.39
-100.78
-90.07
-74.52
-55.88
-36.84
-20.36
-8.77
-3.15
-3.08
-7.03
-13.09
-19.56
-25.31
-29.63
-31.92
-31.42
-27.36
-19.30
-7.63
6.40
20.92
34.00
44.17
50.61
53.14
52.02
47.84
41.52
34.27
27.54
22.64
20.45
20.99
23.46
26.54
29.03
30.24
30.23
29.64
29.18
29.30
30.10
31.43
33.10
34.96
36.81
38.32
39.23
39.72
40.74
43.75
50.18
60.24
72.33
83.19
88.87
86.31
74.53
54.66
29.43
1.92
-25.21
-50.04
-71.12
-87.34
-97.92
-102.76
-102.58
-98.88
-93.39
-87.49
-81.73
-75.88
-69.31
-61.40
-51.97
-41.32
-30.15
-19.35
-9.87
-2.59
1.96
3.70
3.23
1.72
0.63
1.26
4.30
9.53
15.99
22.30
27.21
30.04
30.86
30.34
29.34
28.45
27.92
27.54
26.93
25.73
23.58
20.14
15.13
8.58
1.07
-6.28
-12.27
-16.36
-19.15
-22.13
-26.69
-32.78
-38.29
-39.62
-33.36
-18.24
3.74
27.74
48.01
60.18
62.87
58.02
49.78
42.65
39.80
42.22
48.92
57.83
66.80
74.10
78.62
79.40
75.54
66.19
51.01
30.60
6.64
-18.43
-42.05
-62.30
-78.12
-89.42
-96.71
-100.69
-101.91
-100.51
-96.37
-89.24
-79.27
-67.20
-54.50
-42.81
-33.40
-26.61
-21.87
-18.20
-14.95
-12.30
-11.06
-12.15
-15.97
-22.02
-29.12
-35.98
-41.62
-45.52
-47.54
-47.60
-45.68
-41.84
-36.37
-29.96
-23.48
-17.88
-13.76
-11.23
-9.69
-8.00
-4.77
1.07
9.61
19.84
29.90
37.91
42.84
44.96
45.60
46.24
47.72
49.69
50.98
50.36
47.29
42.14
35.88
29.49
23.44
17.68
11.89
5.92
0.12
-4.91
-8.63
-11.00
-12.62
-14.52
-17.74
-22.81
-29.53
-37.02
-44.18
-50.23
-54.99
-58.89
-62.56
-66.38
-70.22
-73.45
-75.19
-74.68
-71.44
-65.29
-56.12
-43.97
-28.94
-11.38
8.08
28.57
49.15
68.96
87.25
103.22
115.91
124.28
127.59
125.81
119.98
112.07
104.52
99.56
98.34
100.59
104.52
107.25
105.62
97.13
80.89
58.09
31.70
5.63
-16.54
-32.58
-41.97
-45.66
-45.23
-42.21
-37.70
-32.43
-26.91
-21.66
-17.09
-13.42
-10.49
-7.70
-4.25
0.64
7.40
15.86
25.33
34.84
43.46
50.78
56.99
62.69
68.46
74.41
79.96
84.01
85.33
83.06
77.10
68.23
58.02
48.56
42.04
40.00
42.85
49.45
57.15
62.41
61.69
52.53
34.25
8.25
-22.49
-54.23
-83.51
-107.85
-126.02
-137.93
-144.27
-146.28
-145.46
-143.42
-141.47
-140.26
-139.43
-137.67
-133.17
-124.24
-109.79
-89.50
-63.65
-33.06
0.99
36.43
70.43
99.52
120.30
130.43
129.24
118.00
99.34
76.49
52.41
29.42
9.25
-6.79
-17.52
-22.01
-19.82
-11.40
1.82
17.71
34.08
49.42
63.19
75.55
86.91
97.27
106.00
112.00
114.14
111.75
104.98
94.85
82.98
71.13
60.72
52.36
45.70
39.74
33.18
25.04
15.07
3.73
-8.03
-19.13
-28.67
-36.15
-41.49
-45.11
-47.80
-50.58
-54.39
-59.74
-66.45
-73.73
-80.43
-85.70
-89.31
-91.79
-94.05
-97.01
-101.09
-106.14
-111.54
-116.48
-120.17
-122.01
-121.57
-118.54
-112.88
-104.72
-94.56
-83.06
-70.80
-58.23
-45.66
-33.42
-22.02
-12.16
-4.60
-0.06
1.28
-0.01
-2.77
-5.76
-8.18
-9.81
-10.86
-11.64
-12.46
-12.94
-12.17
-9.26
-4.12
2.00
7.05
9.01
6.69
-0.37
-11.17
-23.66
-35.52
-44.86
-51.01
-53.79
-53.29
-50.01
-45.68
-42.34
-41.63
-44.04
-48.26
-51.80
-51.23
-43.80
-25.90
0.04
26.03
42.58
43.28
30.26
8.71
-16.33
-40.51
-61.26
-77.88
-89.91
-96.17
-95.16
-85.94
-69.51
-48.19
-24.90
-2.45
16.83
32.17
44.46
55.39
66.39
77.48
87.70
95.79
100.77
102.09
100.23
96.54
92.50
89.10
86.24
83.15
78.96
73.06
65.07
55.25
44.31
33.30
23.33
15.19
9.18
5.12
2.52
0.67
-0.91
-2.30
-3.23
-3.39
-2.64
-1.07
0.99
3.23
5.34
7.10
8.44
9.38
10.19
11.32
13.22
16.23
20.37
25.28
30.41
35.26
39.41
42.62
44.78
45.87
46.09
45.84
45.58
45.62
46.00
46.26
45.80
44.19
41.44
37.99
34.44
31.21
28.36
25.68
22.85
19.67
16.07
11.89
6.89
0.75
-6.64
-14.96
-23.52
-31.47
-38.20
-43.59
-47.96
-51.68
-54.89
-57.21
-57.91
-56.20
-51.68
-44.54
-35.47
-25.44
-15.33
-5.69
3.27
11.53
19.22
26.45
33.40
40.25
47.12
53.95
60.29
65.33
67.89
66.81
61.28
51.24
37.69
22.55
8.28
-2.87
-9.70
-12.62
-13.57
-15.12
-19.17
-26.05
-34.25
-41.11
-43.76
-40.26
-30.02
-13.97
5.94
27.19
47.23
63.92
75.97
83.18
86.13
85.85
83.17
78.42
71.51
62.36
51.22
38.80
25.89
12.95
-0.04
-13.42
-27.52
-42.37
-57.67
-72.98
-87.92
-102.26
-115.60
-127.20
-135.86
-140.46
-140.52
-136.86
-131.54
-127.27
-126.36
-129.69
-136.36
-144.09
-150.05
-151.77
-147.77
-137.70
-122.24
-102.78
-81.09
-59.01
-38.06
-19.13
-2.32
12.88
27.14
40.91
54.15
66.57
77.79
87.44
94.95
99.56
100.42
97.05
89.94
80.59
71.23
63.86
59.43
57.49
56.58
55.04
52.04
48.01
44.28
42.23
42.38
44.00
45.48
45.21
42.49
38.01
33.44
30.57
30.36
32.44
35.42
37.63
37.77
35.08
29.15
19.58
6.11
-10.80
-29.63
-47.99
-63.30
-73.90
-79.69
-81.72
-81.19
-78.52
-73.01
-63.64
-50.35
-34.68
-19.65
-8.39
-2.71
-2.30
-5.01
-8.09
-9.55
-9.32
-9.28
-12.46
-21.80
-38.67
-61.89
-87.70
-110.57
-124.92
-126.90
-115.78
-94.30
-67.71
-42.24
-23.31
-14.30
-15.99
-27.00
-44.60
-65.66
-87.49
-108.22
-126.82
-142.76
-155.39
-163.53
-165.47
-159.50
-144.62
-121.28
-91.24
-56.82
-19.89
18.51
57.85
97.06
133.85
165.13
188.46
203.52
212.55
219.25
226.55
234.69
241.07
241.66
233.27
215.09
188.79
157.30
123.23
88.09
52.53
17.19
-16.86
-48.09
-75.07
-97.01
-113.91
-126.36
-135.01
-140.18
-141.97
-140.68
-136.91
-131.74
-126.16
-120.77
-115.59
-110.02
-103.10
-94.05
-82.77
-69.86
-56.49
-43.60
-31.56
-20.06
-8.34
4.68
19.72
36.72
54.87
72.43
87.74
99.46
106.74
109.68
110.22
110.82
113.59
119.27
126.09
131.75
133.73
129.95
119.92
106.78
94.87
88.21
89.04
95.89
107.55
122.67
139.55
156.88
176.27
198.89
224.52
251.21
273.73
290.74
303.54
314.52
326.61
345.17
372.74
407.90
445.52
475.88
495.09
503.66
504.28
475.87
405.77
292.32
148.06
14.45
-97.24
-185.39
-251.62
-303.00
-343.35
-372.40
-389.79
-395.51
-390.59
-380.34
-366.64
-350.33
-332.43
-313.44
-291.02
-263.14
-229.20
-190.92
-154.31
-122.54
-96.90
-77.58
-63.57
-51.94
-40.18
-27.02
-12.85
-0.85
7.58
12.05
12.75
10.41
6.66
2.97
0.31
-1.07
-2.27
-3.69
-5.36
-7.30
-9.47
-11.65
-13.76
-15.88
-18.21
-21.34
-25.34
-29.98
-34.85
-39.40
-43.11
-45.54
-46.36
-45.43
-42.88
-39.05
-34.56
-30.19
-26.76
-24.96
-25.25
-27.79
-32.58
-39.60
-48.86
-60.34
-73.75
-88.20
-102.04
-113.21
-119.96
-121.56
-118.82
-113.75
-108.74
-105.57
-104.71
-105.33
-106.01
-105.54
-103.49
-100.13
-96.05
-91.53
-86.29
-79.74
-71.40
-61.38
-50.33
-39.19
-28.65
-18.76
-8.98
1.56
13.37
26.17
38.91
50.17
58.82
64.62
68.41
71.87
76.88
84.61
95.08
107.02
118.31
126.81
130.95
130.22
125.00
116.31
105.22
92.70
79.41
65.94
52.85
40.72
30.07
20.98
13.07
5.46
-2.92
-12.80
-24.29
-36.61
-48.53
-58.72
-66.37
-71.20
-73.34
-72.93
-70.06
-64.85
-57.79
-49.91
-42.50
-36.71
-33.16
-31.85
-32.44
-34.64
-38.26
-43.07
-48.32
-52.70
-54.65
-52.98
-47.40
-38.56
-27.73
-16.01
-4.08
7.94
20.03
31.97
43.23
53.18
61.36
67.71
72.42
75.69
77.37
77.13
74.52
69.49
62.40
54.06
45.40
37.14
29.68
23.07
17.23
12.01
7.30
2.77
-2.10
-7.94
-15.15
-23.31
-31.11
-36.52
-37.61
-33.48
-24.88
-14.03
-3.75
3.55
6.90
6.83
4.82
2.43
0.47
-1.18
-3.28
-6.53
-11.22
-16.87
-22.56
-27.27
-30.24
-31.17
-30.26
-27.93
-24.73
-21.12
-17.43
-13.91
-10.86
-8.58
-7.44
-7.70
-9.31
-11.90
-14.74
-17.03
-18.23
-18.27
-17.45
-16.39
-15.58
-15.21
-15.15
-15.04
-14.52
-13.44
-11.93
-10.22
-8.65
-7.38
-6.36
-5.45
-4.50
-3.51
-2.64
-2.13
-2.15
-2.77
-3.85
-5.19
-6.61
-8.05
-9.50
-11.08
-12.85
-14.91
-17.27
-19.86
-22.47
-24.77
-26.26
-26.43
-24.94
-21.78
-17.34
-12.22
-7.10
-2.51
1.22
3.99
5.79
6.67
6.68
5.92
4.65
3.25
2.15
1.69
2.02
3.07
4.64
6.51
8.49
10.50
12.44
14.26
15.81
17.02
17.83
18.31
18.57
18.74
18.83
18.74
18.26
17.19
15.39
12.97
10.13
7.19
4.46
2.10
0.09
-1.68
-3.41
-5.29
-7.45
-9.97
-12.89
-16.10
-19.34
-22.12
-23.77
-23.70
-21.64
-17.73
-12.57
-6.96
-1.57
3.19
7.21
10.63
13.51
15.79
17.42
18.36
18.80
19.10
19.54
20.18
20.81
21.04
20.58
19.42
17.84
16.33
15.29
14.80
14.66
14.55
14.14
13.30
12.09
10.66
9.20
7.84
6.58
5.36
4.09
2.72
1.21
-0.33
-1.81
-3.12
-4.24
-5.32
-6.56
-8.20
-10.38
-13.09
-16.07
-19.01
-21.55
-23.34
-24.07
-23.49
-21.46
-18.02
-13.35
-7.79
-1.82
4.05
9.43
14.05
17.78
20.58
22.43
23.34
23.45
23.04
22.41
21.96
21.90
22.23
22.57
22.40
21.16
18.53
14.61
9.81
4.66
-0.53
-5.75
-11.34
-17.75
-25.31
-33.95
-43.14
-51.88
-58.80
-62.40
-61.37
-54.94
-43.49
-28.64
-12.89
1.07
11.28
17.20
19.73
20.50
21.06
22.05
23.05
23.04
21.13
17.16
11.92
6.81
3.27
2.22
3.75
7.27
11.77
16.32
20.40
23.96
27.29
30.68
34.11
37.19
39.37
40.22
39.78
38.63
37.59
37.38
38.20
39.71
41.17
41.74
40.89
38.48
34.79
30.41
26.11
22.73
21.07
21.70
24.56
28.72
32.17
32.16
25.94
11.95
-9.22
-34.54
-59.24
-78.51
-89.11
-90.51
-84.68
-75.04
-64.85
-56.08
-49.18
-43.47
-37.79
-30.98
-22.22
-11.26
1.46
14.69
26.74
35.97
41.54
43.64
43.36
41.99
40.36
38.59
36.28
33.20
29.53
25.96
23.20
21.56
20.63
19.48
17.07
12.62
5.88
-2.81
-12.64
-22.48
-31.03
-37.09
-39.62
-37.94
-31.98
-22.33
-10.22
2.63
14.39
23.42
28.57
29.35
26.07
19.52
10.85
1.20
-8.42
-17.33
-25.05
-31.17
-35.35
-37.21
-36.54
-33.43
-28.36
-22.14
-15.77
-10.23
-6.14
-3.70
-2.66
-2.56
-2.72
-2.49
-1.36
1.03
4.78
9.76
15.61
21.87
27.99
33.46
37.78
40.51
41.33
40.10
36.92
32.17
26.36
20.06
13.68
7.38
1.16
-5.08
-11.36
-17.53
-23.32
-28.49
-32.92
-36.76
-40.31
-44.00
-48.04
-52.36
-56.38
-59.29
-60.30
-58.97
-55.54
-50.77
-45.89
-42.10
-40.25
-40.53
-42.54
-45.53
-48.77
-51.84
-54.66
-57.54
-60.95
-65.37
-71.00
-77.50
-83.92
-88.88
-90.86
-88.67
-81.87
-71.01
-57.37
-42.49
-27.63
-13.71
-1.31
9.01
16.96
22.36
25.46
27.47
30.66
38.07
52.53
75.53
106.27
142.27
179.14
211.76
235.80
249.43
253.98
253.53
253.19
256.94
266.87
281.20
294.76
301.11
295.47
276.66
247.52
213.66
181.48
157.65
145.70
144.88
150.43
155.42
153.17
139.42
113.37
69.59
9.94
-57.87
-123.16
-177.26
-216.56
-241.56
-254.24
-256.53
-250.22
-236.15
-216.36
-193.99
-172.56
-154.81
-141.87
-132.99
-126.17
-118.92
-108.14
-92.59
-73.65
-54.99
-40.89
-34.00
-34.28
-39.18
-44.94
-47.71
-45.78
-39.90
-32.48
-25.88
-20.91
-16.85
-12.36
-6.63
0.26
7.17
12.59
15.41
15.62
14.10
12.47
12.05
13.35
16.21
19.92
23.71
26.97
29.67
32.22
35.21
38.96
43.43
48.15
52.57
56.38
59.23
61.26
62.93
64.74
67.11
70.30
74.35
79.26
85.22
91.99
99.59
108.16
117.85
128.64
140.44
153.05
166.33
180.22
194.10
207.51
220.10
231.39
240.79
247.45
250.18
247.20
240.85
231.56
219.45
204.53
186.54
165.15
140.10
111.34
79.24
44.70
8.33
-28.84
-65.67
-101.13
-134.37
-164.59
-191.08
-213.16
-230.24
-242.73
-251.49
-257.85
-263.17
-268.53
-273.81
-277.94
-279.51
-277.89
-273.77
-268.24
-261.75
-253.55
-242.35
-226.79
-206.52
-182.62
-157.18
-132.61
-110.22
-89.96
-71.19
-54.64
-41.68
-33.31
-28.85
-25.70
-20.16
-8.95
9.04
31.58
51.42
61.90
60.42
49.33
33.58
18.08
6.15
-0.79
-2.78
-5.91
-14.95
-31.31
-53.46
-79.86
-110.02
-143.45
-178.70
-213.69
-254.63
-305.29
-363.52
-421.64
-471.71
-509.52
-534.99
-550.97
-561.48
-580.41
-615.33
-662.77
-710.44
-746.41
-765.51
-769.41
-763.57
-687.30
-516.09
-272.86
-14.15
212.22
387.03
511.11
592.46
639.97
662.37
657.71
627.85
581.81
532.96
492.03
462.88
444.02
431.51
421.61
403.54
370.87
324.54
272.84
224.63
185.72
158.88
144.97
143.58
148.08
152.92
156.28
160.05
166.50
176.19
188.02
200.11
210.59
215.78
213.96
206.46
196.89
188.59
183.03
179.67
176.75
172.03
162.45
145.69
120.92
89.10
52.50
14.31
-21.87
-52.77
-76.29
-91.94
-100.68
-104.40
-104.99
-103.93
-102.05
-99.67
-96.90
-93.72
-89.96
-85.30
-79.30
-71.59
-62.20
-51.64
-40.96
-31.62
-25.05
-22.15
-22.95
-26.55
-31.51
-36.45
-40.66
-44.32
-48.32
-53.67
-60.92
-69.72
-78.91
-86.93
-92.29
-93.96
-91.47
-84.78
-74.05
-59.59
-41.92
-21.87
-0.63
20.34
39.58
55.83
68.20
76.28
80.12
80.25
77.51
72.89
67.35
61.46
55.40
48.97
41.74
33.44
23.86
13.20
2.28
-8.04
-17.04
-24.04
-28.51
-30.16
-28.97
-25.34
-19.82
-12.74
-4.67
3.51
10.86
16.47
19.82
20.95
20.20
18.43
17.35
17.92
20.08
23.24
26.55
29.17
30.51
29.15
24.51
18.67
13.39
9.48
7.65
8.05
10.06
12.45
11.83
6.27
-0.57
-5.88
-9.13
-10.26
-10.24
-10.73
-13.57
-23.30
-41.83
-62.24
-79.17
-90.80
-95.84
-94.28
-87.69
-79.03
-76.42
-85.93
-102.68
-122.94
-145.86
-168.97
-189.76
-206.93
-192.50
-135.42
-83.65
-53.45
-33.13
-18.51
-6.95
2.44
9.27
12.88
8.80
-4.58
-18.44
-26.96
-29.40
-25.15
-13.97
3.61
26.01
47.20
62.01
73.17
82.15
88.22
91.99
94.45
96.38
98.44
99.17
98.35
100.42
107.65
118.77
131.40
142.73
150.38
153.26
150.61
142.93
133.18
123.13
112.84
102.09
90.75
78.97
67.15
55.41
43.92
33.50
24.61
17.22
11.26
6.50
2.46
-1.59
-6.46
-12.74
-20.54
-29.39
-38.27
-45.94
-51.36
-54.05
-54.28
-53.09
-51.80
-51.69
-53.53
-57.45
-63.00
-69.32
-75.45
-80.48
-83.71
-84.68
-83.36
-80.10
-75.50
-70.30
-65.01
-59.71
-54.13
-47.82
-40.44
-32.11
-23.45
-15.36
-8.70
-3.87
-0.61
1.82
4.35
7.64
11.87
16.77
21.83
26.58
30.78
34.33
37.17
39.13
39.95
39.40
37.47
34.40
30.69
26.86
23.26
19.98
16.81
13.43
9.52
4.94
-0.21
-5.47
-10.12
-13.18
-13.67
-10.89
-4.76
4.00
13.99
23.45
30.88
35.41
37.02
36.30
34.07
30.98
27.41
23.41
19.00
14.28
9.47
4.88
0.75
-2.83
-5.89
-8.56
-10.94
-13.11
-15.15
-17.09
-19.00
-20.94
-22.92
-24.78
-26.23
-26.98
-26.82
-25.85
-24.52
-23.48
-23.40
-24.71
-27.51
-31.43
-35.79
-39.69
-42.20
-42.54
-40.23
-35.20
-27.82
-18.85
-9.18
0.31
8.93
16.26
22.10
26.44
29.49
31.54
32.96
34.04
34.91
35.53
35.68
35.14
33.79
31.70
29.07
26.20
23.40
20.78
18.36
15.96
13.28
10.02
5.97
1.09
-4.39
-10.09
-15.53
-20.30
-24.21
-27.33
-29.91
-32.30
-34.79
-37.53
-40.39
-43.06
-45.00
-45.63
-44.44
-41.13
-35.81
-28.97
-21.47
-14.29
-8.26
-3.86
-1.09
0.39
1.12
1.57
2.00
2.49
2.99
3.49
4.03
4.77
5.79
7.07
8.49
9.85
10.98
11.78
12.27
12.47
12.40
12.00
11.22
9.92
8.04
5.60
2.71
-0.44
-3.64
-6.66
-9.46
-12.14
-14.92
-18.10
-21.85
-26.14
-30.59
-34.51
-37.03
-37.29
-34.75
-29.38
-21.67
-12.57
-3.19
5.46
12.75
18.43
22.58
25.47
27.39
28.61
29.31
29.64
29.79
29.99
30.49
31.52
33.21
35.43
37.87
40.06
41.63
42.52
42.96
43.41
44.33
45.93
48.14
50.66
53.08
55.00
56.16
56.37
55.54
53.92
52.12
50.84
50.41
50.36
49.61
46.93
41.43
33.11
22.73
11.40
-0.02
-11.43
-23.47
-37.08
-53.16
-72.33
-94.80
-120.26
-147.66
-175.24
-201.12
-223.62
-241.54
-254.29
-261.84
-264.29
-261.66
-253.67
-240.00
-221.37
-199.04
-173.99
-146.56
-116.69
-84.05
-48.09
-7.97
36.69
83.24
126.98
162.85
186.90
196.51
191.04
172.54
146.16
119.38
97.59
84.96
85.19
100.96
131.40
170.99
210.91
242.13
258.03
252.16
221.62
168.52
99.20
19.86
-66.41
-159.70
-261.17
-345.75
-387.47
-375.27
-319.22
-237.19
-145.17
-56.57
16.77
66.50
90.56
89.91
70.00
40.13
11.45
-7.45
-12.35
-3.32
16.34
41.17
61.66
68.93
57.47
30.21
-5.90
-41.98
-70.11
-85.57
-87.52
-80.09
-68.37
-55.92
-42.59
-26.56
-6.67
15.36
34.84
46.59
47.20
38.13
23.78
10.51
3.62
5.71
16.54
33.64
54.70
78.59
105.65
133.16
156.20
169.06
167.52
149.90
116.32
68.19
7.26
-63.81
-144.80
-234.04
-325.74
-405.79
-455.34
-464.83
-442.46
-416.73
-399.52
-393.11
-393.92
-394.19
-389.28
-378.56
-365.44
-354.12
-346.14
-338.28
-327.71
-312.43
-291.71
-266.55
-239.62
-214.49
-193.53
-176.16
-158.17
-136.29
-108.45
-74.05
-34.24
8.38
50.29
88.46
121.73
151.43
178.74
204.47
228.94
251.78
271.91
287.92
298.76
304.45
306.47
306.40
305.71
305.51
306.21
307.54
308.72
308.95
307.87
305.92
303.77
302.26
302.29
304.82
310.79
320.71
334.05
348.61
360.50
365.03
358.32
338.84
308.16
270.43
230.61
192.87
159.42
130.64
106.00
85.02
67.58
53.58
42.35
32.59
22.86
12.33
1.33
-8.82
-16.53
-20.74
-21.48
-19.69
-16.76
-13.82
-11.44
-9.63
-8.10
-6.50
-4.64
-2.46
-0.08
2.28
4.34
5.85
6.75
7.31
7.96
9.22
11.48
14.74
18.64
22.51
25.67
27.57
27.98
26.90
24.53
21.13
16.96
12.27
7.34
2.51
-1.88
-5.61
-8.70
-11.38
-14.07
-17.16
-20.88
-25.30
-30.28
-35.67
-41.26
-46.79
-51.85
-55.87
-58.07
-57.70
-54.23
-47.55
-38.03
-26.54
-14.22
-2.27
8.30
16.90
23.47
28.50
32.82
37.19
42.06
47.33
52.48
56.98
60.62
63.71
66.96
71.07
76.33
82.50
88.98
95.18
100.68
105.01
107.22
105.76
98.95
85.85
67.00
44.26
19.96
-4.26
-27.88
-51.16
-74.04
-95.27
-112.44
-122.86
-124.94
-118.76
-105.91
-88.60
-68.70
-47.29
-24.73
-1.22
22.54
44.74
62.04
69.91
63.84
41.34
3.63
-43.74
-92.29
-133.32
-160.77
-172.65
-170.66
-158.33
-139.01
-115.08
-88.27
-60.69
-35.20
-15.02
-2.57
1.40
-1.83
-9.37
-17.80
-23.99
-25.71
-21.77
-12.06
2.63
20.83
40.66
60.14
77.42
90.98
99.59
102.40
98.98
89.50
74.76
56.25
35.92
15.85
-2.02
-16.31
-26.30
-32.04
-34.25
-34.12
-32.93
-31.83
-31.71
-33.22
-36.80
-42.79
-51.33
-62.15
-74.39
-86.49
-96.43
-102.18
-102.35
-96.59
-85.70
-71.34
-55.45
-39.72
-25.27
-12.65
-2.03
6.65
13.55
19.06
23.78
28.46
33.74
39.87
46.57
53.13
58.69
62.56
64.47
64.60
63.45
61.67
59.86
58.47
57.76
57.73
58.19
58.72
58.84
58.13
56.36
53.56
50.01
46.06
42.02
37.97
33.75
29.02
23.43
16.85
9.43
1.61
-6.03
-12.98
-18.93
-23.79
-27.80
-31.34
-34.97
-39.20
-44.35
-50.34
-56.60
-62.04
-65.30
-65.14
-60.84
-52.39
-40.56
-26.67
-12.21
1.46
13.43
23.28
31.03
36.98
41.49
44.93
47.59
49.73
51.54
53.17
54.59
55.66
56.10
55.68
54.36
52.35
50.04
47.82
45.85
44.00
41.87
39.02
35.20
30.47
25.13
19.67
14.45
9.69
5.36
1.29
-2.72
-6.81
-10.98
-15.15
-19.15
-22.81
-26.05
-28.92
-31.62
-34.46
-37.79
-41.90
-46.89
-52.61
-58.55
-63.97
-67.91
-69.45
-67.93
-63.07
-55.12
-44.77
-33.04
-21.03
-9.70
0.25
8.46
14.81
19.36
22.21
23.48
23.33
22.00
19.85
17.27
14.56
11.90
9.29
6.70
4.14
1.72
-0.44
-2.27
-3.84
-5.33
-6.90
-8.58
-10.23
-11.66
-12.77
-13.67
-14.69
-16.21
-18.55
-21.74
-25.56
-29.61
-33.47
-36.86
-39.77
-42.40
-45.12
-48.23
-51.80
-55.51
-58.59
-60.09
-59.11
-55.17
-48.44
-39.71
-30.12
-20.84
-12.65
-5.90
-0.49
3.86
7.40
10.26
12.45
13.98
14.89
15.38
15.67
15.97
16.38
16.95
17.60
18.25
18.71
18.75
18.08
16.49
13.90
10.46
6.49
2.35
-1.66
-5.39
-8.76
-11.73
-14.27
-16.37
-18.12
-19.76
-21.59
-23.89
-26.74
-30.05
-33.67
-37.49
-41.51
-45.68
-49.76
-53.17
-55.08
-54.64
-51.34
-45.20
-36.83
-27.27
-17.57
-8.64
-0.97
5.32
10.31
14.23
17.28
19.63
21.45
22.89
24.12
25.26
26.36
27.36
28.19
28.76
29.06
29.10
28.92
28.47
27.64
26.35
24.55
22.26
19.62
16.76
13.78
10.75
7.67
4.51
1.26
-2.16
-5.82
-9.76
-13.99
-18.44
-22.97
-27.44
-31.78
-36.06
-40.39
-44.86
-49.32
-53.34
-56.16
-56.97
-55.06
-50.15
-42.50
-32.85
-22.22
-11.69
-2.09
6.11
12.79
18.07
22.15
25.16
27.18
28.20
28.27
27.59
26.48
25.32
24.42
23.95
23.85
23.88
23.80
23.44
22.77
21.88
20.92
19.96
18.94
17.70
16.06
13.87
11.13
8.00
4.74
1.59
-1.27
-3.79
-6.10
-8.40
-10.86
-13.53
-16.34
-19.13
-21.76
-24.20
-26.56
-29.10
-32.10
-35.77
-40.15
-44.97
-49.70
-53.50
-55.47
-54.84
-51.20
-44.70
-36.01
-26.15
-16.17
-6.89
1.27
8.21
14.02
18.79
22.57
25.35
27.13
28.05
28.36
28.33
28.25
28.28
28.48
28.76
29.05
29.23
29.30
29.22
28.97
28.54
27.84
26.83
25.47
23.74
21.68
19.36
16.82
14.11
11.27
8.35
5.42
2.59
-0.05
-2.43
-4.60
-6.67
-8.87
-11.37
-14.23
-17.32
-20.41
-23.25
-25.77
-28.16
-30.79
-34.04
-38.13
-42.97
-48.08
-52.68
-55.88
-56.81
-54.91
-50.04
-42.54
-33.22
-23.11
-13.20
-4.23
3.41
9.72
14.82
18.87
21.94
24.02
25.21
25.70
25.83
25.95
26.30
26.92
27.70
28.39
28.83
28.97
28.87
28.67
28.45
28.19
27.73
26.89
25.50
23.55
21.19
18.66
16.22
13.99
11.97
10.00
7.95
5.77
3.50
1.20
-1.10
-3.48
-6.14
-9.25
-12.86
-16.80
-20.77
-24.49
-27.78
-30.69
-33.50
-36.54
-40.16
-44.58
-49.83
-55.66
-61.58
-66.82
-70.57
-72.04
-70.72
-66.49
-59.64
-50.81
-40.81
-30.47
-20.43
-11.08
-2.56
5.13
12.03
18.10
23.29
27.52
30.81
33.32
35.25
36.74
37.79
38.24
37.96
37.00
35.64
34.34
33.47
33.19
33.38
33.67
33.71
33.23
32.23
30.82
29.22
27.56
25.90
24.21
22.46
20.62
18.65
16.52
14.17
11.55
8.61
5.38
1.95
-1.53
-4.90
-8.03
-10.84
-13.32
-15.62
-17.99
-20.76
-24.29
-28.75
-33.94
-39.19
-43.47
-45.60
-44.63
-40.14
-32.50
-22.68
-12.08
-2.02
6.58
13.45
18.85
23.27
27.13
30.60
33.58
35.88
37.46
38.42
38.99
39.40
39.68
39.72
39.35
38.54
37.38
36.09
34.83
33.61
32.25
30.47
28.06
24.97
21.40
17.65
14.01
10.64
7.49
4.31
0.83
-3.20
-7.89
-13.15
-18.80
-24.58
-30.26
-35.67
-40.73
-45.48
-50.02
-54.48
-58.89
-63.06
-66.53
-68.64
-68.67
-66.07
-60.63
-52.59
-42.59
-31.50
-20.26
-9.73
-0.50
7.06
12.91
17.15
19.97
21.53
21.98
21.47
20.34
19.00
17.96
17.52
17.73
18.36
19.04
19.49
19.60
19.45
19.18
18.89
18.50
17.86
16.75
15.02
12.60
9.55
6.02
2.23
-1.57
-5.20
-8.54
-11.59
-14.45
-17.30
-20.33
-23.76
-27.81
-32.53
-37.73
-42.91
-47.20
-49.62
-49.33
-45.92
-39.59
-31.09
-21.55
-12.11
-3.66
3.36
8.87
13.10
16.36
18.91
20.89
22.34
23.22
23.53
23.36
22.87
22.31
21.92
21.87
22.20
22.76
23.31
23.58
23.35
22.54
21.21
19.52
17.62
15.60
13.45
11.05
8.32
5.20
1.76
-1.85
-5.41
-8.75
-11.78
-14.54
-17.15
-19.79
-22.66
-25.98
-29.90
-34.44
-39.32
-43.94
-47.45
-48.94
-47.72
-43.55
-36.77
-28.20
-18.87
-9.78
-1.66
5.18
10.74
15.25
18.93
21.93
24.29
26.01
27.17
27.88
28.35
28.77
29.26
29.81
30.37
30.86
31.20
31.38
31.36
31.13
30.68
29.99
29.01
27.65
25.83
23.51
20.81
17.98
15.35
13.10
11.21
9.43
7.43
4.93
1.93
-1.37
-4.65
-7.67
-10.42
-13.04
-15.83
-19.09
-23.04
-27.71
-32.89
-38.13
-42.66
-45.61
-46.16
-43.88
-38.82
-31.58
-23.05
-14.24
-5.91
1.42
7.59
12.58
16.50
19.48
21.69
23.29
24.45
25.31
25.98
26.50
26.90
27.19
27.35
27.39
27.31
27.14
26.87
26.52
26.04
25.35
24.33
22.83
20.76
18.15
15.21
12.23
9.53
7.25
5.34
3.57
1.63
-0.70
-3.39
-6.27
-9.08
-11.63
-13.91
-16.04
-18.23
-20.71
-23.69
-27.31
-31.59
-36.35
-41.15
-45.32
-48.01
-48.45
-46.15
-41.08
-33.75
-25.06
-16.03
-7.52
-0.03
6.34
11.81
16.59
20.82
24.39
27.07
28.70
29.30
29.13
28.62
28.21
28.19
28.67
29.50
30.39
31.01
31.09
30.52
29.47
28.29
27.35
26.89
26.82
26.71
25.96
24.09
21.01
17.13
13.28
10.29
8.60
8.00
7.73
6.72
4.17
-0.11
-5.65
-11.53
-16.81
-20.86
-23.50
-25.09
-26.58
-29.62
-36.59
-50.01
-71.56
-100.81
-134.56
-167.29
-192.64
-205.58
-203.97
-189.07
-164.62
-135.29
-105.09
-76.63
-51.25
-29.58
-11.99
1.25
10.30
16.05
20.24
24.99
32.03
42.05
54.21
66.48
76.51
82.64
84.58
83.29
80.25
76.51
72.23
66.85
59.96
52.11
45.10
41.55
43.83
52.93
67.81
85.52
101.98
113.17
116.30
110.53
97.10
78.82
59.07
40.85
25.89
14.44
5.64
-1.85
-8.98
-15.95
-22.17
-26.75
-29.03
-28.98
-27.19
-24.50
-21.61
-18.74
-15.72
-12.24
-8.27
-4.15
-0.52
2.07
3.47
4.10
4.72
6.09
8.54
11.84
15.30
18.11
19.76
20.18
19.77
19.08
18.55
18.33
18.26
18.07
17.54
16.64
15.47
14.21
12.99
11.82
10.58
9.13
7.37
5.23
2.74
-0.05
-3.06
-6.23
-9.53
-12.91
-16.26
-19.39
-22.10
-24.21
-25.66
-26.59
-27.28
-28.08
-29.42
-31.66
-35.04
-39.55
-44.79
-49.95
-53.93
-55.61
-54.18
-49.37
-41.52
-31.48
-20.40
-9.40
0.63
9.14
16.02
21.42
25.66
29.05
31.77
33.87
35.31
36.07
36.14
35.59
34.45
32.74
30.49
27.81
24.97
22.40
20.57
19.89
20.48
22.05
23.95
25.41
25.85
25.11
23.52
21.66
20.10
19.16
18.83
18.88
19.00
18.91
18.39
17.27
15.41
12.72
9.18
4.87
-0.05
-5.35
-10.73
-15.81
-20.29
-23.99
-27.00
-29.56
-32.04
-34.72
-37.77
-41.20
-44.96
-48.94
-52.88
-56.30
-58.45
-58.46
-55.66
-49.87
-41.52
-31.56
-21.15
-11.25
-2.46
5.11
11.59
17.18
21.97
25.91
28.90
30.87
31.93
32.28
32.16
31.81
31.30
30.66
29.84
28.84
27.74
26.62
25.59
24.67
23.84
22.98
22.00
20.76
19.24
17.43
15.46
13.41
11.44
9.57
7.80
6.01
4.07
1.97
-0.25
-2.39
-4.21
-5.54
-6.38
-6.96
-7.61
-8.64
-10.18
-12.13
-14.21
-16.16
-17.87
-19.48
-21.29
-23.60
-26.66
-30.51
-35.02
-39.90
-44.67
-48.67
-51.10
-51.23
-48.62
-43.35
-36.03
-27.66
-19.27
-11.68
-5.31
-0.21
3.76
6.78
9.03
10.61
11.64
12.30
12.77
13.18
13.60
14.01
14.35
14.54
14.60
14.58
14.61
14.80
15.21
15.74
16.18
16.28
15.86
14.87
13.43
11.77
10.08
8.46
6.91
5.37
3.80
2.26
0.83
-0.42
-1.49
-2.50
-3.64
-5.04
-6.73
-8.64
-10.59
-12.44
-14.09
-15.55
-16.90
-18.27
-19.84
-21.79
-24.26
-27.31
-30.79
-34.22
-36.93
-38.11
-37.11
-33.68
-28.02
-20.85
-13.11
-5.69
0.73
5.81
9.55
12.12
13.79
14.77
15.30
15.52
15.58
15.56
15.54
15.52
15.50
15.49
15.48
15.54
15.64
15.77
15.85
15.79
15.52
14.97
14.12
12.95
11.43
9.57
7.42
5.17
3.04
1.25
-0.15
-1.27
-2.39
-3.83
-5.77
-8.23
-11.00
-13.80
-16.38
-18.63
-20.57
-22.36
-24.26
-26.49
-29.28
-32.70
-36.53
-40.24
-43.10
-44.36
-43.44
-40.23
-34.98
-28.24
-20.75
-13.19
-6.13
0.03
5.06
8.89
11.59
13.33
14.29
14.69
14.67
14.45
14.17
14.04
14.20
14.66
15.33
16.00
16.48
16.67
16.57
16.27
15.83
15.23
14.34
13.00
11.08
8.65
5.94
3.26
0.86
-1.18
-3.04
-5.01
-7.37
-10.26
-13.59
-17.08
-20.42
-23.37
-25.85
-27.95
-29.84
-31.73
-33.78
-36.02
-38.28
-40.13
-41.02
-40.32
-37.56
-32.65
-25.93
-18.17
-10.33
-3.30
2.34
6.47
9.30
11.24
12.62
13.60
14.14
14.15
13.51
12.16
9.98
6.78
2.45
-2.70
-7.85
-11.71
-13.07
-11.38
-7.23
-2.36
0.98
0.89
-3.44
-11.43
-21.41
-31.28
-39.21
-44.02
-45.23
-42.91
-37.58
-30.11
-21.69
-13.64
-7.12
-2.79
-0.64
0.03
0.17
0.69
2.00
3.97
6.08
7.75
8.61
8.66
8.29
8.06
8.55
10.11
12.79
16.29
20.08
23.65
26.61
28.84
30.40
31.46
32.17
32.55
32.54
32.03
30.93
29.26
27.18
24.96
22.92
21.33
20.34
19.96
20.06
20.48
21.07
21.74
22.45
23.17
23.86
24.47
24.86
24.94
24.66
24.05
23.22
22.27
21.21
19.94
18.24
15.84
12.56
8.42
3.66
-1.36
-6.23
-10.73
-14.87
-18.91
-23.26
-28.29
-34.20
-40.91
-48.03
-54.84
-60.45
-63.91
-64.45
-61.71
-55.87
-47.59
-37.85
-27.65
-17.78
-8.67
-0.47
6.89
13.50
19.33
24.30
28.29
31.28
33.38
34.80
35.72
36.30
36.53
36.39
35.87
35.02
34.01
33.02
32.16
31.41
30.64
29.66
28.33
26.60
24.60
22.55
20.71
19.29
18.35
17.78
17.31
16.62
15.49
13.88
11.96
10.02
8.28
6.75
5.23
3.35
0.75
-2.73
-6.96
-11.59
-16.16
-20.26
-23.69
-26.51
-29.04
-31.74
-35.06
-39.29
-44.41
-50.02
-55.31
-59.27
-60.89
-59.49
-54.93
-47.68
-38.66
-28.99
-19.64
-11.27
-4.15
1.76
6.67
10.85
14.48
17.68
20.44
22.67
24.35
25.52
26.41
27.33
28.53
30.11
31.97
33.86
35.51
36.77
37.57
37.92
37.81
37.20
36.05
34.42
32.44
30.34
28.29
26.39
24.62
22.93
21.23
19.42
17.45
15.27
12.89
10.37
7.88
5.55
3.45
1.49
-0.56
-2.92
-5.78
-9.12
-12.73
-16.32
-19.70
-22.80
-25.75
-28.74
-32.01
-35.70
-39.86
-44.43
-49.24
-53.93
-57.89
-60.34
-60.48
-57.77
-52.17
-44.23
-34.99
-25.61
-17.00
-9.60
-3.36
2.07
7.05
11.73
16.06
19.81
22.78
24.96
26.52
27.70
28.78
29.88
31.00
32.08
33.05
33.89
34.65
35.35
35.99
36.46
36.61
36.27
35.32
33.75
31.74
29.53
27.41
25.55
23.99
22.57
21.02
19.13
16.82
14.23
11.64
9.25
7.14
5.15
2.99
0.32
-3.01
-6.95
-11.20
-15.39
-19.23
-22.54
-25.39
-27.98
-30.62
-33.66
-37.40
-41.97
-47.21
-52.61
-57.30
-60.28
-60.65
-57.87
-52.04
-43.80
-34.23
-24.47
-15.45
-7.68
-1.27
3.94
8.20
11.65
14.32
16.17
17.20
17.59
17.65
17.74
18.07
18.72
19.59
20.50
21.31
22.01
22.63
23.21
23.70
23.90
23.53
22.39
20.43
17.85
15.02
12.29
9.90
7.86
5.99
4.06
1.86
-0.69
-3.59
-6.73
-9.97
-13.16
-16.24
-19.24
-22.35
-25.83
-29.90
-34.58
-39.53
-44.05
-47.25
-48.25
-46.54
-42.07
-35.33
-27.15
-18.43
-9.92
-2.10
4.85
10.83
15.81
19.69
22.43
24.11
24.94
25.25
25.35
25.48
25.73
26.11
26.57
27.07
27.56
28.02
28.36
28.54
28.49
28.15
27.48
26.40
24.80
22.64
19.96
16.93
13.84
10.97
8.50
6.43
4.57
2.65
0.50
-1.89
-4.38
-6.83
-9.27
-11.97
-15.32
-19.61
-24.69
-29.81
-33.71
-35.04
-32.81
-26.89
-18.12
-8.05
1.62
9.40
14.39
15.97
13.56
6.45
-5.90
-23.26
-44.11
-65.73
-84.97
-99.26
-107.21
-108.66
-104.15
-94.43
-80.38
-63.42
-45.84
-30.51
-19.88
-14.68
-13.26
-12.09
-7.33
3.40
19.87
39.28
57.54
70.76
76.62
74.97
67.60
57.36
47.18
39.10
33.82
30.76
28.57
25.80
21.38
14.86
6.30
-3.88
-15.00
-26.10
-35.91
-42.97
-45.99
-44.22
-37.88
-28.12
-16.72
-5.52
4.12
11.66
17.32
21.81
25.84
29.85
33.81
37.37
40.05
41.56
41.93
41.44
40.54
39.63
38.96
38.57
38.34
38.05
37.44
36.38
34.86
33.00
30.98
28.94
26.91
24.81
22.53
20.03
17.41
14.81
12.34
10.00
7.65
5.03
1.89
-1.92
-6.42
-11.51
-16.95
-22.42
-27.55
-32.02
-35.66
-38.50
-40.87
-43.22
-46.00
-49.44
-53.32
-57.06
-59.77
-60.51
-58.55
-53.60
-45.90
-36.15
-25.34
-14.50
-4.44
4.41
12.02
18.55
24.18
28.93
32.64
35.13
36.37
36.59
36.23
35.79
35.61
35.82
36.35
37.04
37.78
38.51
39.19
39.80
40.26
40.45
40.29
39.74
38.81
37.58
36.16
34.65
33.13
31.61
30.00
28.15
25.94
23.32
20.37
17.21
13.98
10.71
7.34
3.73
-0.19
-4.37
-8.68
-12.98
-17.20
-21.43
-25.87
-30.73
-36.10
-41.84
-47.71
-53.38
-58.60
-63.30
-67.61
-71.83
-76.34
-81.54
-87.71
-94.86
-102.56
-109.99
-116.02
-119.57
-119.96
-117.09
-111.35
-103.35
-93.54
-81.94
-68.24
-51.99
-32.98
-11.48
11.70
35.29
57.90
78.28
95.62
109.65
120.70
129.47
136.76
143.22
149.19
154.69
159.67
164.05
167.84
171.01
173.33
174.28
173.08
168.82
160.70
148.36
131.98
112.31
90.59
68.26
46.70
26.98
9.80
-4.50
-15.83
-24.27
-30.10
-33.78
-36.02
-37.64
-39.38
-41.64
-44.41
-47.32
-49.80
-51.47
-52.23
-52.38
-52.45
-52.91
-54.05
-55.82
-57.90
-59.88
-61.40
-62.33
-62.83
-63.23
-63.98
-65.48
-67.93
-71.10
-74.34
-76.60
-76.74
-73.87
-67.68
-58.61
-47.67
-36.17
-25.28
-15.69
-7.63
-0.91
4.78
9.64
13.74
17.03
19.45
21.11
22.23
23.13
24.08
25.23
26.51
27.80
28.94
29.87
30.63
31.30
31.92
32.45
32.69
32.42
31.47
29.80
27.58
25.11
22.71
20.57
18.78
17.23
15.73
14.11
12.24
10.13
7.88
5.61
3.41
1.35
-0.64
-2.64
-4.80
-7.22
-9.98
-13.09
-16.47
-19.96
-23.32
-26.38
-29.05
-31.39
-33.68
-36.29
-39.60
-43.75
-48.59
-53.52
-57.64
-59.93
-59.52
-55.95
-49.35
-40.38
-30.09
-19.64
-9.99
-1.71
5.06
10.51
14.96
18.67
21.76
24.21
25.94
26.97
27.40
27.45
27.33
27.18
27.07
27.00
27.02
27.17
27.50
27.99
28.49
28.76
28.51
27.54
25.79
23.39
20.56
17.52
14.51
11.62
8.93
6.44
4.14
1.97
-0.13
-2.26
-4.55
-7.13
-10.08
-13.35
-16.81
-20.24
-23.51
-26.58
-29.61
-32.89
-36.73
-41.35
-46.78
-52.77
-58.74
-63.84
-67.08
-67.47
-64.33
-57.51
-47.52
-35.38
-22.45
-10.02
0.89
9.72
16.30
20.73
23.29
24.30
24.15
23.28
22.12
21.01
20.21
19.75
19.47
19.12
18.48
17.41
16.01
14.57
13.40
12.72
12.52
12.54
12.43
11.86
10.79
9.41
8.10
7.15
6.67
6.44
6.07
5.15
3.39
0.82
-2.34
-5.76
-9.13
-12.38
-15.67
-19.36
-23.86
-29.41
-35.90
-42.82
-49.29
-54.25
-56.77
-56.29
-52.77
-46.65
-38.72
-29.93
-21.12
-12.91
-5.61
0.70
6.11
10.76
14.78
18.23
21.14
23.54
25.47
27.03
28.32
29.39
30.26
30.85
31.09
30.93
30.40
29.59
28.58
27.40
25.96
24.13
21.78
18.96
15.87
12.83
10.08
7.70
5.47
3.07
0.19
-3.26
-7.12
-11.02
-14.58
-17.60
-20.14
-22.51
-25.14
-28.45
-32.70
-37.87
-43.60
-49.19
-53.70
-56.17
-55.86
-52.48
-46.28
-38.04
-28.75
-19.44
-10.80
-3.16
3.53
9.44
14.74
19.43
23.39
26.49
28.67
30.02
30.77
31.20
31.54
31.89
32.29
32.71
33.12
33.49
33.82
34.03
34.00
33.57
32.56
30.90
28.60
25.79
22.66
19.42
16.30
13.41
10.82
8.52
6.35
4.11
1.61
-1.31
-4.65
-8.31
-12.13
-15.92
-19.53
-22.93
-26.18
-29.45
-33.00
-37.05
-41.72
-46.79
-51.71
-55.64
-57.62
-56.92
-53.25
-46.86
-38.48
-29.07
-19.55
-10.55
-2.41
4.86
11.34
17.10
22.10
26.22
29.35
31.47
32.77
33.56
34.18
34.88
35.73
36.63
37.41
37.90
38.06
37.93
37.59
37.07
36.32
35.25
33.76
31.85
29.64
27.32
25.12
23.16
21.44
19.81
18.07
16.02
13.56
10.75
7.75
4.73
1.83
-0.95
-3.67
-6.51
-9.62
-13.11
-16.92
-20.87
-24.72
-28.22
-31.34
-34.25
-37.33
-41.05
-45.72
-51.36
-57.54
-63.42
-67.91
-69.94
-68.77
-64.22
-56.74
-47.30
-37.08
-27.14
-18.16
-10.39
-3.70
2.10
7.17
11.49
14.95
17.49
19.20
20.39
21.45
22.74
24.46
26.60
28.97
31.34
33.54
35.49
37.16
38.52
39.48
39.88
39.53
38.38
36.48
34.12
31.70
29.59
28.01
26.92
25.99
24.80
23.01
20.47
17.35
14.09
11.16
8.93
7.50
6.64
5.87
4.64
2.52
-0.64
-4.59
-8.80
-12.61
-15.58
-17.67
-19.22
-20.83
-23.12
-26.50
-31.07
-36.53
-42.21
-47.18
-50.38
-50.90
-48.39
-43.28
-36.88
-30.93
-27.01
-25.94
-27.45
-30.50
-33.77
-36.24
-37.50
-37.70
-37.12
-35.94
-34.04
-31.23
-27.49
-23.07
-18.39
-13.73
-9.05
-3.91
2.34
10.24
19.97
31.16
42.97
54.21
63.72
70.62
74.59
75.85
75.05
72.97
70.18
66.94
63.20
58.89
54.07
49.01
44.07
39.48
35.20
30.90
26.20
20.90
15.13
9.27
3.79
-1.04
-5.15
-8.73
-12.11
-15.66
-19.70
-24.38
-29.55
-34.66
-38.88
-41.29
-41.24
-38.59
-33.86
-27.87
-21.52
-15.39
-9.73
-4.56
0.09
4.16
7.51
10.11
12.10
13.72
15.25
16.85
18.56
20.23
21.67
22.71
23.21
23.20
22.81
22.29
21.89
21.76
21.87
22.00
21.84
21.14
19.84
18.03
16.00
14.06
12.52
11.55
11.18
11.25
11.49
11.59
11.31
10.52
9.29
7.74
5.98
3.99
1.66
-1.23
-4.80
-9.09
-13.92
-18.99
-23.83
-27.88
-30.49
-31.11
-29.43
-25.51
-19.90
-13.39
-6.89
-1.06
3.80
7.64
10.63
12.88
14.40
15.14
15.08
14.34
13.16
11.86
10.72
9.88
9.34
9.00
8.75
8.45
8.02
7.38
6.48
5.31
3.94
2.46
0.99
-0.41
-1.75
-3.08
-4.47
-5.93
-7.47
-9.07
-10.71
-12.44
-14.25
-16.11
-17.97
-19.89
-22.01
-24.62
-27.95
-31.99
-36.35
-40.23
-42.71
-42.98
-40.69
-36.02
-29.63
-22.40
-15.21
-8.68
-3.14
1.36
4.96
7.85
10.14
11.88
13.04
13.62
13.68
13.39
12.96
12.57
12.36
12.31
12.38
12.42
12.32
12.04
11.56
10.92
10.19
9.40
8.54
7.47
6.03
4.12
1.71
-1.09
-4.09
-7.11
-10.03
-12.80
-15.40
-17.83
-20.08
-22.27
-24.62
-27.38
-30.74
-34.53
-38.23
-40.96
-41.84
-40.26
-36.16
-30.04
-22.77
-15.32
-8.45
-2.60
2.12
5.80
8.65
10.87
12.61
13.92
14.82
15.35
15.60
15.76
16.02
16.53
17.29
18.17
18.94
19.41
19.47
19.14
18.46
17.49
16.20
14.56
12.58
10.37
8.07
5.77
3.45
0.93
-1.94
-5.24
-8.89
-12.66
-16.23
-19.39
-22.12
-24.52
-26.87
-29.43
-32.43
-35.90
-39.62
-43.08
-45.60
-46.44
-45.16
-41.76
-36.72
-30.91
-25.22
-20.28
-16.29
-13.05
-10.17
-7.33
-4.44
-1.60
0.97
3.19
5.17
7.06
9.04
11.09
13.01
14.52
15.43
15.77
15.81
15.90
16.31
17.08
18.00
18.74
19.03
18.72
17.85
16.60
15.18
13.80
12.59
11.52
10.40
8.86
6.57
3.34
-0.69
-5.02
-9.06
-12.35
-14.84
-16.96
-19.49
-23.29
-28.90
-36.30
-44.76
-52.93
-59.09
-61.60
-59.31
-51.99
-40.38
-26.00
-10.70
3.80
16.32
26.32
33.81
39.17
42.89
45.42
47.16
48.41
49.38
50.18
50.75
50.90
50.30
48.66
45.83
41.96
37.48
32.97
28.94
25.74
23.36
21.55
19.91
18.07
15.80
13.00
9.65
5.80
1.50
-3.12
-7.89
-12.53
-16.76
-20.43
-23.51
-26.16
-28.63
-31.17
-33.91
-36.79
-39.56
-41.78
-42.96
-42.66
-40.66
-37.02
-32.08
-26.30
-20.12
-13.91
-7.89
-2.28
2.74
7.03
10.57
13.52
16.07
18.31
20.13
21.30
21.66
21.26
20.43
19.57
18.96
18.62
18.29
17.71
16.69
15.24
13.49
11.55
9.46
7.11
4.37
1.20
-2.39
-6.25
-10.15
-13.85
-17.09
-19.75
-21.87
-23.67
-25.53
-27.85
-30.87
-34.52
-38.37
-41.69
-43.62
-43.42
-40.72
-35.62
-28.65
-20.59
-12.31
-4.54
2.20
7.62
11.66
14.43
16.19
17.26
17.91
18.33
18.53
18.49
18.18
17.69
17.15
16.72
16.45
16.25
15.99
15.49
14.72
13.71
12.57
11.31
9.90
8.18
5.97
3.20
-0.08
-3.64
-7.20
-10.47
-13.28
-15.69
-17.91
-20.33
-23.33
-27.15
-31.76
-36.75
-41.44
-44.91
-46.28
-44.94
-40.78
-34.16
-25.91
-17.04
-8.52
-1.02
5.14
10.01
13.81
16.82
19.27
21.23
22.75
23.86
24.66
25.28
25.87
26.45
26.89
27.04
26.72
25.91
24.70
23.28
21.81
20.38
18.96
17.49
15.87
14.00
11.76
9.10
5.96
2.41
-1.35
-5.07
-8.53
-11.61
-14.41
-17.14
-20.07
-23.43
-27.38
-31.99
-37.09
-42.29
-46.94
-50.14
-51.04
-49.01
-43.92
-36.26
-26.94
-17.11
-7.78
0.39
7.17
12.70
17.26
21.16
24.55
27.42
29.70
31.30
32.23
32.61
32.65
32.58
32.57
32.64
32.73
32.70
32.47
32.01
31.35
30.52
29.47
28.12
26.36
24.10
21.36
18.26
14.96
11.69
8.59
5.71
2.96
0.17
-2.90
-6.37
-10.20
-14.20
-18.03
-21.41
-24.28
-26.82
-29.46
-32.68
-36.86
-42.07
-47.99
-53.88
-58.72
-61.44
-61.23
-57.77
-51.30
-42.56
-32.59
-22.47
-13.00
-4.65
2.57
8.97
15.09
21.42
28.19
35.30
42.36
48.96
54.89
60.21
65.22
70.10
74.72
78.60
81.10
81.64
80.03
76.34
70.82
63.65
54.94
44.84
33.71
22.25
11.35
1.86
-5.69
-11.27
-15.28
-18.34
-21.00
-23.49
-25.73
-27.45
-28.40
-28.57
-28.26
-27.92
-27.91
-28.34
-28.97
-29.37
-29.20
-28.42
-27.32
-26.38
-26.10
-26.84
-28.76
-31.73
-35.40
-39.14
-42.10
-43.42
-42.45
-38.99
-33.44
-26.63
-19.56
-13.06
-7.52
-2.90
1.09
4.73
8.18
11.35
14.09
16.36
18.29
20.21
22.47
25.24
28.41
31.58
34.24
36.02
36.82
36.87
36.57
36.26
35.99
35.58
34.67
33.06
30.76
28.09
25.46
23.13
21.12
19.17
16.96
14.34
11.45
8.62
6.22
4.47
3.29
2.45
1.60
0.45
-1.20
-3.51
-6.51
-10.17
-14.24
-18.38
-22.23
-25.55
-28.46
-31.35
-34.86
-39.46
-45.28
-51.90
-58.45
-63.83
-67.05
-67.52
-65.23
-60.62
-54.45
-47.54
-40.51
-33.74
-27.31
-21.16
-15.17
-9.24
-3.29
2.78
9.03
15.52
22.16
28.79
35.14
40.96
46.11
50.59
54.47
57.77
60.31
61.74
61.68
59.87
56.33
51.39
45.61
39.59
33.80
28.59
24.04
20.13
16.72
13.54
10.39
7.10
3.73
0.52
-2.07
-3.55
-3.56
-2.12
0.34
3.03
5.02
5.56
4.34
1.52
-2.33
-6.54
-10.60
-14.39
-18.07
-22.01
-26.51
-31.63
-37.08
-42.28
-46.43
-48.72
-48.54
-45.58
-40.10
-32.75
-24.50
-16.32
-8.96
-2.79
2.20
6.21
9.48
12.14
14.23
15.73
16.73
17.38
17.89
18.41
18.99
19.59
20.13
20.54
20.82
21.00
21.09
21.01
20.65
19.91
18.76
17.29
15.68
14.09
12.54
10.94
9.06
6.70
3.77
0.35
-3.29
-6.88
-10.17
-13.05
-15.51
-17.60
-19.44
-21.17
-22.96
-24.98
-27.29
-29.74
-32.03
-33.72
-34.47
-34.19
-33.12
-31.80
-30.85
-30.69
-31.35
-32.34
-32.79
-31.79
-28.67
-23.31
-16.12
-7.88
0.46
8.11
14.58
19.68
23.46
26.12
27.83
28.73
28.86
28.30
27.22
25.90
24.74
24.12
24.26
25.06
26.18
27.18
27.74
27.76
27.35
26.70
25.92
25.03
23.96
22.72
21.41
20.22
19.30
18.62
18.01
17.16
15.81
13.89
11.53
9.00
6.58
4.49
2.71
1.10
-0.60
-2.65
-5.17
-8.15
-11.42
-14.71
-17.77
-20.39
-22.49
-24.15
-25.58
-27.09
-29.08
-31.83
-35.46
-39.77
-44.31
-48.39
-51.26
-52.36
-51.35
-48.27
-43.45
-37.50
-31.15
-25.12
-19.91
-15.76
-12.56
-10.02
-7.80
-5.68
-3.57
-1.49
0.57
2.71
5.10
7.87
11.01
14.38
17.76
20.92
23.79
26.38
28.72
30.78
32.37
33.27
33.31
32.48
31.01
29.32
27.78
26.63
25.78
24.96
23.77
21.94
19.44
16.51
13.47
10.61
8.04
5.65
3.23
0.54
-2.55
-5.96
-9.45
-12.73
-15.56
-17.90
-19.95
-22.03
-24.48
-27.44
-30.73
-33.89
-36.20
-36.94
-35.56
-31.90
-26.23
-19.19
-11.64
-4.37
2.08
7.48
11.89
15.43
18.16
20.04
21.07
21.40
21.39
21.50
22.09
23.28
24.85
26.42
27.58
28.10
27.97
27.35
26.46
25.46
24.40
23.22
21.84
20.16
18.16
15.83
13.19
10.28
7.16
3.91
0.62
-2.63
-5.79
-8.87
-11.87
-14.76
-17.42
-19.74
-21.63
-23.21
-24.82
-26.84
-29.56
-33.01
-36.81
-40.35
-42.85
-43.59
-42.08
-38.13
-31.97
-24.18
-15.66
-7.39
-0.20
5.45
9.51
12.19
13.84
14.70
14.87
14.36
13.25
11.69
9.93
8.21
6.69
5.44
4.47
3.74
3.26
3.02
2.94
2.88
2.62
1.97
0.88
-0.51
-1.90
-2.92
-3.33
-3.07
-2.29
-1.27
-0.23
0.74
1.71
2.78
3.97
5.06
5.62
5.14
3.17
-0.50
-5.71
-11.99
-18.57
-24.51
-28.87
-30.87
-30.11
-26.74
-21.43
-15.24
-9.27
-4.36
-0.94
1.05
2.01
2.39
2.58
2.76
2.92
2.91
2.64
2.16
1.59
1.15
1.03
1.30
1.95
2.87
3.98
5.17
6.38
7.51
8.42
8.98
9.08
8.74
8.07
7.26
6.42
5.51
4.32
2.48
-0.29
-4.06
-8.55
-13.23
-17.53
-21.07
-23.89
-26.40
-29.17
-32.65
-36.90
-41.52
-45.69
-48.47
-49.04
-46.93
-42.14
-35.16
-26.84
-18.14
-9.95
-2.82
3.01
7.66
11.48
14.74
17.56
19.86
21.48
22.33
22.56
22.55
22.72
23.37
24.51
25.92
27.18
27.94
28.04
27.44
26.26
24.64
22.70
20.58
18.35
16.07
13.78
11.48
9.17
6.89
4.68
2.61
0.69
-1.11
-2.94
-4.97
-7.45
-10.58
-14.48
-19.09
-24.08
-28.82
-32.49
-34.25
-33.54
-30.31
-25.08
-18.82
-12.60
-7.28
-3.19
-0.20
2.13
4.21
6.17
7.90
9.09
9.55
9.32
8.65
7.90
7.32
6.98
6.85
6.90
7.21
7.87
8.90
10.17
11.39
12.28
12.67
12.59
12.14
11.32
10.04
8.16
5.69
2.91
0.27
-1.75
-2.92
-3.35
-3.44
-3.73
-4.71
-6.74
-10.02
-14.62
-20.41
-26.91
-33.32
-38.52
-41.43
-41.26
-37.81
-31.52
-23.29
-14.20
-5.18
3.14
10.45
16.64
21.70
25.61
28.36
29.96
30.53
30.27
29.50
28.59
27.89
27.64
27.88
28.42
28.93
29.05
28.61
27.65
26.43
25.24
24.24
23.39
22.48
21.34
19.91
18.34
16.86
15.64
14.61
13.50
11.89
9.44
6.05
1.97
-2.26
-5.98
-8.73
-10.47
-11.66
-13.07
-15.54
-19.57
-25.15
-31.74
-38.38
-43.96
-47.44
-48.08
-45.61
-40.27
-32.86
-24.52
-16.48
-9.70
-4.55
-0.75
2.47
5.99
10.43
15.90
21.99
27.94
33.04
36.78
39.06
40.14
40.43
40.38
40.37
40.64
41.37
42.59
44.20
45.96
47.48
48.38
48.42
47.54
45.88
43.69
41.24
38.66
35.93
32.93
29.51
25.60
21.21
16.57
12.00
7.94
4.81
2.88
2.14
2.24
2.50
2.20
0.79
-1.82
-5.28
-8.98
-12.37
-15.31
-18.09
-21.35
-25.72
-31.45
-38.33
-45.67
-52.66
-58.63
-63.34
-67.07
-70.46
-74.35
-79.43
-85.97
-93.65
-101.53
-108.22
-112.15
-111.92
-106.61
-96.04
-80.81
-62.23
-42.06
-22.15
-3.99
11.48
24.06
34.10
42.33
49.48
56.12
62.57
68.93
75.15
81.13
86.68
91.57
95.52
98.29
99.79
100.14
99.59
98.40
96.71
94.48
91.51
87.67
82.93
77.42
71.46
65.34
59.33
53.55
48.10
42.95
38.07
33.32
28.50
23.42
17.94
12.19
6.48
1.33
-2.77
-5.53
-6.98
-7.58
-8.04
-9.15
-11.43
-14.99
-19.52
-24.42
-29.09
-33.15
-36.55
-39.46
-42.08
-44.57
-46.98
-49.36
-51.77
-54.40
-57.34
-60.60
-64.00
-67.34
-70.45
-73.26
-75.71
-77.56
-78.32
-77.30
-73.89
-67.83
-59.45
-49.56
-39.18
-29.25
-20.33
-12.57
-5.85
0.03
5.17
9.57
13.18
16.00
18.18
19.96
21.63
23.37
25.24
27.12
28.87
30.38
31.66
32.73
33.62
34.28
34.62
34.54
34.01
33.11
31.93
30.58
29.13
27.59
26.00
24.35
22.65
20.86
18.93
16.86
14.71
12.58
10.61
8.85
7.24
5.62
3.82
1.74
-0.59
-3.03
-5.41
-7.58
-9.52
-11.34
-13.23
-15.46
-18.16
-21.36
-24.83
-28.27
-31.34
-33.91
-36.08
-38.27
-40.98
-44.55
-49.04
-54.04
-58.80
-62.38
-63.85
-62.51
-57.95
-50.19
-39.76
-27.66
-15.20
-3.77
5.55
12.24
16.42
18.75
20.02
20.86
21.58
22.19
22.54
22.61
22.52
22.55
22.98
23.95
25.44
27.26
29.14
30.81
32.02
32.58
32.40
31.46
29.85
27.75
25.36
22.89
20.46
18.14
15.90
13.61
11.17
8.45
5.44
2.31
-0.65
-3.15
-5.04
-6.49
-7.95
-10.03
-13.28
-17.89
-23.64
-29.88
-35.74
-40.43
-43.46
-44.89
-45.28
-45.51
-46.43
-48.41
-51.08
-53.42
-54.03
-51.71
-45.94
-37.03
-26.05
-14.40
-3.36
6.16
13.75
19.44
23.51
26.34
28.30
29.63
30.39
30.54
30.09
29.16
28.08
27.34
27.40
28.47
30.40
32.67
34.54
35.26
34.31
31.57
27.37
22.35
17.29
12.82
9.23
6.48
4.29
2.37
0.63
-0.88
-2.04
-2.79
-3.24
-3.61
-4.16
-5.00
-6.05
-7.08
-7.88
-8.41
-8.88
-9.64
-11.13
-13.56
-16.93
-21.05
-25.65
-30.54
-35.57
-40.53
-44.97
-48.20
-49.42
-48.10
-44.16
-38.13
-30.94
-23.64
-17.11
-11.82
-7.89
-5.13
-3.22
-1.79
-0.52
0.82
2.37
4.14
6.07
8.06
10.07
12.13
14.40
17.05
20.21
23.86
27.83
31.78
35.34
38.19
40.18
41.28
41.61
41.30
40.49
39.27
37.67
35.65
33.15
30.15
26.67
22.88
19.08
15.57
12.56
9.99
7.47
4.35
-0.03
-6.13
-13.89
-22.76
-31.76
-39.87
-46.41
-51.24
-54.89
-58.25
-62.20
-67.15
-72.78
-78.10
-81.73
-82.36
-79.20
-72.14
-61.72
-48.95
-34.99
-20.97
-7.82
3.85
13.75
21.87
28.42
33.62
37.62
40.49
42.28
43.12
43.23
42.94
42.51
42.08
41.69
41.37
41.15
41.03
40.85
40.23
38.63
35.59
31.07
25.51
19.72
14.54
10.47
7.56
5.46
3.69
1.79
-0.50
-3.30
-6.59
-10.22
-13.77
-16.57
-17.84
-16.92
-13.63
-8.29
-1.70
5.17
11.44
16.44
19.73
20.98
19.93
16.46
10.76
3.56
-3.92
-10.15
-13.67
-13.50
-9.48
-2.25
6.86
16.21
24.26
29.91
32.67
32.66
30.44
26.75
22.25
17.36
12.34
7.37
2.74
-1.18
-4.02
-5.56
-5.90
-5.28
-3.98
-2.14
0.24
3.17
6.44
9.60
12.01
13.15
12.91
11.70
10.30
9.55
9.99
11.60
13.86
16.02
17.35
17.44
16.30
14.25
11.85
9.81
8.82
9.32
11.12
13.20
13.86
11.22
3.99
-7.94
-23.20
-39.38
-53.75
-64.20
-69.83
-71.03
-69.04
-65.28
-60.82
-56.14
-51.33
-46.32
-41.22
-36.31
-31.86
-27.92
-24.16
-20.06
-15.28
-9.91
-4.57
-0.08
2.96
4.50
5.12
5.74
7.21
9.95
13.75
17.89
21.53
24.01
25.11
25.03
24.25
23.22
22.22
21.24
20.14
18.68
16.70
14.09
10.81
6.89
2.48
-2.20
-6.86
-11.23
-15.17
-18.71
-22.12
-25.82
-30.24
-35.66
-41.99
-48.68
-54.75
-58.99
-60.31
-58.07
-52.34
-43.83
-33.72
-23.27
-13.47
-4.84
2.52
8.75
14.09
18.65
22.37
25.19
27.06
28.09
28.55
28.69
28.71
28.68
28.52
28.19
27.77
27.40
27.28
27.47
27.87
28.23
28.25
27.72
26.58
24.91
22.87
20.67
18.49
16.43
14.50
12.66
10.80
8.84
6.69
4.34
1.80
-0.94
-3.90
-7.10
-10.54
-14.13
-17.76
-21.34
-24.85
-28.42
-32.32
-36.88
-42.30
-48.49
-54.93
-60.68
-64.55
-65.46
-62.77
-56.49
-47.33
-36.46
-25.16
-14.51
-5.18
2.57
8.77
13.60
17.27
19.93
21.75
22.92
23.68
24.28
24.94
25.81
26.95
28.41
30.27
32.73
35.97
40.01
44.61
49.15
52.74
54.54
54.07
51.38
47.07
42.07
37.29
33.34
30.38
28.26
26.66
25.32
24.09
22.90
21.74
20.53
19.16
17.54
15.62
13.42
11.04
8.55
6.01
3.44
0.85
-1.65
-3.90
-5.67
-6.83
-7.45
-7.86
-8.58
-10.12
-12.81
-16.66
-21.34
-26.35
-31.12
-35.24
-38.55
-41.26
-43.90
-47.28
-52.21
-59.11
-67.69
-76.78
-84.55
-89.04
-88.77
-83.29
-73.32
-60.47
-46.68
-33.62
-22.21
-12.61
-4.38
3.10
10.24
17.20
23.81
29.79
34.99
39.40
43.17
46.48
49.45
52.09
54.35
56.13
57.32
57.83
57.67
56.86
55.53
53.81
51.87
49.85
47.83
45.85
43.96
42.12
40.30
38.40
36.32
33.98
31.39
28.60
25.76
22.98
20.35
17.93
15.76
13.82
12.09
10.49
8.94
7.36
5.71
4.02
2.32
0.58
-1.32
-3.54
-6.22
-9.34
-12.73
-16.16
-19.44
-22.56
-25.64
-28.88
-32.36
-36.00
-39.50
-42.53
-44.86
-46.49
-47.69
-48.94
-50.76
-53.56
-57.40
-61.93
-66.31
-69.42
-70.01
-67.17
-60.57
-50.65
-38.58
-25.89
-14.07
-4.14
3.56
9.26
13.59
17.16
20.38
23.35
25.96
28.03
29.51
30.49
31.14
31.69
32.27
32.92
33.61
34.31
35.04
35.84
36.75
37.75
38.71
39.44
39.74
39.43
38.49
36.99
35.12
33.09
31.13
29.38
27.87
26.50
25.11
23.53
21.66
19.51
17.17
14.73
12.26
9.72
7.02
4.07
0.86
-2.48
-5.71
-8.55
-10.82
-12.54
-13.94
-15.44
-17.45
-20.25
-23.83
-27.92
-32.06
-35.80
-38.91
-41.46
-43.79
-46.43
-49.87
-54.31
-59.53
-64.86
-69.25
-71.57
-70.92
-66.87
-59.62
-49.91
-38.85
-27.62
-17.20
-8.17
-0.70
5.35
10.32
14.55
18.27
21.51
24.30
26.60
28.46
29.99
31.29
32.44
33.46
34.38
35.22
36.07
36.98
37.89
38.68
39.13
39.05
38.33
36.97
35.12
32.93
30.56
28.11
25.65
23.24
20.89
18.64
16.54
14.58
12.72
10.85
8.83
6.62
4.23
1.81
-0.46
-2.50
-4.38
-6.29
-8.44
-11.02
-14.06
-17.52
-21.31
-25.34
-29.47
-33.52
-37.27
-40.60
-43.61
-46.65
-50.27
-54.86
-60.39
-66.21
-71.15
-73.83
-73.17
-68.72
-60.83
-50.50
-39.06
-27.75
-17.46
-8.64
-1.30
4.81
9.97
14.42
18.27
21.53
24.20
26.22
27.65
28.58
29.17
29.59
29.96
30.32
30.65
30.91
31.05
31.07
30.91
30.46
29.52
27.85
25.32
21.97
18.07
14.04
10.30
7.17
4.79
3.15
2.23
1.99
2.36
3.20
4.23
5.08
5.37
4.86
3.53
1.51
-1.01
-3.88
-7.05
-10.56
-14.44
-18.62
-22.96
-27.26
-31.34
-35.12
-38.65
-42.11
-45.75
-49.69
-53.79
-57.52
-60.03
-60.32
-57.62
-51.65
-42.80
-31.98
-20.37
-9.02
1.31
10.33
18.03
24.56
30.08
34.71
38.58
41.79
44.53
46.96
49.23
51.40
53.49
55.37
56.88
57.79
57.93
57.26
55.88
54.00
51.80
49.38
46.72
43.69
40.22
36.29
32.01
27.55
23.08
18.67
14.34
10.08
5.94
2.01
-1.59
-4.86
-7.85
-10.77
-13.86
-17.37
-21.46
-26.21
-31.59
-37.43
-43.52
-49.56
-55.19
-60.04
-63.68
-65.74
-65.88
-63.93
-59.94
-54.24
-47.40
-40.13
-33.04
-26.53
-20.79
-15.85
-11.77
-8.59
-6.37
-4.99
-4.13
-3.26
-1.85
0.49
3.79
7.79
12.03
15.96
19.15
21.30
22.30
22.18
21.15
19.56
17.88
16.57
15.99
16.36
17.64
19.58
21.78
23.71
24.92
25.12
24.34
22.90
21.27
19.96
19.18
18.83
18.40
17.23
14.69
10.48
4.88
-1.28
-6.74
-10.13
-10.44
-7.28
-1.04
7.22
16.10
24.25
30.71
35.11
37.54
38.41
38.12
36.96
34.94
31.91
27.79
22.72
17.11
11.55
6.64
2.68
-0.28
-2.43
-3.94
-4.96
-5.54
-5.76
-5.87
-6.19
-7.08
-8.74
-11.17
-14.21
-17.62
-21.29
-25.20
-29.38
-33.86
-38.51
-43.13
-47.49
-51.45
-55.07
-58.59
-62.35
-66.61
-71.33
-76.09
-80.00
-82.00
-81.10
-76.76
-69.08
-58.74
-46.83
-34.50
-22.66
-11.86
-2.25
6.28
13.98
21.09
27.73
33.91
39.49
44.26
48.00
50.57
51.92
52.16
51.49
50.16
48.45
46.54
44.52
42.31
39.65
36.24
31.89
26.60
20.60
14.27
8.01
2.07
-3.45
-8.56
-13.35
-17.95
-22.46
-26.96
-31.50
-35.98
-40.23
-43.99
-47.06
-49.41
-51.16
-52.50
-53.50
-53.93
-53.21
-50.58
-45.31
-37.01
-25.71
-11.86
3.74
20.22
36.72
52.50
66.98
79.71
90.41
98.96
105.38
109.84
112.60
113.95
114.16
113.42
111.77
109.05
105.05
99.54
92.50
84.23
75.30
66.44
58.30
51.29
45.49
40.71
36.79
33.71
31.73
31.23
32.41
34.99
38.03
40.06
39.65
35.90
28.93
20.00
11.01
3.91
-0.01
-0.38
2.17
6.44
11.04
14.57
15.72
13.05
5.14
-9.08
-29.68
-55.28
-83.03
-109.18
-130.07
-143.06
-147.10
-142.73
-131.59
-115.85
-97.67
-78.88
-60.91
-44.60
-30.28
-17.81
-6.81
3.09
12.00
19.74
26.00
30.48
33.16
34.30
34.40
34.11
34.11
34.98
37.18
41.03
46.91
55.35
67.13
83.07
103.71
128.74
156.55
184.29
208.40
225.64
234.14
233.99
227.14
216.54
204.95
194.00
183.75
172.98
159.89
142.88
120.99
93.86
61.57
24.40
-16.84
-60.47
-103.67
-142.91
-174.76
-197.23
-210.59
-217.30
-220.96
-224.91
-230.94
-239.09
-248.31
-257.66
-267.05
-277.01
-287.62
-297.40
-303.01
-300.23
-285.85
-259.40
-223.79
-184.28
-146.39
-113.88
-87.84
-67.19
-50.20
-35.83
-24.30
-16.45
-12.65
-12.09
-12.75
-12.27
-9.01
-2.77
5.19
12.82
18.26
20.62
20.29
18.55
16.97
16.65
17.87
20.04
22.19
23.45
23.45
22.43
20.93
19.50
18.39
17.46
16.35
14.79
12.78
10.66
8.92
7.93
7.77
8.20
8.76
9.08
8.99
8.62
8.35
8.68
10.16
13.24
18.24
25.22
33.96
43.92
54.38
64.57
73.82
81.56
87.31
90.59
90.90
87.86
81.35
71.66
59.48
45.68
31.03
16.07
1.02
-14.10
-29.41
-45.08
-61.31
-78.29
-96.10
-114.45
-132.60
-149.34
-163.18
-172.72
-176.95
-175.42
-168.26
-156.03
-139.66
-120.34
-99.42
-78.24
-57.88
-38.96
-21.67
-5.87
8.69
22.19
34.60
45.80
55.60
63.96
70.99
77.01
82.58
88.34
94.95
102.72
111.50
120.54
128.61
134.34
136.61
134.90
129.47
121.31
111.91
102.94
95.78
91.29
89.69
90.73
93.96
98.94
105.25
112.38
119.49
125.40
128.69
128.18
123.22
113.82
100.61
84.42
66.08
46.24
25.45
4.32
-16.37
-35.78
-53.10
-67.82
-79.83
-89.59
-97.91
-105.80
-114.08
-123.09
-132.46
-141.15
-147.77
-150.97
-149.97
-144.72
-135.93
-124.72
-112.27
-99.38
-86.43
-73.42
-60.29
-47.14
-34.38
-22.57
-12.27
-3.72
3.16
8.75
13.46
17.62
21.41
24.84
27.95
30.80
33.53
36.21
38.82
41.26
43.31
44.79
45.58
45.68
45.13
44.03
42.47
40.52
38.26
35.76
33.06
30.16
27.04
23.63
19.98
16.17
12.40
8.89
5.81
3.17
0.83
-1.53
-4.22
-7.53
-11.57
-16.25
-21.30
-26.39
-31.12
-35.18
-38.42
-40.93
-43.06
-45.39
-48.54
-52.86
-58.28
-64.10
-69.17
-72.12
-71.73
-67.37
-59.15
-47.89
-34.91
-21.68
-9.42
1.08
9.57
16.24
21.45
25.62
29.05
31.93
34.35
36.37
38.00
39.26
40.19
40.84
41.34
41.84
42.49
43.31
44.22
45.04
45.54
45.53
44.86
43.51
41.58
39.25
36.76
34.34
32.16
30.26
28.59
27.02
25.39
23.60
21.54
19.17
16.47
13.47
10.30
7.14
4.24
1.77
-0.25
-1.91
-3.39
-4.90
-6.56
-8.50
-10.84
-13.69
-17.16
-21.21
-25.63
-30.04
-34.10
-37.71
-41.08
-44.69
-49.02
-54.27
-60.16
-65.97
-70.71
-73.39
-73.24
-69.87
-63.30
-53.94
-42.57
-30.21
-17.94
-6.70
2.90
10.65
16.73
21.50
25.37
28.65
31.51
34.00
36.20
38.18
40.02
41.77
43.45
44.99
46.31
47.34
48.09
48.60
48.92
49.08
49.02
48.68
48.01
47.01
45.76
44.32
42.73
40.91
38.69
35.89
32.39
28.16
23.25
17.79
11.88
5.70
-0.52
-6.35
-11.23
-14.58
-16.01
-15.53
-13.61
-11.12
-9.06
-8.24
-9.11
-11.64
-15.47
-20.07
-25.00
-30.03
-35.17
-40.58
-46.52
-53.12
-60.32
-67.70
-74.50
-79.65
-82.01
-80.69
-75.32
-66.16
-54.08
-40.26
-25.98
-12.28
0.13
10.85
19.74
26.79
32.18
36.11
38.90
40.85
42.19
42.99
43.21
42.65
41.10
38.37
34.42
29.38
23.57
17.46
11.57
6.36
2.14
-0.98
-3.01
-4.04
-4.10
-3.22
-1.41
1.10
3.94
6.60
8.60
9.65
9.75
9.10
7.95
6.48
4.64
2.30
-0.71
-4.42
-8.72
-13.39
-18.15
-22.80
-27.23
-31.54
-36.07
-41.25
-47.46
-54.73
-62.49
-69.49
-74.09
-74.77
-70.64
-61.88
-49.63
-35.63
-21.57
-8.61
2.91
13.28
23.09
32.83
42.65
52.28
61.10
68.41
73.55
76.16
76.23
74.19
70.76
66.73
62.73
58.95
55.17
50.89
45.66
39.25
31.76
23.53
14.86
5.98
-2.97
-11.81
-20.19
-27.56
-33.27
-36.81
-38.01
-37.07
-34.55
-31.13
-27.50
-24.22
-21.68
-20.12
-19.67
-20.38
-22.29
-25.30
-29.28
-34.00
-39.22
-44.82
-50.86
-57.67
-65.63
-74.90
-85.14
-95.36
-104.03
-109.47
-110.29
-105.74
-95.97
-81.78
-64.52
-45.74
-26.90
-9.26
6.28
19.18
29.33
36.95
42.59
46.87
50.32
53.27
55.73
57.56
58.55
58.71
58.18
57.27
56.26
55.29
54.39
53.60
53.12
53.26
54.32
56.35
59.04
61.78
63.89
64.93
64.78
63.67
61.97
60.02
58.05
56.10
54.12
52.00
49.62
46.85
43.60
39.87
35.83
31.74
27.85
24.25
20.68
16.61
11.32
4.22
-4.88
-15.62
-27.14
-38.31
-48.10
-55.89
-61.55
-65.38
-67.81
-69.10
-69.25
-67.95
-64.85
-59.68
-52.53
-43.82
-34.30
-24.88
-16.34
-9.23
-3.64
0.75
4.51
8.20
12.19
16.51
20.93
25.10
28.67
31.42
33.25
34.12
33.98
32.83
30.67
27.61
23.91
19.90
15.98
12.46
9.49
6.96
4.64
2.23
-0.47
-3.47
-6.60
-9.63
-12.41
-14.97
-17.50
-20.30
-23.62
-27.53
-31.98
-36.82
-41.91
-47.09
-52.11
-56.43
-59.31
-59.89
-57.52
-52.02
-43.78
-33.62
-22.61
-11.68
-1.57
7.24
14.54
20.25
24.50
27.59
29.89
31.72
33.29
34.65
35.78
36.76
37.75
38.95
40.44
42.09
43.63
44.72
45.15
44.91
44.15
43.06
41.70
40.05
37.99
35.41
32.30
28.69
24.67
20.38
15.99
11.67
7.61
3.89
0.43
-2.95
-6.53
-10.49
-14.87
-19.52
-24.25
-28.96
-33.76
-39.05
-45.31
-52.98
-62.21
-72.84
-84.19
-95.17
-104.30
-109.98
-110.87
-106.35
-96.74
-83.31
-67.94
-52.53
-38.49
-26.44
-16.23
-7.19
1.48
10.44
19.99
30.01
40.05
49.50
57.74
64.30
68.91
71.48
72.05
70.80
68.01
64.15
59.80
55.45
51.38
47.50
43.49
38.95
33.78
28.18
22.65
17.73
13.78
10.90
8.95
7.73
7.15
7.16
7.83
9.03
10.47
11.66
12.00
11.04
8.57
4.71
-0.06
-5.18
-10.08
-14.45
-18.32
-21.97
-25.88
-30.56
-36.33
-43.21
-50.73
-57.99
-63.73
-66.67
-65.86
-60.95
-52.33
-41.04
-28.38
-15.60
-3.57
7.31
17.06
25.87
33.88
41.03
47.03
51.58
54.56
56.17
56.94
57.47
58.22
59.33
60.65
61.84
62.52
62.33
60.94
58.05
53.46
47.16
39.55
31.41
23.74
17.51
13.32
11.25
10.91
11.59
12.49
12.92
12.42
10.87
8.47
5.64
2.84
0.42
-1.52
-3.08
-4.46
-5.85
-7.25
-8.61
-9.88
-11.14
-12.68
-14.89
-18.09
-22.40
-27.54
-32.88
-37.46
-40.22
-40.25
-37.12
-30.93
-22.44
-12.78
-3.20
5.34
12.30
17.65
21.61
24.49
26.47
27.53
27.60
26.68
25.00
23.04
21.41
20.53
20.51
21.04
21.60
21.80
21.60
21.38
21.74
23.09
25.34
27.77
29.34
29.10
26.73
22.70
18.23
14.74
13.31
14.14
16.42
18.62
19.03
16.62
11.42
4.65
-1.68
-5.61
-6.11
-3.63
-0.34
0.11
-6.69
-24.85
-56.57
-100.76
-152.22
-202.29
-240.86
-259.43
-253.85
-225.72
-181.64
-130.88
-82.27
-41.87
-12.08
7.70
19.61
25.93
28.45
28.43
27.08
25.72
25.71
27.96
32.48
38.22
43.46
46.53
46.65
44.19
40.50
37.18
35.36
35.16
35.72
35.59
33.46
28.67
21.50
13.00
4.58
-2.56
-7.90
-11.76
-15.09
-19.08
-24.67
-32.13
-40.95
-50.01
-58.01
-63.91
-67.37
-68.82
-69.30
-70.07
-72.24
-76.42
-82.46
-89.30
-94.80
-95.91
-89.31
-72.41
-44.73
-8.64
30.69
66.74
93.76
108.76
112.31
107.96
100.37
93.45
89.15
87.45
87.21
87.30
87.11
86.61
85.78
84.27
81.34
76.26
68.90
60.02
51.19
44.16
40.19
39.47
41.01
43.13
44.15
43.08
39.99
35.78
31.64
28.46
26.42
25.00
23.38
20.92
17.47
13.45
9.47
6.04
3.28
0.88
-1.72
-5.03
-9.29
-14.38
-19.89
-25.35
-30.40
-34.95
-39.23
-43.67
-48.70
-54.56
-61.02
-67.35
-72.39
-74.88
-73.83
-68.92
-60.57
-49.79
-37.86
-25.93
-14.75
-4.63
4.43
12.55
19.75
25.96
31.03
34.87
37.56
39.36
40.66
41.81
43.03
44.37
45.78
47.16
48.49
49.76
50.93
51.79
52.03
51.29
49.37
46.33
42.45
38.18
33.96
30.06
26.59
23.51
20.64
17.79
14.79
11.56
8.14
4.69
1.37
-1.74
-4.71
-7.77
-11.20
-15.18
-19.73
-24.64
-29.59
-34.30
-38.66
-42.78
-46.99
-51.70
-57.27
-63.83
-71.11
-78.39
-84.55
-88.29
-88.45
-84.35
-76.08
-64.43
-50.80
-36.74
-23.57
-12.09
-2.51
5.37
11.94
17.46
22.04
25.66
28.32
30.17
31.51
32.64
33.78
34.96
36.09
37.08
37.89
38.56
39.08
39.37
39.26
38.49
36.94
34.58
31.55
28.06
24.36
20.67
17.11
13.78
10.69
7.80
5.07
2.46
-0.07
-2.53
-4.95
-7.41
-10.01
-12.85
-16.05
-19.65
-23.59
-27.73
-31.85
-35.79
-39.55
-43.30
-47.45
-52.43
-58.47
-65.35
-72.35
-78.25
-81.63
-81.28
-76.61
-67.85
-56.02
-42.62
-29.13
-16.70
-5.91
3.19
10.87
17.44
23.08
27.85
31.68
34.58
36.66
38.10
39.14
39.97
40.71
41.38
41.96
42.38
42.56
42.48
42.08
41.32
40.11
38.34
35.91
32.79
29.04
24.81
20.30
15.60
10.73
5.63
0.24
-5.37
-10.96
-16.13
-20.37
-23.32
-24.87
-25.24
-24.97
-24.76
-25.20
-26.55
-28.78
-31.52
-34.32
-36.82
-38.83
-40.38
-41.66
-42.97
-44.67
-47.15
-50.64
-55.01
-59.66
-63.39
-64.78
-62.58
-56.14
-45.72
-32.46
-17.94
-3.78
8.78
19.11
27.13
33.14
37.63
41.08
43.91
46.50
49.11
51.86
54.79
57.75
60.58
63.10
65.21
66.91
68.25
69.33
70.15
70.69
70.82
70.39
69.30
67.49
65.01
62.00
58.65
55.14
51.64
48.17
44.65
40.84
36.41
31.17
25.05
18.28
11.18
4.14
-2.64
-9.14
-15.53
-22.02
-28.68
-35.38
-41.80
-47.54
-52.24
-55.71
-58.05
-59.58
-60.88
-62.57
-65.27
-69.28
-74.45
-80.01
-84.67
-86.91
-85.34
-79.23
-68.72
-54.93
-39.54
-24.37
-10.87
0.19
8.69
15.00
19.63
23.03
25.44
26.95
27.72
27.96
28.00
28.17
28.66
29.46
30.34
31.07
31.52
31.74
31.92
32.26
32.76
33.22
33.28
32.64
31.18
29.07
26.64
24.29
22.31
20.78
19.53
18.28
16.76
14.79
12.38
9.71
6.95
4.28
1.70
-0.96
-3.94
-7.46
-11.57
-16.11
-20.74
-25.11
-28.99
-32.38
-35.49
-38.70
-42.41
-46.92
-52.31
-58.38
-64.55
-69.84
-73.08
-73.12
-69.24
-61.38
-50.30
-37.32
-24.00
-11.72
-1.32
6.90
13.04
17.43
20.37
22.12
23.00
23.37
23.66
24.30
25.55
27.47
29.90
32.62
35.38
38.05
40.48
42.50
43.88
44.36
43.73
41.93
38.99
35.01
30.13
24.49
18.31
11.84
5.39
-0.75
-6.43
-11.66
-16.60
-21.43
-26.21
-30.88
-35.17
-38.84
-41.79
-44.22
-46.56
-49.43
-53.29
-58.25
-63.88
-69.18
-72.79
-73.37
-70.02
-62.51
-51.46
-38.10
-23.92
-10.34
1.64
11.48
19.05
24.51
28.10
30.13
30.93
30.85
30.22
29.34
28.41
27.56
26.84
26.27
25.88
25.63
25.47
25.29
24.91
24.16
22.90
21.04
18.57
15.58
12.19
8.60
5.06
1.84
-0.85
-2.89
-4.31
-5.30
-6.12
-7.01
-8.07
-9.31
-10.62
-12.00
-13.61
-15.82
-19.17
-24.11
-30.82
-38.94
-47.56
-55.27
-60.55
-62.15
-59.55
-53.03
-43.68
-32.93
-22.16
-12.33
-3.87
3.17
8.91
13.43
16.78
19.03
20.41
21.33
22.27
23.59
25.41
27.62
29.96
32.19
34.13
35.65
36.62
36.90
36.34
34.81
32.29
28.83
24.57
19.76
14.69
9.75
5.23
1.36
-1.90
-4.77
-7.60
-10.71
-14.30
-18.29
-22.41
-26.29
-29.64
-32.32
-34.53
-36.69
-39.38
-43.13
-48.22
-54.41
-60.97
-66.67
-70.08
-69.93
-65.46
-56.71
-44.49
-30.26
-15.64
-2.06
9.59
18.99
26.31
31.93
36.23
39.48
41.83
43.38
44.26
44.72
44.99
45.32
45.82
46.42
46.99
47.36
47.36
46.89
45.83
44.11
41.64
38.41
34.52
30.20
25.70
21.24
16.93
12.77
8.72
4.76
0.97
-2.51
-5.55
-8.02
-9.91
-11.29
-12.35
-13.35
-14.58
-16.33
-18.81
-22.12
-26.27
-31.24
-37.02
-43.63
-51.13
-59.35
-67.78
-75.33
-80.47
-81.51
-77.26
-67.46
-53.12
-36.31
-19.50
-4.82
6.55
14.54
19.88
23.58
26.48
29.03
31.39
33.66
35.98
38.55
41.48
44.62
47.66
50.23
52.15
53.52
54.60
55.61
56.51
56.93
56.37
54.41
50.97
46.34
41.02
35.57
30.42
25.88
22.09
19.04
16.61
14.47
12.27
9.76
6.84
3.68
0.51
-2.58
-5.71
-9.20
-13.33
-18.10
-23.20
-28.09
-32.23
-35.32
-37.49
-39.22
-41.23
-44.13
-48.16
-52.93
-57.42
-60.19
-59.87
-55.57
-47.34
-36.05
-23.15
-10.21
1.61
11.66
19.79
26.06
30.59
33.44
34.75
34.77
33.95
32.91
32.18
32.07
32.60
33.47
34.29
34.75
34.73
34.33
33.77
33.19
32.55
31.53
29.65
26.51
21.98
16.37
10.35
4.73
0.11
-3.32
-5.79
-7.86
-10.13
-13.05
-16.79
-21.29
-26.24
-31.33
-36.23
-40.72
-44.75
-48.45
-52.12
-56.05
-60.32
-64.56
-68.01
-69.59
-68.34
-63.66
-55.58
-44.71
-32.09
-18.92
-6.27
5.09
14.75
22.58
28.58
32.86
35.50
36.64
36.47
35.34
33.73
32.20
31.22
30.91
31.14
31.55
31.75
31.55
30.98
30.21
29.44
28.68
27.75
26.39
24.40
21.81
18.88
15.96
13.34
11.11
9.06
6.82
4.07
0.62
-3.43
-7.75
-11.95
-15.77
-19.16
-22.30
-25.64
-29.65
-34.77
-41.20
-48.69
-56.52
-63.49
-68.18
-69.31
-66.14
-58.72
-47.95
-35.25
-22.17
-9.97
0.58
9.30
16.35
22.01
26.53
30.00
32.46
33.99
34.77
35.14
35.44
35.95
36.74
37.67
38.49
38.96
39.01
38.71
38.23
37.65
36.90
35.71
33.78
30.91
27.13
22.72
18.16
13.89
10.18
7.05
4.21
1.24
-2.33
-6.69
-11.73
-16.99
-21.90
-25.99
-29.19
-31.86
-34.69
-38.41
-43.54
-50.12
-57.66
-65.24
-71.59
-75.37
-75.48
-71.32
-63.06
-51.59
-38.36
-24.92
-12.53
-1.93
6.73
13.60
18.97
23.07
25.97
27.79
28.70
29.01
29.11
29.35
29.88
30.63
31.34
31.74
31.66
31.07
30.11
28.92
27.58
25.99
23.93
21.14
17.41
12.82
7.67
2.54
-1.93
-5.19
-7.04
-7.70
-7.71
-7.74
-8.34
-9.78
-11.97
-14.60
-17.31
-19.90
-22.42
-25.14
-28.49
-32.89
-38.60
-45.62
-53.53
-61.51
-68.34
-72.62
-73.09
-68.97
-60.29
-47.91
-33.35
-18.40
-4.54
7.30
16.86
24.36
30.13
34.48
37.58
39.59
40.74
41.37
41.82
42.34
42.99
43.66
44.24
44.69
45.10
45.60
46.24
46.87
47.19
46.87
45.75
43.90
41.54
38.96
36.37
33.79
31.07
27.95
24.13
19.36
13.50
6.62
-0.96
-8.67
-15.77
-21.59
-25.80
-28.49
-30.15
-31.50
-33.28
-35.95
-39.63
-43.98
-48.26
-51.41
-52.36
-50.32
-45.04
-37.00
-27.17
-16.82
-7.04
1.48
8.51
14.19
18.78
22.54
25.62
28.15
30.22
31.99
33.67
35.43
37.34
39.32
41.12
42.39
42.78
42.08
40.28
37.56
34.18
30.48
26.67
22.92
19.31
15.93
12.89
10.29
8.14
6.27
4.37
2.02
-1.10
-5.13
-9.95
-15.19
-20.40
-25.18
-29.31
-32.80
-35.91
-38.96
-42.18
-45.45
-48.28
-49.88
-49.40
-46.34
-40.70
-33.07
-24.36
-15.52
-7.24
0.14
6.56
12.04
16.54
19.95
22.07
22.87
22.48
21.25
19.70
18.29
17.37
17.04
17.24
17.79
18.50
19.14
19.54
19.52
18.97
17.85
16.18
14.09
11.61
8.73
5.41
1.57
-2.72
-7.26
-11.74
-15.88
-19.54
-22.78
-25.90
-29.33
-33.51
-38.74
-45.03
-51.97
-58.72
-64.09
-66.82
-65.90
-60.91
-52.19
-40.75
-28.02
-15.44
-4.14
5.33
12.86
18.64
22.86
25.61
26.88
26.70
25.30
23.14
20.83
18.89
17.66
17.11
16.96
16.78
16.15
14.75
12.48
9.43
5.77
1.71
-2.70
-7.58
-13.14
-19.60
-27.03
-35.31
-44.16
-53.29
-62.38
-71.09
-78.94
-85.39
-89.88
-92.00
-91.59
-88.59
-82.98
-74.68
-63.65
-50.14
-34.88
-19.10
-4.20
8.68
19.07
27.32
34.38
41.36
49.17
58.20
68.32
78.94
89.30
98.50
105.69
110.19
111.54
109.67
104.85
97.71
89.06
79.66
70.15
60.90
52.07
43.68
35.65
27.89
20.30
12.84
5.57
-1.37
-7.72
-13.32
-18.16
-22.50
-26.78
-31.55
-37.24
-44.05
-51.78
-59.85
-67.28
-72.87
-75.39
-73.90
-68.00
-58.03
-45.06
-30.53
-15.94
-2.38
9.71
20.41
30.07
38.88
46.69
53.06
57.49
59.90
60.66
60.65
60.75
61.60
63.29
65.56
67.95
70.15
72.00
73.30
73.57
71.80
66.69
57.09
42.68
24.37
4.25
-15.13
-31.55
-43.88
-52.21
-57.42
-60.56
-62.28
-62.82
-62.35
-61.48
-61.47
-63.99
-70.37
-80.88
-94.38
-108.67
-121.20
-129.98
-134.15
-134.10
-131.02
-126.29
-121.06
-116.16
-112.16
-109.54
-108.54
-108.75
-108.83
-106.65
-99.96
-87.24
-68.32
-44.46
-17.71
10.05
37.79
65.48
93.62
122.53
151.84
180.43
206.91
230.08
249.36
264.73
276.44
284.66
289.24
289.78
285.91
277.58
265.18
249.46
231.21
210.92
188.74
164.51
138.02
109.20
78.38
46.25
13.82
-17.86
-47.82
-75.38
-100.29
-122.57
-142.32
-159.29
-172.75
-181.49
-184.32
-180.73
-171.32
-157.77
-142.25
-126.66
-111.98
-98.30
-85.27
-72.70
-60.95
-50.82
-43.09
-37.94
-34.72
-32.17
-28.91
-24.00
-17.21
-9.07
-0.47
7.65
14.66
20.33
24.68
27.91
30.11
31.32
31.46
30.56
28.73
26.24
23.32
20.10
16.46
12.14
6.86
0.54
-6.55
-13.88
-20.83
-27.00
-32.48
-37.79
-43.66
-50.66
-58.88
-67.68
-75.85
-81.89
-84.42
-82.53
-76.00
-65.29
-51.46
-35.88
-19.90
-4.70
8.98
20.80
30.73
38.86
45.30
50.09
53.28
55.01
55.54
55.26
54.58
53.81
53.10
52.39
51.51
50.30
48.61
46.35
43.44
39.80
35.39
30.28
24.65
18.84
13.17
7.90
3.06
-1.52
-6.12
-11.04
-16.42
-22.16
-27.94
-33.33
-37.91
-41.38
-43.73
-45.30
-46.70
-48.72
-51.99
-56.72
-62.38
-67.74
-71.12
-70.91
-66.13
-56.80
-43.97
-29.30
-14.58
-1.13
10.41
20.02
27.99
34.59
39.88
43.68
45.84
46.36
45.58
44.08
42.52
41.41
40.90
40.88
41.09
41.28
41.35
41.28
41.13
40.85
40.32
39.41
38.03
36.30
34.34
32.28
30.07
27.49
24.25
20.19
15.39
10.13
4.83
-0.18
-4.79
-9.13
-13.54
-18.39
-23.92
-30.18
-37.10
-44.51
-52.35
-60.60
-69.13
-77.47
-84.59
-89.06
-89.39
-84.65
-74.86
-61.19
-45.51
-29.83
-15.61
-3.54
6.45
14.71
21.53
26.95
30.82
33.06
33.85
33.71
33.34
33.40
34.26
35.88
37.89
39.74
40.98
41.39
41.07
40.33
39.51
38.74
37.87
36.55
34.42
31.37
27.60
23.57
19.76
16.40
13.40
10.42
7.08
3.17
-1.28
-6.04
-10.87
-15.55
-19.99
-24.10
-27.82
-31.17
-34.38
-37.85
-42.11
-47.54
-54.06
-60.94
-66.90
-70.38
-70.03
-65.23
-56.23
-44.11
-30.48
-16.94
-4.77
5.29
13.04
18.67
22.57
25.14
26.69
27.41
27.50
27.11
26.51
26.01
25.89
26.25
27.02
27.89
28.56
28.81
28.62
28.12
27.47
26.72
25.74
24.32
22.27
19.59
16.47
13.22
10.12
7.35
4.85
2.43
-0.18
-3.24
-6.89
-11.09
-15.63
-20.18
-24.37
-28.01
-31.07
-33.81
-36.64
-40.06
-44.51
-50.15
-56.66
-63.24
-68.54
-71.07
-69.60
-63.66
-53.72
-41.07
-27.39
-14.24
-2.63
6.98
14.59
20.37
24.50
27.14
28.50
28.89
28.72
28.42
28.32
28.60
29.23
30.07
30.89
31.55
31.97
32.22
32.37
32.43
32.29
31.67
30.29
27.96
24.73
20.87
16.81
12.93
9.45
6.36
3.42
0.31
-3.28
-7.46
-12.14
-17.02
-21.73
-26.01
-29.83
-33.45
-37.33
-41.94
-47.57
-54.15
-61.19
-67.86
-73.15
-76.07
-75.83
-72.02
-64.70
-54.40
-42.06
-28.88
-16.07
-4.63
4.73
11.67
16.02
17.74
16.88
13.72
8.93
3.69
-0.50
-2.18
-0.48
4.58
12.08
20.57
28.67
35.52
40.86
44.91
47.86
49.69
50.09
48.74
45.66
41.30
36.52
32.19
28.75
26.13
23.73
20.75
16.58
11.02
4.33
-2.90
-9.91
-16.00
-20.70
-23.94
-26.14
-28.13
-30.93
-35.39
-41.66
-48.96
-55.72
-60.02
-60.28
-55.85
-47.17
-35.63
-23.01
-10.94
-0.52
7.77
13.96
18.29
21.01
22.33
22.44
21.67
20.50
19.46
19.06
19.58
20.98
22.95
25.08
27.01
28.58
29.85
30.91
31.78
32.30
32.17
31.13
29.13
26.31
23.04
19.64
16.29
12.95
9.42
5.47
1.03
-3.80
-8.77
-13.60
-18.10
-22.25
-26.20
-30.24
-34.73
-39.93
-45.86
-52.15
-57.93
-62.05
-63.30
-60.81
-54.36
-44.48
-32.35
-19.44
-7.15
3.53
12.11
18.55
23.06
25.96
27.54
28.07
27.87
27.23
26.48
25.90
25.66
25.84
26.34
27.05
27.77
28.31
28.53
28.34
27.65
26.44
24.70
22.42
19.63
16.35
12.64
8.54
4.13
-0.50
-5.22
-9.91
-14.41
-18.62
-22.52
-26.27
-30.16
-34.58
-39.92
-46.35
-53.63
-61.02
-67.33
-71.20
-71.43
-67.45
-59.45
-48.38
-35.66
-22.75
-10.77
-0.35
8.30
15.17
20.25
23.50
24.89
24.64
23.28
21.58
20.30
19.93
20.53
21.75
23.07
24.01
24.39
24.26
23.79
23.14
22.32
21.16
19.42
16.91
13.58
9.51
4.90
-0.06
-5.14
-10.19
-15.09
-19.85
-24.60
-29.61
-35.21
-41.69
-49.10
-57.11
-64.93
-71.39
-75.22
-75.30
-71.06
-62.67
-51.04
-37.56
-23.69
-10.60
1.10
11.23
19.85
26.95
32.36
35.83
37.27
36.95
35.42
33.42
31.54
30.05
28.88
27.79
26.55
25.16
23.77
22.59
21.72
20.95
19.89
18.08
15.23
11.36
6.87
2.34
-1.66
-4.82
-7.14
-9.02
-11.04
-13.83
-17.88
-23.43
-30.41
-38.32
-46.26
-52.97
-57.04
-57.30
-53.14
-44.79
-33.26
-20.12
-6.91
5.11
15.27
23.37
29.50
33.85
36.61
37.98
38.21
37.69
36.85
36.11
35.74
35.79
36.14
36.54
36.76
36.65
36.17
35.37
34.24
32.64
30.28
26.88
22.31
16.75
10.71
4.83
-0.41
-4.87
-8.83
-12.89
-17.67
-23.56
-30.58
-38.26
-45.82
-52.22
-56.50
-57.82
-55.81
-50.53
-42.53
-32.63
-21.77
-10.86
-0.61
8.40
15.77
21.23
24.73
26.49
26.98
26.89
26.90
27.49
28.77
30.44
31.87
32.39
31.52
29.25
26.05
22.75
20.15
18.69
18.11
17.50
15.61
11.33
4.18
-5.38
-16.06
-26.09
-33.96
-38.79
-40.66
-40.52
-39.82
-40.04
-42.35
-47.26
-54.42
-62.48
-69.34
-72.58
-70.26
-61.55
-47.09
-28.73
-8.85
10.49
28.05
43.41
56.66
67.95
77.17
84.14
88.84
91.56
92.86
93.35
93.41
93.07
92.15
90.43
87.90
84.73
81.22
77.57
73.78
69.65
64.93
59.46
53.35
46.98
40.87
35.43
30.81
26.81
22.98
18.84
14.14
8.96
3.68
-1.28
-5.64
-9.46
-13.09
-16.95
-21.36
-26.36
-31.72
-37.10
-42.15
-46.63
-50.36
-53.20
-55.11
-56.27
-57.20
-58.65
-61.32
-65.39
-70.15
-74.05
-75.12
-71.74
-63.23
-50.14
-34.04
-16.87
-0.39
14.20
26.23
35.41
41.64
45.09
46.31
46.31
46.21
46.88
48.43
50.19
51.04
50.06
47.07
42.76
38.33
34.91
33.13
32.95
33.90
35.32
36.57
37.09
36.36
34.03
30.03
24.77
18.98
13.55
9.14
6.02
4.06
2.96
2.41
2.24
2.30
2.37
2.01
0.71
-1.92
-5.83
-10.50
-15.03
-18.50
-20.32
-20.52
-19.71
-18.89
-19.05
-20.91
-24.80
-30.68
-38.23
-47.05
-56.51
-65.67
-73.13
-77.17
-76.14
-69.13
-56.58
-40.34
-23.22
-7.94
3.75
11.56
16.34
19.34
21.40
22.74
23.10
22.37
20.84
19.30
18.54
19.03
20.65
22.78
24.69
25.80
25.85
24.97
23.49
21.83
20.28
18.98
17.85
16.71
15.42
13.93
12.32
10.69
9.15
7.76
6.54
5.45
4.38
3.12
1.41
-1.00
-4.20
-8.12
-12.48
-16.93
-21.16
-24.99
-28.44
-31.72
-35.20
-39.35
-44.55
-50.86
-57.80
-64.28
-68.83
-70.05
-67.08
-59.95
-49.58
-37.41
-24.99
-13.52
-3.67
4.42
10.90
16.01
19.91
22.67
24.41
25.38
26.01
26.77
28.02
29.83
31.99
34.08
35.75
36.82
37.40
37.70
37.89
37.94
37.66
36.75
35.03
32.43
29.07
25.21
21.13
17.09
13.28
9.78
6.55
3.46
0.29
-3.17
-7.06
-11.34
-15.84
-20.26
-24.29
-27.78
-30.75
-33.48
-36.36
-39.84
-44.24
-49.63
-55.76
-61.98
-67.30
-70.55
-70.71
-67.13
-59.84
-49.58
-37.49
-24.95
-13.12
-2.80
5.65
12.22
17.10
20.54
22.82
24.16
24.84
25.15
25.37
25.73
26.43
27.54
29.08
31.09
33.58
36.53
39.79
42.98
45.58
47.08
47.22
46.16
44.48
42.96
42.21
42.43
43.35
44.29
44.53
43.55
41.33
38.35
35.42
33.32
32.46
32.60
32.93
32.33
29.86
25.14
18.59
11.34
4.89
0.70
-0.32
1.56
4.56
5.39
-0.03
-15.15
-41.49
-77.53
-118.82
-159.10
-192.19
-213.82
-222.59
-219.96
-209.34
-194.75
-179.65
-166.17
-154.74
-144.11
-131.80
-115.06
-91.99
-62.53
-28.90
4.98
34.57
56.12
67.88
70.54
66.89
60.79
55.98
55.02
58.64
65.79
74.12
80.94
84.08
82.56
76.84
68.62
60.29
54.31
52.71
56.52
65.44
77.80
90.84
101.40
106.71
105.16
96.52
81.83
62.88
41.71
20.02
-1.07
-21.01
-39.56
-56.45
-71.11
-82.60
-89.86
-92.23
-89.78
-83.35
-74.30
-63.94
-53.18
-42.44
-31.87
-21.66
-12.22
-4.00
2.66
7.79
11.71
14.80
17.35
19.39
20.81
21.50
21.49
20.98
20.27
19.61
19.25
19.37
20.12
21.60
23.77
26.41
29.08
31.31
32.72
33.09
32.29
30.26
27.02
22.73
17.80
12.75
8.09
3.99
0.23
-3.66
-8.07
-13.07
-18.30
-23.23
-27.49
-31.09
-34.39
-37.97
-42.35
-47.83
-54.48
-62.01
-69.72
-76.42
-80.63
-80.93
-76.44
-67.18
-54.12
-38.88
-23.24
-8.68
3.92
14.29
22.54
28.96
33.78
37.11
38.99
39.51
38.92
37.59
35.95
34.39
33.23
32.70
33.04
34.44
36.95
40.27
43.77
46.55
47.78
47.01
44.30
40.20
35.38
30.40
25.55
20.87
16.30
11.83
7.54
3.60
0.12
-2.94
-5.75
-8.58
-11.64
-14.94
-18.25
-21.29
-23.90
-26.22
-28.77
-32.21
-37.06
-43.41
-50.77
-58.16
-64.37
-68.27
-69.02
-66.26
-60.19
-51.47
-41.15
-30.36
-20.07
-10.90
-3.04
3.60
9.29
14.16
18.26
21.49
23.88
25.63
27.13
28.81
30.91
33.34
35.83
38.17
40.34
42.52
44.84
47.17
49.11
50.10
49.75
47.98
44.99
41.09
36.48
31.27
25.60
19.80
14.37
9.76
6.16
3.34
0.80
-2.02
-5.52
-9.94
-15.31
-21.53
-28.39
-35.56
-42.65
-49.34
-55.47
-61.08
-66.29
-71.13
-75.31
-78.16
-78.77
-76.21
-69.90
-59.82
-46.60
-31.50
-16.05
-1.79
10.22
19.51
26.30
31.14
34.64
37.12
38.61
39.01
38.30
36.80
35.04
33.59
32.78
32.47
32.25
31.59
30.21
28.16
25.76
23.41
21.36
19.60
17.89
15.99
13.81
11.46
9.16
7.11
5.45
4.23
3.42
2.97
2.79
2.68
2.33
1.44
-0.17
-2.47
-5.23
-8.22
-11.34
-14.74
-18.79
-23.86
-30.05
-37.07
-44.15
-50.15
-53.86
-54.25
-50.81
-43.74
-33.92
-22.68
-11.38
-1.14
7.44
14.17
19.18
22.72
25.03
26.34
26.89
26.98
26.92
26.99
27.37
28.11
29.09
30.07
30.88
31.36
31.50
31.35
31.03
30.54
29.75
28.46
26.46
23.72
20.41
16.90
13.53
10.46
7.59
4.62
1.25
-2.60
-6.74
-10.81
-14.47
-17.55
-20.20
-22.78
-25.81
-29.75
-34.89
-41.15
-48.02
-54.50
-59.26
-61.00
-58.85
-52.75
-43.42
-32.24
-20.72
-10.14
-1.23
5.77
10.99
14.65
16.97
18.15
18.37
17.90
17.06
16.20
15.64
15.59
16.15
17.22
18.63
20.09
21.34
22.18
22.48
22.23
21.50
20.32
18.67
16.50
13.70
10.24
6.24
1.92
-2.39
-6.45
-10.12
-13.48
-16.80
-20.46
-24.75
-29.87
-35.86
-42.51
-49.38
-55.71
-60.59
-63.01
-62.22
-57.90
-50.38
-40.51
-29.48
-18.50
-8.48
0.06
7.03
12.58
16.95
20.33
22.81
24.43
25.29
25.63
25.75
26.02
26.69
27.80
29.17
30.51
31.46
31.73
31.24
30.01
28.25
26.17
23.92
21.57
19.02
16.16
12.89
9.17
5.05
0.66
-3.89
-8.45
-12.94
-17.34
-21.70
-26.21
-31.15
-36.87
-43.55
-51.04
-58.71
-65.47
-70.00
-71.04
-67.87
-60.51
-49.84
-37.25
-24.25
-12.05
-1.27
7.94
15.73
22.22
27.42
31.27
33.77
35.15
35.80
36.24
36.83
37.74
38.87
40.01
40.96
41.56
41.79
41.66
41.21
40.40
39.13
37.21
34.53
31.04
26.91
22.50
18.22
14.44
11.21
8.33
5.28
1.59
-2.97
-8.25
-13.82
-19.11
-23.75
-27.76
-31.44
-35.31
-39.84
-45.34
-51.87
-59.11
-66.33
-72.49
-76.28
-76.56
-72.66
-64.68
-53.53
-40.59
-27.34
-14.88
-3.73
6.02
14.53
21.98
28.40
33.67
37.71
40.55
42.39
43.60
44.61
45.75
47.16
48.73
50.18
51.22
51.68
51.59
51.06
50.23
49.13
47.66
45.69
43.19
40.33
37.44
34.82
32.67
30.89
29.17
27.08
24.29
20.66
16.32
11.56
6.73
2.14
-2.08
-5.99
-9.80
-13.78
-18.15
-22.97
-28.12
-33.34
-38.31
-42.86
-46.97
-50.87
-54.94
-59.61
-65.19
-71.67
-78.61
-85.05
-89.63
-90.94
-87.91
-80.21
-68.50
-54.22
-39.17
-24.98
-12.64
-2.39
6.11
13.35
19.75
25.43
30.28
34.11
36.90
38.76
39.99
40.90
41.74
42.66
43.70
44.87
46.14
47.41
48.51
49.21
49.27
48.53
47.00
44.85
42.38
39.87
37.58
35.64
34.10
32.90
31.92
31.01
30.00
28.68
26.97
24.83
22.30
19.47
16.44
13.27
10.02
6.68
3.17
-0.58
-4.68
-9.12
-13.82
-18.59
-23.18
-27.38
-31.13
-34.56
-37.98
-41.87
-46.74
-53.02
-60.77
-69.55
-78.29
-85.43
-89.26
-88.47
-82.61
-72.32
-59.13
-44.95
-31.50
-19.83
-10.18
-2.20
4.69
10.95
16.72
21.87
26.21
29.61
32.19
34.19
35.90
37.52
39.06
40.44
41.50
42.19
42.53
42.67
42.71
42.69
42.45
41.82
40.66
39.04
37.23
35.60
34.49
33.97
33.84
33.64
32.87
31.16
28.41
24.82
20.73
16.57
12.59
8.88
5.33
1.69
-2.25
-6.64
-11.45
-16.54
-21.74
-26.96
-32.16
-37.34
-42.50
-47.51
-52.20
-56.48
-60.47
-64.46
-68.87
-73.85
-78.99
-83.28
-85.28
-83.74
-78.12
-68.98
-57.94
-47.18
-38.67
-33.52
-31.66
-32.08
-33.36
-34.37
-34.69
-34.66
-35.19
-37.23
-41.60
-48.81
-58.91
-71.22
-83.99
-94.37
-98.65
-93.48
-77.38
-51.95
-21.82
6.70
27.68
37.46
35.57
24.43
7.81
-10.79
-29.03
-45.57
-59.20
-68.36
-71.23
-66.52
-54.15
-35.89
-14.95
5.22
22.28
36.10
48.18
60.73
75.21
91.92
109.65
126.18
139.24
147.23
150.30
149.66
147.02
143.88
142.40
144.48
151.23
162.52
177.30
195.20
215.31
235.92
254.10
268.55
278.90
285.35
288.17
287.82
286.56
285.32
282.75
274.46
258.29
233.96
203.11
168.76
135.01
108.56
93.67
90.04
91.47
92.95
90.71
83.23
71.06
41.35
-7.74
-67.02
-111.12
-139.43
-158.16
-176.17
-197.14
-221.84
-248.70
-272.17
-287.50
-292.71
-290.54
-282.52
-270.23
-255.43
-240.38
-226.95
-214.36
-201.92
-189.69
-179.65
-170.96
-161.69
-149.81
-134.56
-116.41
-95.61
-73.44
-52.07
-34.63
-22.02
-13.66
-8.16
-4.27
-1.01
2.73
7.30
12.26
16.31
18.95
20.22
20.53
20.30
19.98
20.12
21.00
22.50
23.99
24.91
24.86
23.63
21.34
18.43
15.45
12.86
10.71
8.73
6.41
3.35
-0.57
-5.10
-9.77
-14.15
-17.98
-21.36
-24.60
-28.15
-32.35
-37.39
-43.10
-49.02
-54.39
-58.27
-59.69
-57.92
-52.71
-44.34
-33.68
-21.94
-10.39
-0.03
8.63
15.51
20.81
24.79
27.55
29.06
29.35
28.56
27.14
25.65
24.64
24.39
24.84
25.69
26.55
27.14
27.34
27.14
26.58
25.61
24.15
22.12
19.55
16.57
13.34
9.99
6.54
2.93
-0.94
-5.04
-9.27
-13.43
-17.35
-20.99
-24.55
-28.39
-32.96
-38.57
-45.13
-52.07
-58.32
-62.59
-63.70
-60.99
-54.54
-45.11
-33.96
-22.44
-11.62
-2.12
5.95
12.79
18.69
23.86
28.34
32.02
34.76
36.56
37.55
38.03
38.35
38.78
39.45
40.34
41.27
42.09
42.59
42.61
41.94
40.36
37.69
33.86
29.06
23.67
18.25
13.27
8.97
5.21
1.62
-2.26
-6.71
-11.61
-16.58
-21.14
-25.00
-28.23
-31.24
-34.58
-38.70
-43.69
-49.22
-54.56
-58.74
-60.77
-59.89
-55.75
-48.57
-39.07
-28.27
-17.22
-6.77
2.63
10.91
18.18
24.53
29.93
34.26
37.43
39.54
40.86
41.85
42.88
44.14
45.66
47.26
48.73
49.88
50.67
51.06
51.06
50.67
49.81
48.42
46.45
43.93
40.93
37.61
34.08
30.39
26.56
22.62
18.64
14.72
11.02
7.52
4.09
0.48
-3.56
-8.06
-12.84
-17.57
-21.93
-25.81
-29.35
-32.93
-37.01
-41.96
-47.94
-54.83
-62.18
-69.20
-74.81
-77.87
-77.37
-72.83
-64.48
-53.17
-40.22
-26.98
-14.45
-3.12
6.95
15.93
23.97
30.98
36.72
40.95
43.61
44.92
45.35
45.41
45.52
45.82
46.23
46.52
46.47
46.01
45.20
44.19
43.11
41.98
40.66
38.97
36.79
34.11
31.18
28.31
25.84
23.88
22.29
20.76
18.93
16.65
13.99
11.20
8.54
6.10
3.77
1.29
-1.59
-5.00
-8.90
-13.16
-17.55
-21.92
-26.07
-29.89
-33.33
-36.46
-39.52
-42.86
-46.89
-51.89
-57.87
-64.41
-70.65
-75.48
-77.73
-76.55
-71.64
-63.37
-52.68
-40.81
-28.94
-17.93
-8.23
0.14
7.33
13.48
18.69
22.94
26.21
28.59
30.32
31.75
33.22
34.90
36.71
38.42
39.69
40.30
40.21
39.61
38.73
37.79
36.84
35.81
34.55
32.92
30.85
28.43
25.84
23.32
21.01
18.92
16.85
14.52
11.69
8.26
4.40
0.44
-3.27
-6.52
-9.32
-11.88
-14.49
-17.46
-21.05
-25.46
-30.74
-36.76
-43.00
-48.65
-52.65
-54.02
-52.14
-46.98
-39.15
-29.73
-19.94
-10.89
-3.30
2.58
6.86
9.95
12.26
14.07
15.53
16.59
17.19
17.31
17.06
16.68
16.45
16.61
17.29
18.40
19.74
21.00
21.93
22.36
22.24
21.60
20.46
18.83
16.74
14.23
11.42
8.47
5.57
2.71
-0.25
-3.54
-7.38
-11.75
-16.47
-21.35
-26.40
-31.87
-37.99
-44.62
-50.98
-55.75
-57.51
-55.40
-49.51
-40.90
-31.12
-21.56
-13.00
-5.49
1.30
7.63
13.40
18.19
21.50
23.07
23.09
22.16
21.01
20.25
20.19
20.71
21.47
22.09
22.34
22.15
21.61
20.84
19.91
18.83
17.46
15.62
13.13
9.85
5.86
1.43
-3.05
-7.19
-10.74
-13.70
-16.28
-18.85
-21.81
-25.51
-30.18
-35.83
-42.22
-48.77
-54.57
-58.51
-59.57
-57.10
-51.11
-42.24
-31.67
-20.70
-10.40
-1.43
6.08
12.30
17.47
21.75
25.11
27.50
28.96
29.68
30.05
30.42
31.04
31.87
32.67
33.09
32.86
31.92
30.38
28.47
26.40
24.26
22.04
19.63
16.93
13.90
10.59
7.13
3.65
0.25
-3.00
-6.07
-9.01
-11.95
-15.07
-18.59
-22.73
-27.65
-33.39
-39.80
-46.40
-52.33
-56.55
-57.92
-55.73
-49.88
-41.01
-30.29
-19.06
-8.44
0.91
8.79
15.25
20.41
24.34
27.07
28.74
29.59
29.98
30.26
30.64
31.15
31.67
32.04
32.15
32.04
31.85
31.68
31.51
31.11
30.17
28.47
25.95
22.86
19.56
16.39
13.50
10.76
7.90
4.65
0.94
-3.09
-7.16
-10.96
-14.34
-17.33
-20.17
-23.19
-26.73
-31.08
-36.39
-42.56
-49.19
-55.45
-60.25
-62.35
-60.79
-55.24
-46.17
-34.72
-22.40
-10.64
-0.41
7.88
14.26
18.98
22.33
24.50
25.69
26.14
26.12
25.99
26.03
26.47
27.36
28.59
30.00
31.32
32.37
33.04
33.35
33.42
33.33
33.05
32.38
31.03
28.79
25.69
22.02
18.26
14.83
11.94
9.53
7.31
4.88
1.96
-1.55
-5.55
-9.81
-13.99
-17.82
-21.13
-23.88
-26.29
-28.73
-31.66
-35.51
-40.50
-46.47
-52.82
-58.55
-62.42
-63.23
-60.24
-53.33
-43.17
-31.03
-18.43
-6.74
3.16
10.95
16.80
21.08
24.18
26.35
27.78
28.59
28.99
29.24
29.59
30.18
31.02
32.00
32.93
33.70
34.23
34.54
34.66
34.59
34.22
33.37
31.84
29.54
26.59
23.27
19.95
16.89
14.15
11.60
9.02
6.26
3.31
0.33
-2.52
-5.12
-7.52
-9.90
-12.42
-15.20
-18.20
-21.33
-24.51
-27.69
-30.92
-34.35
-38.20
-42.63
-47.68
-53.06
-58.10
-61.78
-62.99
-60.80
-54.88
-45.61
-34.04
-21.59
-9.61
0.92
9.52
16.13
20.93
24.18
26.07
26.89
26.95
26.66
26.46
26.69
27.50
28.82
30.46
32.14
33.66
34.85
35.65
35.97
35.76
35.02
33.75
32.01
29.89
27.42
24.61
21.53
18.26
14.96
11.78
8.80
5.97
3.11
0.02
-3.48
-7.41
-11.64
-15.97
-20.18
-24.08
-27.53
-30.48
-32.90
-34.88
-36.59
-38.35
-40.52
-43.45
-47.33
-51.96
-56.71
-60.59
-62.40
-61.16
-56.37
-48.28
-37.78
-26.25
-15.04
-5.20
2.69
8.54
12.45
14.59
15.11
14.27
12.53
10.57
9.19
9.05
10.47
13.25
16.84
20.51
23.70
26.11
27.84
29.09
30.05
30.70
30.82
30.11
28.37
25.64
22.16
18.32
14.51
11.01
7.90
5.06
2.24
-0.89
-4.58
-8.92
-13.76
-18.75
-23.57
-27.96
-31.92
-35.63
-39.42
-43.62
-48.47
-53.99
-59.86
-65.33
-69.31
-70.63
-68.38
-62.31
-52.89
-41.24
-28.68
-16.43
-5.29
4.31
12.22
18.37
22.71
25.32
26.39
26.29
25.46
24.38
23.35
22.55
22.03
21.79
21.83
22.17
22.80
23.66
24.65
25.66
26.53
27.13
27.33
27.05
26.25
24.95
23.24
21.22
18.94
16.35
13.26
9.43
4.68
-0.99
-7.35
-13.92
-20.17
-25.66
-30.18
-33.82
-36.92
-39.99
-43.54
-47.84
-52.81
-57.86
-62.00
-64.01
-62.83
-57.96
-49.64
-38.84
-26.97
-15.41
-5.18
3.26
9.93
15.04
18.77
21.18
22.20
21.86
20.44
18.47
16.66
15.62
15.75
17.06
19.32
22.16
25.25
28.41
31.47
34.28
36.58
38.15
38.89
38.91
38.41
37.59
36.50
35.04
33.08
30.60
27.69
24.44
20.90
16.87
12.11
6.47
0.07
-6.65
-13.12
-18.84
-23.65
-27.77
-31.77
-36.39
-42.21
-49.44
-57.62
-65.64
-71.98
-75.16
-74.21
-68.99
-60.24
-49.27
-37.50
-26.06
-15.58
-6.29
1.82
8.80
14.67
19.46
23.30
26.45
29.17
31.74
34.30
36.90
39.51
42.04
44.35
46.25
47.57
48.22
48.21
47.70
46.85
45.73
44.26
42.28
39.67
36.43
32.70
28.71
24.61
20.42
16.08
11.43
6.38
0.94
-4.84
-10.77
-16.61
-22.12
-27.09
-31.35
-34.90
-37.86
-40.48
-43.11
-46.10
-49.72
-54.05
-58.87
-63.65
-67.54
-69.51
-68.57
-64.09
-56.01
-44.98
-32.19
-19.08
-6.86
3.68
12.38
19.46
25.30
30.17
34.14
37.20
39.36
40.79
41.76
42.59
43.50
44.56
45.73
46.93
48.06
49.02
49.68
49.93
49.63
48.73
47.22
45.20
42.74
39.94
36.84
33.54
30.14
26.77
23.47
20.22
16.96
13.61
10.19
6.80
3.51
0.37
-2.70
-5.78
-8.95
-12.13
-15.21
-18.17
-21.07
-24.08
-27.40
-31.21
-35.59
-40.53
-45.87
-51.19
-55.75
-58.48
-58.30
-54.47
-46.90
-36.38
-24.28
-12.24
-1.58
6.92
13.14
17.34
19.93
21.24
21.49
20.86
19.63
18.18
17.00
16.49
16.84
17.97
19.58
21.27
22.73
23.77
24.34
24.45
24.10
23.21
21.71
19.54
16.73
13.37
9.66
5.73
1.74
-2.21
-6.06
-9.69
-13.03
-16.06
-18.84
-21.48
-24.14
-26.95
-29.94
-33.08
-36.28
-39.44
-42.52
-45.67
-49.09
-52.92
-56.85
-60.02
-61.12
-58.92
-52.86
-43.32
-31.19
-17.28
-1.67
16.11
36.50
58.86
81.16
100.31
113.41
118.90
117.17
110.18
100.44
90.01
80.09
71.33
64.52
60.71
60.70
63.93
67.74
67.97
60.55
43.68
19.21
-7.75
-30.83
-45.18
-49.39
-45.69
-38.39
-31.69
-27.97
-27.52
-29.30
-32.23
-35.95
-40.67
-46.62
-53.38
-59.75
-64.24
-65.81
-64.60
-62.01
-60.17
-61.04
-65.57
-73.27
-82.33
-90.22
-94.53
-93.66
-87.27
-76.31
-62.70
-48.72
-36.34
-26.68
-19.77
-14.78
-10.53
-6.08
-1.14
3.85
8.14
11.16
12.90
13.93
15.14
17.18
20.15
23.77
27.81
32.57
38.71
46.75
56.29
65.86
73.47
77.72
78.57
77.35
75.94
75.37
75.14
73.31
67.96
58.63
47.00
36.31
29.49
27.33
27.80
26.86
20.51
6.79
-13.26
-36.04
-57.08
-72.71
-81.11
-82.23
-77.12
-67.01
-52.95
-36.00
-17.48
0.98
17.65
31.08
40.41
45.47
46.60
44.36
39.31
31.94
22.83
12.87
3.24
-4.58
-9.47
-10.91
-9.30
-5.64
-0.92
4.34
10.22
16.99
24.66
32.52
39.32
43.80
45.27
43.65
39.31
32.58
23.75
13.54
3.65
-2.92
-2.53
7.74
28.62
57.94
90.92
121.47
143.73
153.16
147.19
125.18
88.37
39.92
-14.98
-69.46
-116.01
-148.42
-163.62
-162.76
-150.96
-135.44
-122.92
-117.19
-118.16
-122.48
-125.38
-122.96
-113.56
-97.95
-78.48
-57.70
-37.44
-18.46
-0.83
15.51
30.26
42.73
52.20
58.47
62.09
64.32
66.57
69.83
74.30
79.48
84.66
89.29
93.16
96.07
97.55
96.79
92.92
85.62
75.43
63.63
51.68
40.55
30.29
20.10
8.93
-3.93
-18.46
-33.89
-49.01
-62.56
-73.60
-81.62
-86.54
-88.59
-88.13
-85.58
-81.33
-75.86
-69.79
-64.03
-59.68
-57.95
-59.99
-66.58
-77.87
-93.21
-110.98
-128.80
-143.95
-153.97
-157.37
-153.89
-144.42
-130.54
-113.83
-95.48
-75.99
-55.53
-34.36
-13.28
6.25
22.07
31.66
32.47
22.77
2.48
-26.05
-58.01
-87.24
-108.19
-118.02
-117.69
-111.44
-104.66
-101.34
-102.17
-104.52
-104.14
-97.70
-84.46
-66.36
-46.46
-26.97
-8.15
11.46
33.57
58.61
85.00
109.93
130.74
146.38
157.73
166.93
175.93
185.53
195.01
202.90
207.86
209.38
207.88
204.26
199.43
193.98
188.14
181.75
174.31
164.97
152.55
135.96
114.76
89.84
63.58
39.41
20.78
10.25
8.86
16.29
31.18
51.16
72.57
90.32
98.80
93.72
74.28
44.36
11.45
-16.15
-32.79
-37.52
-33.80
-27.17
-22.27
-21.03
-22.67
-25.19
-27.02
-27.79
-28.10
-28.67
-29.67
-30.56
-30.63
-29.49
-27.50
-25.62
-25.07
-26.60
-30.20
-34.92
-39.31
-41.98
-42.22
-40.31
-37.42
-35.09
-34.58
-36.39
-40.11
-44.68
-48.87
-51.75
-53.07
-53.27
-53.25
-54.02
-56.22
-60.01
-65.02
-70.50
-75.48
-78.96
-80.01
-77.88
-72.21
-63.15
-51.43
-38.29
-25.11
-13.09
-2.92
5.22
11.55
16.38
20.00
22.58
24.25
25.18
25.67
26.03
26.62
27.64
29.14
30.99
32.94
34.74
36.18
37.14
37.57
37.47
36.86
35.74
34.16
32.18
29.92
27.50
24.98
22.36
19.61
16.69
13.65
10.63
7.85
5.44
3.42
1.61
-0.26
-2.46
-5.11
-8.18
-11.46
-14.73
-17.84
-20.83
-23.88
-27.29
-31.39
-36.45
-42.56
-49.41
-56.29
-62.02
-65.23
-64.71
-59.86
-50.98
-39.18
-26.05
-13.14
-1.57
8.18
16.13
22.51
27.56
31.36
33.90
35.25
35.69
35.65
35.62
36.05
37.14
38.84
40.87
42.87
44.46
45.44
45.75
45.46
44.67
43.44
41.82
39.73
37.14
34.07
30.63
26.98
23.30
19.70
16.17
12.64
8.97
4.97
0.52
-4.50
-10.05
-16.01
-22.06
-27.85
-33.02
-37.40
-41.09
-44.40
-47.77
-51.65
-56.34
-61.85
-67.84
-73.61
-78.07
-79.98
-78.29
-72.44
-62.68
-50.02
-35.95
-21.98
-9.25
1.64
10.55
17.57
22.85
26.50
28.68
29.64
29.84
29.82
30.09
31.01
32.66
34.96
37.66
40.57
43.55
46.57
49.64
52.75
55.69
58.05
59.35
59.13
57.27
54.03
50.05
46.10
42.76
40.24
38.29
36.36
33.80
30.16
25.32
19.47
13.01
6.41
0.03
-5.94
-11.56
-17.10
-23.00
-29.73
-37.68
-46.98
-57.34
-67.97
-77.61
-84.72
-87.90
-86.30
-79.93
-69.70
-57.15
-43.93
-31.40
-20.34
-10.97
-3.15
3.37
8.72
12.97
16.12
18.27
19.64
20.59
21.50
22.69
24.27
26.18
28.21
30.07
31.60
32.73
33.48
33.87
33.89
33.46
32.52
31.04
29.10
26.78
24.18
21.40
18.49
15.57
12.71
9.91
7.09
4.05
0.59
-3.37
-7.73
-12.21
-16.46
-20.20
-23.33
-25.96
-28.39
-31.07
-34.50
-39.09
-45.02
-52.06
-59.45
-65.97
-70.22
-70.89
-67.29
-59.52
-48.44
-35.51
-22.26
-9.94
0.69
9.42
16.43
22.04
26.51
30.03
32.66
34.44
35.49
36.01
36.25
36.50
36.95
37.63
38.47
39.33
40.10
40.76
41.27
41.58
41.57
41.03
39.78
37.74
35.04
31.92
28.65
25.42
22.29
19.16
15.96
12.66
9.29
5.98
2.75
-0.47
-3.84
-7.54
-11.60
-15.90
-20.20
-24.22
-27.80
-30.98
-34.03
-37.37
-41.50
-46.84
-53.56
-61.40
-69.61
-76.90
-81.74
-82.72
-79.04
-70.78
-58.93
-45.08
-30.91
-17.73
-6.24
3.45
11.57
18.40
24.10
28.67
32.06
34.35
35.81
36.82
37.75
38.84
40.16
41.60
43.02
44.31
45.46
46.48
47.34
47.89
47.89
47.13
45.46
42.94
39.81
36.42
33.14
30.22
27.74
25.54
23.36
20.90
17.96
14.52
10.77
7.04
3.58
0.51
-2.34
-5.28
-8.72
-12.87
-17.66
-22.77
-27.74
-32.23
-36.12
-39.62
-43.16
-47.26
-52.33
-58.60
-65.88
-73.51
-80.38
-85.07
-86.24
-83.01
-75.28
-63.83
-50.06
-35.57
-21.73
-9.36
1.23
10.14
17.60
23.78
28.80
32.69
35.55
37.59
39.12
40.47
41.86
43.36
44.88
46.24
47.28
47.99
48.49
48.94
49.41
49.78
49.73
48.89
47.00
44.05
40.36
36.45
32.79
29.66
26.96
24.37
21.48
18.05
14.11
9.98
6.07
2.65
-0.24
-2.86
-5.64
-9.00
-13.16
-18.04
-23.31
-28.54
-33.34
-37.54
-41.32
-45.04
-49.19
-54.18
-60.22
-67.18
-74.52
-81.23
-85.99
-87.43
-84.55
-77.09
-65.69
-51.72
-36.84
-22.56
-9.82
1.07
10.19
17.80
24.09
29.10
32.81
35.29
36.72
37.49
38.01
38.62
39.53
40.71
41.95
43.07
43.91
44.50
44.94
45.30
45.51
45.32
44.42
42.62
39.99
36.88
33.79
31.11
28.98
27.20
25.36
23.06
20.02
16.24
11.98
7.55
3.26
-0.71
-4.35
-7.80
-11.35
-15.23
-19.64
-24.55
-29.74
-34.86
-39.53
-43.53
-46.98
-50.25
-53.92
-58.54
-64.43
-71.45
-79.00
-85.94
-90.93
-92.56
-89.82
-82.36
-70.69
-56.10
-40.29
-24.95
-11.28
0.17
9.48
17.06
23.28
28.32
32.11
34.60
35.83
36.11
35.89
35.65
35.67
36.01
36.55
37.15
37.72
38.29
38.97
39.76
40.54
41.03
40.94
40.14
38.70
36.91
35.16
33.77
32.85
32.24
31.58
30.44
28.47
25.56
21.84
17.71
13.64
10.07
7.19
4.88
2.66
-0.06
-3.83
-8.87
-14.93
-21.47
-27.81
-33.44
-38.34
-42.90
-47.79
-53.70
-61.06
-69.84
-79.47
-88.86
-96.48
-100.64
-99.96
-93.72
-82.26
-66.92
-49.63
-32.36
-16.59
-2.96
8.55
18.36
26.89
34.35
40.81
46.24
50.71
54.41
57.50
59.94
61.41
61.48
59.71
56.05
50.95
45.25
39.87
35.44
32.03
29.18
26.19
22.44
17.71
12.24
6.61
1.48
-2.67
-5.72
-7.88
-9.64
-11.54
-13.89
-16.73
-19.76
-22.58
-24.89
-26.68
-28.32
-30.39
-33.50
-37.92
-43.52
-49.83
-56.21
-62.14
-67.53
-72.78
-78.57
-85.70
-94.67
-105.53
-117.90
-131.02
-143.87
-155.13
-163.23
-166.65
-164.43
-156.73
-145.15
-132.17
-120.31
-111.04
-104.25
-98.80
-93.48
-87.95
-82.69
-78.46
-75.35
-72.59
-69.08
-64.37
-59.24
-55.36
-54.23
-55.93
-58.63
-58.95
-52.98
-37.51
-10.84
26.79
73.22
124.58
175.91
222.07
258.92
284.21
297.86
301.43
297.13
286.93
272.11
253.49
231.82
208.31
184.50
161.93
141.64
123.92
108.44
94.56
81.85
70.23
59.96
51.33
44.31
38.44
32.82
26.38
18.26
8.11
-3.63
-15.82
-26.90
-35.32
-40.10
-41.07
-38.87
-34.65
-29.57
-24.45
-19.50
-14.49
-8.97
-2.74
3.93
10.34
15.50
18.63
19.48
18.58
17.06
16.26
17.15
19.91
23.89
27.88
30.68
31.68
31.02
29.47
28.07
27.64
28.43
30.00
31.25
30.37
24.98
12.54
-8.65
-38.18
-72.92
-107.41
-135.20
-150.90
-152.08
-140.03
-118.99
-94.48
-71.14
-51.90
-37.87
-28.88
-23.81
-21.33
-20.07
-18.71
-16.33
-12.30
-6.98
-1.85
1.12
1.09
-1.91
-6.98
-12.49
-16.79
-17.53
-13.22
-3.95
8.81
24.49
41.88
59.10
74.11
84.55
91.11
95.38
98.73
102.14
108.68
120.07
135.68
152.92
167.21
177.81
185.34
190.81
196.08
206.81
227.32
258.07
295.26
330.70
360.49
383.39
400.45
391.16
346.57
272.99
187.76
120.68
67.29
19.90
-25.88
-74.21
-123.47
-167.34
-201.02
-223.10
-235.34
-242.94
-247.24
-249.47
-251.80
-256.11
-260.93
-264.05
-263.82
-259.98
-254.87
-248.45
-240.89
-233.08
-225.41
-216.13
-203.42
-186.51
-166.32
-145.86
-126.38
-108.61
-92.94
-79.12
-65.94
-52.46
-38.59
-25.10
-13.59
-4.57
1.93
6.24
9.02
11.27
13.75
16.78
20.09
22.98
25.15
26.49
27.17
27.49
27.71
27.90
27.93
27.47
26.13
23.66
20.05
15.56
10.72
6.12
2.15
-1.11
-4.03
-7.11
-10.84
-15.32
-20.26
-25.06
-29.10
-32.04
-34.02
-35.57
-37.37
-39.99
-43.82
-48.82
-54.69
-60.74
-65.95
-69.12
-69.14
-65.22
-57.30
-46.08
-32.88
-19.25
-6.57
4.32
13.13
20.06
25.45
29.59
32.60
34.52
35.41
35.46
34.99
34.45
34.18
34.36
34.91
35.55
35.98
35.95
35.37
34.24
32.60
30.45
27.74
24.45
20.60
16.38
12.00
7.67
3.43
-0.78
-5.10
-9.63
-14.33
-18.98
-23.36
-27.36
-31.02
-34.64
-38.62
-43.30
-48.87
-55.15
-61.55
-67.04
-70.42
-70.54
-66.68
-58.84
-47.76
-34.75
-21.29
-8.66
2.43
11.75
19.48
25.88
31.06
34.99
37.58
38.85
39.02
38.51
37.81
37.33
37.28
37.66
38.34
39.12
39.76
40.05
39.80
38.85
37.13
34.68
31.67
28.29
24.69
20.94
16.97
12.72
8.14
3.28
-1.70
-6.59
-11.27
-15.67
-19.90
-24.09
-28.45
-33.20
-38.44
-44.20
-50.15
-55.63
-59.56
-60.76
-58.29
-51.86
-41.99
-29.87
-16.96
-4.50
6.75
16.52
24.91
32.03
37.93
42.53
45.81
47.85
48.89
49.26
49.30
49.22
49.07
48.81
48.28
47.38
46.04
44.29
42.21
39.86
37.20
34.11
30.47
26.25
21.59
16.82
12.34
8.44
5.15
2.26
-0.61
-3.76
-7.21
-10.77
-14.13
-17.10
-19.78
-22.59
-26.07
-30.71
-36.73
-44.02
-52.18
-60.48
-67.99
-73.59
-76.21
-75.01
-69.73
-60.80
-49.29
-36.64
-24.22
-12.97
-3.25
5.12
12.49
19.13
25.03
29.92
33.49
35.64
36.60
36.94
37.30
38.16
39.63
41.51
43.40
44.96
46.03
46.58
46.67
46.29
45.34
43.70
41.33
38.37
35.09
31.78
28.61
25.60
22.56
19.28
15.66
11.75
7.73
3.89
0.37
-2.83
-5.95
-9.30
-13.14
-17.49
-22.06
-26.45
-30.26
-33.36
-35.97
-38.63
-41.97
-46.51
-52.41
-59.37
-66.56
-72.75
-76.53
-76.66
-72.42
-63.93
-52.17
-38.71
-25.21
-12.92
-2.35
6.61
14.45
21.57
28.04
33.61
37.93
40.90
42.73
43.92
45.01
46.32
47.89
49.47
50.74
51.54
51.93
52.12
52.29
52.48
52.48
51.97
50.64
48.39
45.39
41.99
38.61
35.56
32.94
30.63
28.34
25.74
22.61
18.90
14.77
10.50
6.43
2.75
-0.52
-3.58
-6.76
-10.39
-14.71
-19.71
-25.18
-30.75
-36.03
-40.76
-44.92
-48.76
-52.76
-57.43
-63.17
-70.01
-77.50
-84.66
-90.13
-92.45
-90.54
-83.97
-73.27
-59.71
-44.96
-30.55
-17.49
-6.12
3.69
12.26
19.84
26.48
32.07
36.53
39.91
42.37
44.16
45.50
46.54
47.39
48.09
48.72
49.31
49.88
50.38
50.72
50.73
50.25
49.16
47.40
44.99
42.03
38.70
35.22
31.81
28.68
25.85
23.26
20.65
17.79
14.48
10.71
6.69
2.75
-0.82
-3.91
-6.63
-9.27
-12.17
-15.58
-19.59
-24.10
-28.88
-33.62
-38.05
-42.05
-45.71
-49.39
-53.61
-58.85
-65.34
-72.82
-80.39
-86.70
-90.27
-89.84
-84.80
-75.39
-62.66
-48.14
-33.50
-20.04
-8.55
0.83
8.35
14.46
19.53
23.75
27.18
29.85
31.89
33.53
35.02
36.52
38.00
39.30
40.21
40.63
40.69
40.62
40.68
40.97
41.35
41.48
41.00
39.67
37.51
34.80
31.97
29.43
27.41
25.85
24.50
23.05
21.20
18.86
16.13
13.25
10.46
7.91
5.60
3.36
0.90
-2.09
-5.77
-10.15
-14.99
-19.94
-24.66
-28.94
-32.79
-36.45
-40.33
-44.84
-50.30
-56.74
-63.82
-70.73
-76.26
-79.06
-77.96
-72.41
-62.67
-49.78
-35.29
-20.79
-7.57
3.70
12.82
19.99
25.52
29.68
32.61
34.44
35.33
35.57
35.53
35.60
36.03
36.84
37.87
38.81
39.40
39.53
39.26
38.78
38.24
37.70
37.04
36.00
34.30
31.81
28.65
25.24
22.13
19.88
18.70
18.45
18.53
18.18
16.81
14.21
10.75
7.15
4.20
2.32
1.44
0.93
-0.13
-2.55
-6.79
-12.80
