1565720209.00
64.000000
-0.00
-0.00
-0.00
-0.00
-0.00
-0.00
-0.00
-0.00
-0.00
-0.00
0.00
0.01
0.01
-0.00
-0.03
-0.05
-0.05
0.00
0.13
0.36
0.66
1.01
1.37
1.72
2.06
2.40
2.79
3.24
3.80
4.42
5.07
5.68
6.23
6.74
7.26
7.86
8.61
9.60
10.75
11.95
13.09
14.11
15.07
16.11
17.46
19.26
21.73
24.70
27.88
30.97
33.82
36.49
39.32
42.73
47.07
52.72
59.34
66.40
73.32
79.76
85.78
91.90
98.84
107.16
117.42
129.13
141.50
153.63
164.94
175.49
185.93
197.65
209.39
223.46
240.49
260.55
282.44
303.18
318.46
323.68
315.51
293.14
259.03
217.02
171.43
125.43
80.49
36.86
-5.57
-46.50
-85.07
-119.85
-150.14
-175.59
-196.20
-212.26
-223.77
-230.46
-231.94
-228.17
-219.44
-206.98
-192.30
-176.97
-162.18
-148.53
-136.06
-124.49
-113.56
-102.73
-92.07
-81.88
-72.59
-64.53
-57.74
-52.01
-46.97
-42.30
-37.72
-33.29
-29.15
-25.51
-22.53
-20.20
-18.44
-17.06
-15.89
-14.80
-13.78
-12.87
-12.12
-11.57
-11.21
-11.03
-10.97
-10.98
-11.02
-11.08
-11.16
-11.30
-11.56
-12.00
-12.69
-13.68
-14.96
-16.43
-17.99
-19.53
-21.00
-22.39
-23.81
-25.39
-27.23
-29.37
-31.72
-34.14
-36.47
-38.62
-40.68
-42.84
-45.38
-48.55
-52.42
-56.87
-61.61
-66.28
-70.68
-74.85
-79.13
-84.09
-90.23
-97.90
-106.95
-116.85
-126.80
-136.06
-144.33
-152.04
-160.36
-170.86
-184.76
-202.13
-221.34
-239.27
-252.16
-256.89
-252.06
-238.37
-218.21
-194.73
-170.91
-149.01
-130.48
-115.98
-105.41
-97.74
-91.18
-83.63
-73.62
-61.17
-48.03
-36.93
-30.11
-28.12
-29.39
-31.04
-30.46
-26.80
-21.38
-16.84
-15.54
-18.13
-23.23
-28.30
-31.20
-31.55
-30.86
-31.55
-35.35
-42.20
-50.23
-57.12
-61.57
-64.22
-67.32
-73.11
-82.20
-92.65
-100.83
-103.36
-99.40
-91.34
-83.86
-81.50
-86.23
-96.27
-106.99
-113.12
-111.09
-100.59
-83.97
-64.57
-45.07
-26.45
-8.23
10.77
31.55
55.74
84.08
116.97
154.63
196.93
242.79
289.81
333.97
370.29
394.27
402.96
395.66
374.56
344.45
311.52
281.44
257.41
239.34
224.06
206.94
183.41
150.13
105.78
52.14
-5.27
-57.49
-94.01
-106.27
-91.61
-55.23
-8.49
35.72
69.02
90.49
105.92
123.03
147.47
179.91
216.38
251.35
280.89
304.61
324.43
341.59
354.92
360.82
354.69
332.80
296.00
245.60
185.00
119.61
56.01
0.61
-42.07
-69.80
-83.92
-89.35
-92.71
-98.76
-108.84
-121.25
-133.25
-143.07
-150.86
-158.12
-166.06
-174.66
-182.21
-186.65
-187.08
-184.45
-181.06
-179.72
-182.39
-189.44
-199.98
-212.11
-224.00
-234.75
-244.62
-254.68
-266.16
-279.70
-294.94
-310.77
-325.52
-337.51
-345.58
-349.23
-348.46
-343.50
-335.50
-324.29
-309.28
-289.59
-264.40
-233.19
-195.80
-152.45
-103.55
-49.76
8.22
69.29
131.88
194.00
253.25
306.95
352.34
386.90
408.57
416.08
408.91
387.48
353.10
307.97
254.91
197.18
138.14
80.95
28.34
-17.57
-55.27
-83.87
-102.94
-112.57
-113.36
-106.29
-92.74
-74.37
-52.88
-29.82
-6.30
17.16
40.49
63.13
84.80
105.06
123.21
138.37
149.87
157.57
162.49
166.73
173.14
184.25
200.90
221.43
241.87
257.32
263.58
258.60
242.65
217.79
186.94
153.22
119.95
90.61
68.63
56.02
52.40
54.53
57.51
56.94
50.76
40.09
27.97
17.41
9.33
2.45
-5.64
-16.37
-28.74
-39.55
-44.85
-42.46
-33.15
-20.87
-10.74
-6.74
-9.82
-17.38
-25.10
-29.12
-28.48
-25.29
-23.57
-26.36
-33.59
-41.70
-45.14
-39.59
-24.29
-2.97
17.97
32.52
37.99
35.96
30.76
26.91
26.28
27.64
27.92
24.81
18.71
12.83
11.21
15.99
25.54
35.01
38.86
34.21
22.89
10.85
4.92
9.15
22.31
38.95
52.50
59.50
61.82
65.51
76.49
95.67
116.68
128.01
118.79
84.84
31.56
-28.45
-81.80
-120.79
-146.73
-167.75
-193.63
-230.06
-275.85
-324.18
-366.90
-398.56
-418.38
-429.43
-435.34
-437.61
-434.76
-423.20
-399.40
-361.98
-312.96
-257.32
-201.35
-150.49
-107.62
-72.33
-41.61
-11.51
20.99
57.15
96.58
138.07
180.22
221.11
257.59
284.90
297.74
292.45
269.48
234.45
196.51
164.81
144.68
135.98
134.42
134.99
134.98
134.96
136.93
141.51
146.19
146.00
136.24
115.39
86.43
55.70
29.92
13.34
6.12
5.12
5.88
5.05
1.94
-1.52
-2.02
3.20
14.62
29.62
43.19
49.66
45.08
29.02
4.88
-21.32
-43.16
-56.18
-58.92
-52.97
-41.69
-28.63
-16.48
-6.55
1.06
6.97
12.00
16.55
20.30
22.13
20.46
14.08
3.07
-10.88
-24.72
-35.34
-40.69
-40.34
-35.37
-27.45
-17.95
-7.84
2.05
10.47
15.80
16.65
12.69
5.08
-3.66
-10.74
-14.20
-13.86
-11.33
-9.39
-10.46
-15.34
-22.45
-28.47
-29.86
-24.99
-15.00
-3.38
5.93
10.73
11.43
10.27
9.32
8.67
6.31
-0.11
-10.96
-23.43
-32.33
-32.92
-23.68
-7.53
9.47
21.23
24.68
20.89
14.14
8.97
7.62
8.92
9.37
5.63
-3.13
-14.45
-23.85
-27.35
-23.63
-14.89
-5.45
0.53
1.42
-1.13
-3.28
-1.38
5.77
15.93
24.33
26.32
19.90
7.02
-7.30
-17.51
-20.48
-17.11
-11.47
-8.33
-10.14
-15.65
-20.71
-21.06
-14.88
-4.08
6.78
13.07
12.57
6.44
-1.68
-7.91
-10.23
-9.40
-8.11
-9.20
-13.68
-20.06
-24.93
-24.94
-18.68
-7.63
4.41
13.40
17.18
16.50
14.22
13.18
14.29
15.74
14.41
8.01
-2.90
-14.65
-22.23
-21.99
-13.65
-0.45
12.56
21.15
23.77
21.91
18.69
16.69
16.48
16.35
13.63
6.47
-4.65
-16.73
-25.56
-27.79
-22.92
-13.66
-4.74
-0.36
-1.86
-6.88
-10.69
-9.07
-0.94
10.67
20.26
22.92
17.16
5.86
-5.27
-10.92
-9.08
-2.01
5.27
8.08
4.78
-2.43
-8.97
-10.85
-6.97
0.33
6.82
9.12
6.61
1.66
-2.03
-1.80
2.32
7.76
10.83
9.01
2.34
-6.57
-13.88
-16.58
-13.97
-8.15
-2.82
-1.26
-4.41
-10.19
-14.62
-14.11
-7.79
1.67
9.46
11.35
6.27
-2.83
-10.66
-12.57
-7.25
2.54
11.54
15.04
11.61
3.72
-3.77
-6.51
-3.18
3.85
9.88
10.71
5.19
-3.99
-11.79
-13.73
-8.65
0.39
7.77
8.63
1.77
-9.33
-18.37
-19.80
-11.95
1.85
15.15
21.89
19.63
10.81
1.01
-4.31
-2.99
2.83
8.01
7.67
0.10
-12.07
-23.26
-28.04
-24.27
-14.32
-3.84
1.52
-0.65
-8.00
-14.85
-15.40
-7.29
6.86
20.79
28.05
25.58
15.29
2.87
-5.55
-6.90
-2.52
2.95
4.76
0.96
-6.41
-12.66
-13.41
-7.23
3.53
13.95
19.35
17.73
10.58
1.88
-4.22
-5.59
-2.76
1.68
5.04
6.10
5.60
5.47
7.26
11.08
15.15
16.82
13.93
6.16
-4.54
-14.62
-20.43
-19.93
-13.61
-4.57
3.03
5.87
3.31
-2.38
-7.23
-7.97
-4.06
1.74
5.06
2.68
-5.09
-14.20
-19.02
-15.72
-4.81
8.73
18.10
18.52
10.05
-2.61
-12.86
-15.97
-11.62
-3.52
3.11
4.86
1.83
-2.91
-5.63
-4.46
-0.41
3.41
3.86
-0.26
-7.39
-13.89
-16.04
-11.94
-2.63
8.11
15.50
16.06
9.55
-0.79
-9.77
-13.03
-9.34
-1.14
7.13
11.80
12.11
10.24
9.32
10.81
13.21
12.93
6.93
-4.70
-18.21
-27.95
-29.43
-21.99
-8.93
4.27
13.00
15.73
14.20
11.90
11.69
14.25
17.90
19.68
17.05
9.30
-1.92
-13.17
-20.43
-20.83
-13.90
-2.12
9.96
17.54
17.81
11.31
1.54
-7.06
-11.48
-11.76
-10.51
-10.70
-13.44
-17.02
-18.12
-14.31
-6.15
2.69
7.33
4.84
-3.91
-14.30
-20.70
-19.60
-11.67
-1.32
5.96
6.77
1.73
-5.11
-8.84
-6.69
0.28
7.72
10.44
5.26
-7.37
-23.58
-37.94
-45.99
-45.92
-38.94
-28.36
-17.68
-9.35
-4.16
-2.11
-3.42
-9.05
-19.88
-35.04
-50.65
-60.41
-58.43
-43.08
-19.35
2.23
10.23
-1.72
-30.94
-66.25
-92.70
-98.15
-78.04
-36.34
17.44
72.90
122.64
163.91
197.54
225.73
250.11
271.14
287.97
299.12
303.48
299.35
285.06
260.04
226.56
190.09
158.84
140.29
137.31
146.02
156.76
158.48
143.91
112.28
68.24
18.07
-34.24
-87.93
-143.04
-197.19
-243.90
-274.51
-282.41
-266.67
-232.17
-186.67
-136.72
-85.26
-32.59
21.00
72.45
115.75
144.42
154.85
148.16
129.69
106.05
81.98
59.02
35.84
9.99
-20.20
-54.73
-92.15
-130.23
-166.76
-200.00
-228.74
-252.25
-269.97
-281.05
-284.25
-278.04
-260.47
-230.47
-188.44
-136.15
-76.22
-11.50
55.38
121.97
185.72
243.17
291.35
328.00
351.97
363.38
363.68
355.22
340.54
321.86
300.98
278.92
256.09
232.64
208.81
185.09
162.10
140.48
120.69
102.91
87.05
72.75
59.63
47.43
36.08
25.73
16.64
9.04
3.11
-1.14
-3.88
-5.44
-6.23
-6.63
-6.93
-7.34
-7.92
-8.69
-9.62
-10.71
-11.99
-13.45
-14.98
-16.44
-17.59
-18.25
-18.30
-17.82
-17.15
-16.73
-17.10
-18.60
-21.22
-24.65
-28.28
-31.54
-34.16
-36.34
-38.74
-42.21
-47.40
-54.46
-62.93
-71.88
-80.38
-88.02
-95.08
-102.52
-111.38
-122.23
-134.72
-147.54
-159.03
-168.01
-174.42
-179.62
-185.57
-194.28
-206.67
-222.63
-241.43
-262.31
-284.56
-306.88
-326.76
-340.52
-344.53
-336.90
-318.96
-294.88
-269.52
-246.07
-224.62
-202.59
-177.17
-147.76
-117.20
-90.85
-73.71
-67.63
-70.06
-75.16
-76.48
-70.04
-55.77
-37.18
-19.05
-4.84
5.24
13.39
22.57
33.78
44.95
51.56
49.41
37.57
19.82
3.37
-4.32
0.61
16.49
36.55
52.59
59.08
55.67
46.98
39.46
37.25
40.05
43.32
41.60
32.40
18.35
6.06
2.60
11.16
28.98
48.40
60.68
60.62
49.41
33.67
21.88
19.46
26.00
35.33
39.46
33.42
18.47
1.52
-8.55
-6.21
7.76
26.45
40.78
44.64
37.76
25.48
15.24
12.09
16.03
22.43
25.12
20.29
8.93
-3.66
-10.77
-8.10
3.76
19.45
31.47
34.24
26.93
13.79
1.53
-4.37
-2.62
3.43
8.02
6.69
-1.09
-11.59
-19.06
-19.43
-12.36
-1.64
7.25
10.44
7.88
3.49
2.59
8.71
21.13
35.05
44.07
43.84
34.67
21.28
10.35
6.59
10.34
17.49
22.11
19.99
11.11
-0.31
-8.48
-9.45
-3.38
5.62
11.81
11.18
3.69
-6.61
-13.68
-13.18
-4.56
8.32
19.43
23.90
20.56
12.48
4.85
1.92
4.38
9.36
12.09
9.22
1.02
-8.69
-14.53
-12.89
-3.98
8.11
17.58
20.24
15.87
8.47
3.95
6.63
16.67
29.59
38.77
39.16
30.25
16.40
4.50
-0.16
3.40
11.18
16.82
15.39
6.38
-6.03
-15.46
-16.95
-10.02
1.28
10.56
12.78
7.19
-2.40
-9.74
-9.84
-1.81
10.59
20.98
24.06
18.68
8.35
-0.78
-3.67
0.74
8.91
14.89
13.86
4.99
-8.04
-19.21
-23.63
-20.26
-12.18
-4.70
-2.13
-5.17
-10.71
-13.69
-10.25
-0.11
12.94
23.11
25.85
20.55
11.18
3.94
3.69
10.95
21.31
27.75
24.74
11.58
-7.07
-23.26
-30.23
-25.75
-13.31
0.33
8.90
10.04
6.20
2.56
3.54
9.65
17.35
21.07
16.86
5.25
-8.85
-18.46
-18.63
-9.02
5.66
18.31
23.29
19.18
9.39
-0.03
-4.11
-1.52
4.77
9.32
7.66
-1.16
-13.83
-24.45
-27.79
-21.86
-9.18
4.81
14.62
17.57
15.09
11.46
10.97
14.99
21.06
24.22
20.28
8.73
-6.53
-18.90
-22.80
-16.59
-3.68
9.48
16.82
15.71
8.05
-1.36
-7.83
-9.52
-8.15
-7.44
-10.18
-16.20
-22.00
-22.75
-15.46
-1.06
15.39
26.92
28.20
18.21
1.01
-16.19
-26.35
-26.04
-16.50
-2.86
9.01
15.29
16.00
14.29
14.04
17.37
22.86
26.52
24.17
14.22
-0.71
-15.02
-22.87
-21.36
-12.10
-0.39
7.66
8.47
2.80
-4.89
-9.45
-8.11
-2.28
3.37
3.87
-2.82
-14.33
-25.06
-29.18
-24.25
-12.52
0.00
7.05
5.77
-1.64
-9.18
-10.64
-3.24
10.42
24.03
31.17
29.18
20.60
11.63
8.17
12.11
20.27
26.28
24.63
13.89
-2.07
-16.26
-22.56
-18.88
-8.33
2.80
8.60
6.82
-0.24
-7.35
-9.66
-5.76
1.67
7.45
7.08
-0.22
-10.91
-18.97
-19.36
-10.82
2.96
15.48
20.69
16.50
5.81
-4.95
-9.39
-4.73
6.71
18.79
24.85
21.46
10.11
-3.44
-12.62
-13.61
-7.34
1.09
5.73
3.53
-3.86
-10.88
-11.69
-4.06
8.95
20.37
23.46
15.73
0.61
-14.30
-21.72
-18.68
-8.21
2.93
8.08
4.72
-4.28
-12.52
-13.91
-6.27
7.51
21.03
28.01
25.76
16.49
5.99
0.22
1.83
8.67
15.14
15.56
7.80
-5.31
-17.30
-21.81
-16.37
-4.01
8.30
13.55
8.67
-3.84
-17.38
-25.09
-23.56
-14.61
-3.91
2.23
0.29
-8.60
-19.55
-26.50
-25.56
-16.74
-4.02
7.05
12.25
10.99
6.34
3.21
5.08
11.72
18.82
20.41
12.73
-2.99
-20.38
-30.94
-28.85
-14.36
6.08
23.17
30.00
25.76
15.64
7.30
5.95
11.07
17.11
17.21
7.89
-8.22
-23.75
-30.49
-24.41
-7.64
12.40
27.24
31.73
26.72
17.85
11.84
12.15
16.86
19.98
15.42
1.50
-17.37
-32.55
-35.79
-24.16
-1.96
21.04
34.30
31.78
14.90
-8.48
-28.18
-36.76
-33.02
-21.79
-10.65
-5.40
-6.82
-10.77
-11.32
-5.34
5.17
13.79
13.75
2.57
-15.55
-31.65
-36.84
-27.63
-8.14
12.07
23.48
21.96
10.98
-0.99
-5.55
0.22
11.98
20.97
19.41
5.61
-14.65
-31.03
-34.52
-22.55
-0.33
21.86
34.42
33.71
23.38
11.82
6.91
11.16
20.37
26.38
22.22
6.70
-14.33
-30.81
-34.03
-21.27
2.44
26.89
41.63
40.99
26.73
6.22
-11.34
-19.61
-18.00
-11.10
-5.59
-6.07
-12.55
-20.50
-23.82
-19.05
-7.61
4.58
10.28
5.38
-8.35
-24.13
-33.66
-31.97
-20.13
-4.41
7.51
11.11
7.33
1.66
0.36
6.60
18.24
28.99
31.80
22.89
4.16
-17.53
-33.39
-37.26
-28.46
-12.13
3.74
12.65
12.72
7.49
2.97
3.86
10.25
17.84
20.92
16.40
6.55
-2.14
-2.81
7.12
24.01
39.27
44.10
34.36
13.15
-10.80
-27.60
-31.68
-24.61
-14.01
-8.98
-14.54
-28.45
-42.55
-47.29
-37.76
-16.49
7.81
25.16
29.82
23.05
11.60
3.13
1.74
5.70
9.24
6.95
-2.40
-14.56
-22.05
-18.55
-3.02
18.99
37.43
42.74
31.00
6.34
-21.01
-39.58
-42.69
-31.55
-13.98
0.47
6.10
3.81
-0.48
-0.27
6.77
17.35
24.65
23.11
11.91
-3.99
-16.73
-20.06
-12.60
1.55
15.04
21.38
18.39
9.11
0.02
-2.90
2.53
13.14
22.21
23.03
12.92
-4.71
-22.11
-30.98
-27.28
-13.29
3.58
15.06
16.63
9.99
1.43
-2.19
1.94
11.00
18.01
16.60
5.28
-11.30
-24.54
-26.87
-16.12
3.26
22.52
33.35
32.24
21.85
9.05
0.63
-0.49
3.54
7.49
6.65
0.05
-8.80
-13.97
-10.83
0.85
16.42
28.22
29.71
18.80
-0.90
-21.85
-36.32
-40.12
-34.19
-23.62
-14.54
-10.60
-11.26
-12.67
-10.44
-2.96
7.39
15.17
15.00
4.80
-12.58
-30.35
-41.03
-40.18
-28.49
-11.45
3.56
11.17
10.66
6.07
3.34
6.32
14.50
22.90
25.25
18.02
3.08
-12.71
-21.16
-17.32
-2.54
16.13
29.73
32.34
24.25
11.49
1.90
0.42
6.32
13.63
15.10
6.59
-10.21
-28.48
-40.05
-39.83
-28.39
-11.29
4.12
12.93
14.73
13.29
13.67
18.53
26.42
32.74
32.99
26.06
15.75
8.57
9.89
20.12
33.69
41.73
37.14
18.74
-7.53
-31.29
-43.37
-40.42
-26.25
-9.65
0.70
0.50
-8.58
-20.48
-28.84
-30.24
-25.55
-18.62
-13.51
-11.37
-10.26
-6.34
3.05
17.15
31.39
39.29
35.87
20.47
-2.08
-23.29
-34.82
-32.29
-17.66
1.79
16.94
21.24
13.79
-0.64
-14.64
-22.51
-22.84
-18.97
-15.85
-16.42
-19.44
-20.33
-14.72
-1.98
13.32
23.62
22.65
9.97
-8.16
-21.73
-22.13
-7.24
17.22
40.30
51.36
45.39
25.46
1.03
-17.27
-22.84
-16.26
-4.17
5.03
6.06
-0.40
-8.70
-12.19
-7.84
1.81
9.69
8.95
-2.61
-20.50
-35.58
-39.16
-27.81
-5.61
17.90
32.31
31.72
17.72
-2.14
-18.26
-24.20
-19.64
-9.65
-0.97
2.23
0.66
-1.10
1.85
11.04
23.22
32.02
31.72
20.97
3.86
-12.06
-19.65
-16.17
-4.34
9.04
17.20
16.94
10.31
3.11
1.01
6.14
15.39
22.26
20.72
9.14
-8.12
-22.71
-26.96
-18.17
-0.47
17.22
26.08
21.96
7.52
-9.48
-20.61
-21.18
-12.52
-0.57
7.84
9.01
4.59
-0.00
0.83
9.08
21.60
31.68
32.68
21.96
2.72
-17.33
-29.86
-30.18
-19.42
-4.04
7.95
11.47
6.69
-1.26
-5.81
-2.92
6.35
16.39
20.50
14.80
0.63
-15.94
-27.53
-29.43
-22.01
-10.17
-0.30
3.21
0.31
-5.01
-7.67
-4.63
2.95
10.42
12.30
5.74
-7.37
-21.06
-28.63
-26.46
-16.07
-3.60
3.85
2.28
-6.89
-17.93
-24.27
-22.64
-15.09
-7.86
-7.52
-16.70
-32.46
-47.60
-54.64
-50.30
-37.00
-22.05
-13.38
-15.58
-27.53
-43.68
-57.30
-64.39
-65.88
-66.43
-71.33
-82.73
-98.24
-112.15
-119.46
-118.74
-113.20
-109.03
-111.57
-122.27
-137.78
-152.07
-159.93
-160.47
-157.26
-156.42
-163.04
-178.11
-197.76
-214.74
-221.78
-214.73
-194.28
-164.99
-132.73
-102.00
-74.08
-47.24
-18.04
16.85
60.68
114.54
177.87
249.22
326.12
404.97
480.71
546.98
596.69
624.83
627.64
604.33
558.15
496.47
429.22
365.57
310.57
263.40
217.86
165.77
100.84
21.19
-70.11
-166.68
-261.90
-351.36
-433.19
-507.09
-573.12
-630.33
-677.49
-713.64
-738.89
-754.33
-761.77
-762.51
-756.51
-744.90
-725.49
-695.01
-650.39
-589.68
-512.46
-420.04
-314.75
-199.52
-77.75
46.93
169.30
283.11
381.79
461.78
520.69
557.90
574.64
573.77
560.00
539.09
516.79
498.26
487.60
487.45
499.11
522.85
555.39
593.27
633.11
670.96
702.58
723.67
730.04
718.31
686.41
633.84
558.35
461.30
346.61
220.02
88.33
-41.77
-164.27
-274.38
-367.19
-440.83
-494.60
-528.99
-545.35
-545.66
-532.44
-508.42
-476.57
-439.65
-400.23
-359.80
-319.65
-280.96
-245.03
-213.24
-186.85
-166.84
-153.57
-146.78
-145.11
-146.83
-150.28
-154.26
-158.10
-161.53
-164.32
-165.89
-165.23
-160.69
-150.64
-134.11
-111.16
-82.92
-51.13
-17.56
16.58
50.83
85.45
120.89
157.43
195.15
233.85
272.95
311.00
345.36
372.24
387.63
388.63
374.80
348.51
314.27
277.15
240.97
207.43
176.41
147.23
120.02
96.38
78.79
69.21
67.79
72.40
79.49
85.71
89.27
90.47
90.82
91.44
91.85
89.88
83.00
70.06
52.45
33.68
17.70
6.69
-0.20
-6.43
-16.11
-31.64
-52.06
-73.35
-90.09
-97.95
-95.49
-84.63
-69.73
-55.99
-47.85
-48.03
-57.18
-73.97
-95.58
-118.30
-138.47
-153.23
-161.14
-162.25
-157.68
-148.99
-137.78
-125.54
-113.76
-103.97
-97.54
-95.13
-96.30
-99.48
-102.33
-102.62
-99.02
-91.56
-81.49
-70.67
-60.67
-52.11
-44.39
-36.08
-25.42
-10.90
8.37
32.48
60.35
89.66
116.81
137.60
148.45
147.73
136.69
119.27
100.85
86.23
78.01
75.86
77.20
78.64
77.47
72.61
64.62
54.98
45.23
36.27
28.26
20.92
14.14
8.43
4.78
4.10
6.38
10.40
13.98
15.05
12.74
8.06
3.35
1.10
2.41
6.36
10.38
11.81
9.39
4.02
-1.78
-5.34
-5.50
-3.18
-0.79
-0.75
-4.01
-9.48
-14.73
-17.43
-16.77
-13.85
-11.02
-10.44
-12.67
-16.31
-18.62
-17.01
-10.36
0.42
12.83
23.95
31.65
35.21
35.11
32.35
27.68
21.40
13.51
4.33
-5.08
-13.06
-17.87
-18.55
-15.45
-10.24
-5.25
-2.40
-2.37
-4.29
-6.42
-7.22
-6.51
-5.74
-7.34
-13.22
-23.45
-35.75
-46.35
-51.66
-49.90
-41.88
-30.40
-18.91
-9.91
-4.15
-0.83
1.44
3.39
4.58
3.59
-1.00
-9.52
-20.66
-31.80
-40.18
-44.14
-43.99
-41.77
-40.08
-40.66
-43.50
-47.00
-49.03
-48.19
-44.55
-39.27
-33.46
-27.01
-18.20
-4.54
15.75
42.54
73.55
105.50
135.89
164.48
193.15
225.38
264.35
311.32
364.87
421.18
475.24
522.04
557.51
578.87
584.55
573.90
546.88
503.92
445.94
374.57
292.33
202.74
110.17
19.37
-65.43
-141.13
-206.29
-261.04
-306.45
-344.05
-375.53
-402.67
-426.95
-448.56
-465.29
-472.19
-462.92
-432.43
-380.11
-311.33
-236.25
-166.30
-110.04
-70.60
-45.94
-31.34
-22.22
-16.08
-12.42
-11.38
-12.46
-14.13
-14.52
-12.43
-8.02
-2.41
2.67
5.88
6.73
5.80
4.26
3.38
4.72
7.91
12.03
16.12
19.78
23.29
27.10
31.02
33.58
32.28
24.49
9.14
-12.48
-36.93
-59.81
-77.48
-88.22
-92.50
-92.12
-89.24
-85.29
-80.92
-76.36
-71.85
-67.81
-64.63
-62.36
-60.57
-58.58
-55.57
-51.15
-45.51
-39.38
-33.67
-29.04
-25.68
-23.23
-21.05
-18.53
-15.35
-11.63
-7.77
-4.25
-1.39
0.73
2.21
3.19
3.83
4.16
4.12
3.70
2.93
1.97
1.06
0.48
0.40
0.84
1.67
2.60
3.34
3.68
3.49
2.76
1.53
-0.13
-2.09
-4.19
-6.19
-7.88
-9.20
-10.21
-11.08
-11.86
-12.45
-12.53
-11.75
-9.95
-7.30
-4.25
-1.36
0.97
2.55
3.47
3.91
4.01
3.84
3.44
2.92
2.43
2.13
2.10
2.28
2.53
2.68
2.62
2.34
1.88
1.31
0.62
-0.20
-1.20
-2.36
-3.62
-4.85
-5.96
-6.86
-7.52
-7.94
-8.17
-8.27
-8.30
-8.31
-8.33
-8.31
-8.21
-7.96
-7.48
-6.66
-5.44
-3.80
-1.82
0.28
2.19
3.66
4.48
4.64
4.28
3.60
2.85
2.24
1.91
1.92
2.21
2.61
2.92
3.07
3.14
3.36
3.99
5.14
6.68
8.29
9.65
10.55
10.98
11.09
11.07
11.06
11.12
11.29
11.57
11.95
12.34
12.62
12.65
12.37
11.86
11.31
10.95
10.97
11.45
12.24
13.09
13.64
13.54
12.59
10.82
8.42
5.67
2.81
-0.11
-3.19
-6.52
-10.04
-13.44
-16.24
-17.97
-18.40
-17.59
-15.89
-13.75
-11.53
-9.46
-7.64
-6.07
-4.73
-3.62
-2.67
-1.77
-0.80
0.33
1.61
2.94
4.17
5.14
5.77
6.11
6.25
6.31
6.33
6.27
6.01
5.41
4.42
3.08
1.55
0.03
-1.32
-2.45
-3.41
-4.32
-5.29
-6.35
-7.45
-8.52
-9.46
-10.24
-10.83
-11.22
-11.39
-11.31
-10.98
-10.39
-9.59
-8.60
-7.48
-6.24
-4.90
-3.55
-2.29
-1.27
-0.54
-0.03
0.49
1.26
2.44
4.02
5.82
7.55
8.96
9.97
10.75
11.59
12.84
14.71
17.14
19.80
22.07
23.32
23.09
21.37
18.53
15.08
11.37
7.38
2.83
-2.56
-8.64
-15.00
-20.68
-24.63
-26.21
-25.41
-22.83
-19.28
-15.36
-11.40
-7.64
-4.61
-3.18
-4.31
-8.26
-14.31
-20.56
-24.53
-24.08
-18.31
-7.83
5.65
19.92
32.82
42.49
47.60
47.63
43.11
35.70
28.22
24.10
26.04
34.48
46.48
55.83
54.47
35.31
-4.63
-61.83
-125.73
-181.36
-214.34
-216.04
-186.41
-133.50
-70.18
-8.87
40.13
71.21
83.76
81.48
69.17
51.09
30.81
11.45
-4.07
-13.91
-17.60
-16.17
-11.71
-6.86
-3.65
-2.87
-4.01
-5.64
-6.15
-4.20
0.66
7.77
15.43
21.77
25.51
26.38
25.20
23.29
22.01
22.23
24.00
26.62
29.13
30.80
31.41
31.25
30.81
30.60
30.94
31.82
32.93
33.80
33.97
33.09
31.03
27.85
23.81
19.29
14.60
9.94
5.38
0.95
-3.32
-7.33
-10.96
-14.09
-16.62
-18.48
-19.65
-20.11
-19.95
-19.30
-18.40
-17.53
-16.95
-16.81
-17.17
-17.96
-19.05
-20.31
-21.57
-22.68
-23.51
-23.96
-24.03
-23.92
-23.97
-24.62
-26.17
-28.65
-31.66
-34.54
-36.46
-36.76
-35.12
-31.64
-26.76
-21.18
-15.65
-10.78
-6.99
-4.38
-2.84
-2.15
-2.11
-2.64
-3.70
-5.26
-7.16
-9.13
-10.77
-11.74
-11.86
-11.18
-9.88
-8.11
-5.96
-3.36
-0.15
3.78
8.36
13.32
18.12
22.31
25.67
28.30
30.54
32.77
35.30
38.16
41.13
43.77
45.69
46.74
47.05
46.90
46.67
46.80
47.58
49.03
50.73
52.14
52.71
52.10
50.25
46.75
41.62
35.06
28.20
21.28
14.06
5.85
-3.59
-13.97
-24.53
-34.20
-42.01
-47.38
-50.28
-50.95
-49.67
-46.67
-42.15
-36.35
-29.45
-21.72
-13.55
-5.48
1.94
8.33
13.46
17.30
19.98
21.90
23.58
25.48
27.84
30.43
32.72
33.99
33.35
30.09
23.99
15.44
5.35
-5.14
-15.00
-23.65
-30.76
-36.17
-39.81
-41.69
-41.98
-41.03
-39.35
-37.29
-35.16
-33.05
-30.88
-28.50
-25.79
-22.78
-19.66
-16.75
-14.32
-12.52
-11.30
-10.44
-9.66
-8.74
-7.58
-6.22
-4.81
-3.49
-2.38
-1.44
-0.60
0.24
1.13
2.06
2.97
3.78
4.44
4.91
5.26
5.57
5.93
6.40
6.94
7.43
7.79
7.98
8.02
8.01
8.04
8.13
8.25
8.35
8.37
8.33
8.23
8.03
7.62
6.86
5.69
4.17
2.51
1.07
0.20
0.11
0.81
2.05
3.46
4.68
5.51
6.01
6.35
6.75
7.25
7.66
7.62
6.82
5.16
2.92
0.62
-1.18
-2.19
-2.54
-2.70
-3.21
-4.36
-6.04
-7.80
-9.17
-9.86
-9.93
-9.66
-9.51
-9.95
-11.47
-14.46
-19.09
-25.09
-31.62
-37.17
-40.03
-38.81
-33.01
-23.31
-11.34
0.88
11.61
19.82
25.30
28.33
29.26
28.37
25.92
22.43
18.81
16.49
16.42
18.85
23.05
27.54
30.72
31.57
30.00
26.72
22.72
18.73
14.95
11.22
7.25
2.92
-1.67
-6.38
-11.01
-15.33
-19.13
-22.04
-23.62
-23.54
-21.70
-18.34
-13.93
-8.99
-4.03
0.52
4.33
7.19
8.98
9.71
9.57
8.83
7.82
6.75
5.67
4.53
3.24
1.77
0.17
-1.49
-3.08
-4.48
-5.61
-6.43
-6.92
-7.12
-7.10
-6.96
-6.80
-6.68
-6.61
-6.55
-6.43
-6.17
-5.74
-5.18
-4.59
-4.07
-3.72
-3.55
-3.52
-3.53
-3.50
-3.37
-3.12
-2.76
-2.33
-1.85
-1.35
-0.87
-0.46
-0.15
0.07
0.31
0.70
1.38
2.34
3.47
4.55
5.39
5.84
5.90
5.64
5.16
4.59
4.04
3.67
3.69
4.29
5.58
7.50
9.86
12.48
15.16
17.76
20.12
22.13
23.76
25.18
26.63
28.39
30.56
32.76
34.02
33.15
29.29
22.51
13.81
4.77
-3.31
-9.74
-14.46
-17.74
-19.93
-21.09
-21.12
-19.88
-17.31
-13.73
-9.82
-6.24
-3.54
-1.89
-1.08
-0.52
0.46
2.40
5.38
8.98
12.35
14.46
14.51
12.26
8.20
3.31
-1.30
-4.59
-6.47
-7.10
-7.03
-6.98
-7.69
-9.74
-13.42
-18.56
-24.54
-30.37
-34.89
-37.24
-37.08
-34.61
-30.40
-25.15
-19.48
-13.89
-8.78
-4.42
-0.99
1.50
3.24
4.52
5.58
6.51
7.22
7.53
7.33
6.66
5.71
4.73
3.95
3.53
3.48
3.75
4.26
4.86
5.39
5.68
5.63
5.29
4.81
4.38
4.18
4.20
4.30
4.25
3.89
3.20
2.28
1.39
0.76
0.57
0.88
1.65
2.80
4.18
5.64
7.01
8.03
8.46
8.09
6.87
4.91
2.48
-0.12
-2.62
-4.88
-6.96
-8.96
-10.98
-13.03
-15.04
-16.89
-18.43
-19.53
-20.12
-20.23
-20.09
-20.00
-20.40
-21.73
-24.22
-27.82
-32.06
-36.31
-39.98
-42.77
-44.79
-46.57
-48.87
-52.32
-57.09
-62.72
-67.94
-71.30
-71.37
-67.09
-57.97
-44.23
-26.79
-7.61
11.53
29.13
44.12
55.91
64.40
69.92
72.94
73.99
73.49
71.87
69.38
66.11
62.17
57.64
52.65
47.29
41.64
35.72
29.65
23.50
17.36
11.35
5.58
0.10
-5.03
-9.74
-13.88
-17.12
-19.16
-19.80
-19.09
-17.37
-15.17
-13.03
-11.29
-9.96
-8.77
-7.41
-5.67
-3.56
-1.36
0.56
1.87
2.38
2.04
0.94
-0.82
-3.09
-5.70
-8.36
-10.75
-12.55
-13.51
-13.58
-12.99
-12.25
-12.00
-12.77
-14.73
-17.55
-20.46
-22.64
-23.54
-23.14
-21.91
-20.45
-18.99
-17.18
-14.22
-9.27
-1.94
7.43
17.95
28.49
38.00
45.42
49.86
50.62
47.52
41.14
32.92
24.90
19.04
16.44
16.99
19.93
23.92
27.80
30.83
32.67
33.16
32.25
29.95
26.43
22.11
17.27
12.41
8.00
4.36
1.56
-0.48
-1.97
-3.12
-4.08
-4.90
-5.57
-6.08
-6.48
-6.91
-7.48
-8.20
-8.91
-9.33
-9.19
-8.37
-7.05
-5.68
-4.77
-4.68
-5.48
-6.91
-8.58
-10.09
-11.21
-11.89
-12.14
-12.01
-11.48
-10.56
-9.32
-7.89
-6.47
-5.19
-4.08
-3.05
-1.93
-0.61
0.94
2.60
4.17
5.43
6.28
6.75
7.04
7.42
8.16
9.35
10.90
12.50
13.83
14.64
14.88
14.73
14.51
14.49
14.85
15.57
16.54
17.60
18.52
19.03
18.75
17.41
15.00
11.82
8.43
5.42
3.14
1.51
0.02
-1.94
-4.74
-8.20
-11.68
-14.46
-16.44
-17.89
-19.36
-21.33
-23.90
-26.77
-29.42
-31.21
-31.92
-31.71
-30.90
-29.79
-28.51
-26.96
-25.00
-22.54
-19.76
-16.98
-14.61
-12.85
-11.70
-10.97
-10.39
-9.72
-8.85
-7.82
-6.77
-5.87
-5.21
-4.80
-4.56
-4.36
-4.02
-3.42
-2.45
-1.13
0.49
2.28
4.10
5.79
7.24
8.38
9.16
9.63
9.80
9.74
9.52
9.23
8.95
8.75
8.63
8.54
8.39
8.08
7.54
6.78
5.92
5.07
4.38
3.90
3.61
3.41
3.18
2.87
2.44
1.94
1.42
0.94
0.53
0.20
-0.02
-0.12
-0.04
0.19
0.55
0.93
1.21
1.28
1.10
0.71
0.27
-0.05
-0.13
0.03
0.36
0.72
0.98
1.12
1.15
1.11
1.04
0.92
0.77
0.60
0.47
0.42
0.45
0.49
0.48
0.35
0.10
-0.18
-0.38
-0.44
-0.37
-0.25
-0.17
-0.19
-0.31
-0.47
-0.63
-0.75
-0.84
-0.91
-0.98
-1.05
-1.11
-1.15
-1.21
-1.28
-1.38
-1.51
-1.62
-1.69
-1.73
-1.69
-1.55
-1.25
-0.78
-0.20
0.38
0.81
1.01
0.99
0.85
0.76
0.84
1.14
1.57
1.99
2.23
2.21
1.92
1.45
0.94
0.52
0.28
0.24
0.37
0.56
0.67
0.56
0.16
-0.50
-1.24
-1.85
-2.13
-2.06
-1.76
-1.48
-1.39
-1.48
-1.61
-1.54
-1.17
-0.61
-0.15
-0.06
-0.46
-1.20
-1.92
-2.28
-2.08
-1.36
-0.33
0.68
1.33
1.42
0.94
0.08
-0.78
-1.20
-0.91
0.10
1.47
2.64
3.08
2.54
1.18
-0.54
-2.04
-2.75
-2.26
-0.39
2.56
5.66
7.44
6.21
0.75
-8.96
-21.33
-33.47
-42.16
-45.07
-41.64
-33.09
-21.63
-9.44
2.17
12.83
22.59
31.33
38.60
43.79
46.49
47.18
46.51
45.25
43.99
42.96
41.92
40.44
38.08
34.64
30.26
25.21
19.84
14.38
8.84
3.13
-2.81
-8.86
-14.60
-19.48
-23.03
-25.06
-25.67
-25.21
-24.12
-22.79
-21.42
-20.07
-18.72
-17.39
-16.09
-14.86
-13.73
-12.70
-11.76
-10.93
-10.21
-9.60
-9.13
-8.74
-8.38
-7.96
-7.41
-6.71
-5.90
-5.06
-4.28
-3.61
-3.03
-2.46
-1.81
-1.05
-0.19
0.65
1.39
1.94
2.25
2.33
2.25
2.09
1.94
1.85
1.82
1.81
1.73
1.52
1.16
0.72
0.29
-0.04
-0.20
-0.15
0.09
0.44
0.78
1.00
1.01
0.82
0.51
0.23
0.08
0.08
0.13
0.16
0.12
0.05
0.01
0.07
0.17
0.24
0.18
-0.04
-0.37
-0.69
-0.93
-1.03
-1.00
-0.86
-0.68
-0.51
-0.43
-0.47
-0.64
-0.87
-1.09
-1.22
-1.27
-1.30
-1.36
-1.53
-1.82
-2.17
-2.54
-2.83
-2.97
-2.97
-2.84
-2.68
-2.62
-2.75
-3.08
-3.51
-3.90
-4.11
-4.10
-3.94
-3.78
-3.73
-3.81
-3.92
-3.95
-3.80
-3.46
-3.00
-2.44
-1.81
-1.06
-0.20
0.70
1.53
2.17
2.65
3.11
3.80
4.89
6.39
8.13
9.84
11.32
12.52
13.54
14.48
15.31
15.84
15.77
14.87
13.08
10.60
7.75
4.87
2.18
-0.20
-2.24
-3.88
-5.04
-5.64
-5.64
-5.17
-4.42
-3.64
-2.98
-2.53
-2.24
-2.04
-1.86
-1.64
-1.37
-1.04
-0.69
-0.38
-0.22
-0.30
-0.63
-1.15
-1.69
-2.07
-2.14
-1.91
-1.49
-1.07
-0.80
-0.75
-0.93
-1.25
-1.59
-1.88
-2.08
-2.19
-2.22
-2.20
-2.14
-2.03
-1.89
-1.72
-1.54
-1.40
-1.29
-1.18
-1.04
-0.83
-0.55
-0.25
-0.01
0.10
0.10
0.03
-0.03
-0.06
-0.08
-0.16
-0.35
-0.59
-0.81
-0.86
-0.70
-0.34
0.06
0.39
0.53
0.53
0.47
0.46
0.53
0.62
0.67
0.63
0.53
0.44
0.42
0.46
0.48
0.41
0.23
0.00
-0.16
-0.18
-0.08
0.06
0.13
0.07
-0.10
-0.28
-0.41
-0.45
-0.46
-0.50
-0.64
-0.83
-0.99
-1.01
-0.86
-0.59
-0.31
-0.13
-0.07
-0.08
-0.02
0.19
0.55
0.94
1.20
1.20
0.94
0.52
0.09
-0.23
-0.35
-0.29
-0.09
0.20
0.51
0.76
0.88
0.80
0.51
0.04
-0.49
-0.95
-1.23
-1.26
-1.08
-0.78
-0.47
-0.23
-0.11
-0.12
-0.20
-0.30
-0.35
-0.29
-0.13
0.09
0.29
0.39
0.39
0.29
0.14
-0.00
-0.13
-0.23
-0.28
-0.22
-0.01
0.38
0.87
1.27
1.40
1.18
0.67
0.12
-0.23
-0.22
0.14
0.64
1.06
1.20
1.05
0.69
0.25
-0.15
-0.46
-0.67
-0.76
-0.72
-0.54
-0.22
0.15
0.44
0.54
0.40
0.08
-0.25
-0.44
-0.40
-0.13
0.23
0.59
0.85
1.04
1.24
1.47
1.71
1.85
1.79
1.50
1.10
0.74
0.57
0.63
0.80
0.91
0.82
0.53
0.15
-0.13
-0.15
0.10
0.51
0.89
1.08
1.01
0.71
0.28
-0.16
-0.52
-0.75
-0.81
-0.66
-0.31
0.18
0.72
1.15
1.37
1.33
1.07
0.73
0.44
0.32
0.39
0.61
0.85
0.98
0.90
0.53
-0.07
-0.76
-1.30
-1.49
-1.19
-0.49
0.36
1.01
1.09
0.43
-0.96
-2.79
-4.67
-6.22
-7.17
-7.52
-7.42
-6.99
-6.17
-4.61
-1.87
2.36
7.93
14.11
19.69
23.46
24.73
23.78
21.79
20.33
20.64
23.07
26.81
30.26
31.73
30.25
26.09
20.61
15.70
13.03
13.66
17.77
24.61
32.27
37.58
36.53
25.30
1.95
-32.26
-71.64
-107.29
-130.31
-135.89
-125.54
-105.78
-84.24
-65.68
-50.54
-36.54
-21.56
-5.80
8.29
17.79
21.45
20.55
18.41
18.35
22.03
28.97
36.88
42.79
44.30
40.49
32.27
21.98
12.35
5.49
2.13
1.56
2.08
1.77
-0.74
-5.86
-12.98
-20.73
-27.46
-31.18
-29.62
-20.40
-2.32
23.24
51.55
75.59
89.93
92.06
82.91
66.08
46.17
26.71
10.14
-2.61
-11.53
-16.83
-18.74
-17.57
-14.01
-9.24
-4.83
-2.07
-1.58
-3.03
-5.23
-6.89
-7.14
-5.87
-3.64
-1.49
-0.38
-0.91
-3.08
-6.27
-9.65
-12.55
-14.61
-15.97
-17.11
-18.61
-20.88
-23.81
-26.75
-28.78
-29.07
-27.35
-24.07
-20.33
-17.43
-16.29
-16.99
-18.69
-20.00
-19.69
-17.19
-12.77
-7.38
-2.25
1.61
3.68
4.14
3.72
3.46
4.36
7.11
11.80
17.78
23.92
29.02
32.34
33.92
34.44
34.88
36.17
38.56
41.23
42.04
37.84
25.60
3.88
-25.93
-59.50
-90.06
-110.49
-115.99
-106.39
-86.30
-62.83
-42.12
-27.05
-17.42
-10.90
-5.85
-1.99
0.21
0.66
0.37
1.21
4.95
12.34
22.69
33.98
43.71
49.88
51.69
49.71
45.52
40.83
36.83
33.86
31.41
28.74
25.36
21.30
17.16
13.81
11.90
11.57
12.47
13.81
14.81
14.92
13.98
12.19
9.92
7.59
5.50
3.77
2.41
1.34
0.46
-0.37
-1.26
-2.33
-3.59
-4.99
-6.37
-7.62
-8.63
-9.41
-10.03
-10.56
-11.01
-11.28
-11.26
-10.91
-10.26
-9.47
-8.74
-8.23
-8.03
-8.11
-8.42
-8.88
-9.38
-9.80
-9.99
-9.75
-8.90
-7.38
-5.27
-2.80
-0.35
1.72
3.05
3.49
3.01
1.77
-0.02
-2.14
-4.44
-6.81
-9.14
-11.29
-13.10
-14.42
-15.13
-15.22
-14.70
-13.59
-11.87
-9.47
-6.37
-2.61
1.61
6.00
10.23
14.02
17.16
19.56
21.21
22.13
22.43
22.25
21.79
21.24
20.71
20.23
19.68
18.94
17.87
16.40
14.53
12.29
9.74
6.95
4.01
1.04
-1.81
-4.48
-6.93
-9.18
-11.28
-13.19
-14.88
-16.26
-17.29
-17.96
-18.26
-18.15
-17.52
-16.25
-14.27
-11.64
-8.56
-5.37
-2.46
-0.14
1.40
2.10
2.01
1.25
-0.01
-1.56
-3.19
-4.68
-5.83
-6.45
-6.45
-5.77
-4.45
-2.63
-0.55
1.52
3.30
4.64
5.49
5.93
6.13
6.22
6.25
6.21
6.04
5.71
5.21
4.58
3.80
2.87
1.73
0.41
-1.01
-2.37
-3.50
-4.28
-4.68
-4.79
-4.75
-4.68
-4.62
-4.54
-4.34
-3.92
-3.28
-2.45
-1.55
-0.68
0.03
0.52
0.79
0.88
0.86
0.79
0.71
0.67
0.72
0.88
1.10
1.28
1.30
1.09
0.67
0.13
-0.42
-0.85
-1.10
-1.13
-0.89
-0.38
0.39
1.33
2.31
3.21
3.92
4.40
4.64
4.66
4.47
4.10
3.59
3.06
2.63
2.39
2.36
2.46
2.59
2.67
2.68
2.67
2.67
2.67
2.56
2.26
1.71
0.94
0.12
-0.61
-1.11
-1.38
-1.47
-1.48
-1.49
-1.48
-1.46
-1.44
-1.46
-1.61
-1.95
-2.43
-2.98
-3.46
-3.78
-3.90
-3.83
-3.65
-3.41
-3.16
-2.92
-2.70
-2.48
-2.21
-1.82
-1.28
-0.58
0.18
0.87
1.39
1.70
1.82
1.86
1.88
1.90
1.88
1.76
1.56
1.33
1.18
1.15
1.20
1.19
1.02
0.63
0.10
-0.42
-0.79
-1.01
-1.11
-1.20
-1.32
-1.41
-1.40
-1.24
-0.96
-0.72
-0.67
-0.88
-1.31
-1.81
-2.23
-2.46
-2.48
-2.35
-2.15
-1.93
-1.74
-1.58
-1.43
-1.26
-1.05
-0.80
-0.52
-0.24
0.05
0.38
0.80
1.34
1.93
2.45
2.74
2.68
2.26
1.61
0.93
0.45
0.30
0.48
0.86
1.26
1.48
1.43
1.11
0.63
0.13
-0.28
-0.54
-0.63
-0.60
-0.51
-0.40
-0.27
-0.13
-0.02
0.01
-0.11
-0.41
-0.86
-1.36
-1.78
-2.04
-2.14
-2.16
-2.17
-2.19
-2.19
-2.08
-1.79
-1.31
-0.70
-0.01
0.69
1.34
1.90
2.29
2.46
2.35
1.99
1.43
0.78
0.14
-0.39
-0.74
-0.87
-0.77
-0.48
-0.09
0.35
0.79
1.23
1.74
2.35
3.00
3.58
3.95
4.03
3.84
3.49
3.17
3.00
2.99
3.01
2.93
2.61
2.06
1.39
0.75
0.22
-0.16
-0.46
-0.72
-0.95
-1.12
-1.22
-1.27
-1.34
-1.53
-1.87
-2.30
-2.72
-2.97
-3.02
-2.86
-2.58
-2.27
-1.97
-1.69
-1.43
-1.17
-0.95
-0.79
-0.73
-0.74
-0.80
-0.86
-0.85
-0.74
-0.49
-0.12
0.35
0.82
1.16
1.24
0.94
0.24
-0.78
-2.00
-3.24
-4.38
-5.34
-6.11
-6.70
-7.07
-7.16
-6.92
-6.31
-5.43
-4.40
-3.40
-2.55
-1.94
-1.54
-1.29
-1.08
-0.79
-0.30
0.49
1.61
3.01
4.53
6.03
7.38
8.56
9.59
10.48
11.21
11.64
11.62
11.04
9.88
8.23
6.26
4.13
2.00
-0.04
-1.88
-3.41
-4.48
-5.04
-5.09
-4.75
-4.23
-3.74
-3.45
-3.43
-3.67
-4.14
-4.78
-5.49
-6.12
-6.47
-6.31
-5.49
-4.01
-1.98
0.41
2.93
5.39
7.57
9.23
10.16
10.24
9.57
8.46
7.33
6.54
6.23
6.33
6.58
6.75
6.69
6.41
6.03
5.64
5.28
4.95
4.57
4.07
3.43
2.68
1.89
1.13
0.46
-0.15
-0.80
-1.60
-2.60
-3.77
-4.99
-6.10
-6.96
-7.51
-7.74
-7.69
-7.41
-6.94
-6.34
-5.64
-4.91
-4.22
-3.61
-3.09
-2.63
-2.19
-1.76
-1.37
-1.08
-0.94
-0.95
-1.05
-1.16
-1.19
-1.07
-0.79
-0.33
0.32
1.19
2.28
3.54
4.85
6.01
6.84
7.21
7.07
6.56
5.87
5.28
5.00
5.10
5.47
5.88
6.09
5.89
5.21
4.11
2.70
1.13
-0.46
-1.92
-3.09
-3.82
-3.98
-3.50
-2.40
-0.84
0.96
2.74
4.27
5.35
5.90
5.93
5.46
4.57
3.29
1.70
-0.10
-1.97
-3.73
-5.26
-6.51
-7.50
-8.31
-8.98
-9.49
-9.75
-9.66
-9.18
-8.35
-7.29
-6.14
-5.05
-4.12
-3.41
-2.95
-2.75
-2.80
-3.09
-3.53
-4.06
-4.54
-4.86
-4.93
-4.73
-4.33
-3.85
-3.42
-3.09
-2.86
-2.64
-2.36
-1.98
-1.53
-1.08
-0.72
-0.50
-0.45
-0.54
-0.74
-1.02
-1.38
-1.77
-2.14
-2.35
-2.28
-1.82
-0.92
0.38
1.99
3.81
5.77
7.79
9.81
11.70
13.27
14.34
14.74
14.41
13.33
11.60
9.39
6.91
4.42
2.18
0.39
-0.89
-1.72
-2.25
-2.68
-3.12
-3.64
-4.24
-4.88
-5.52
-6.12
-6.65
-7.01
-7.10
-6.86
-6.23
-5.28
-4.12
-2.93
-1.85
-1.01
-0.44
-0.11
0.05
0.15
0.27
0.47
0.76
1.14
1.56
2.01
2.44
2.85
3.21
3.47
3.59
3.50
3.19
2.68
2.06
1.44
0.88
0.43
0.08
-0.17
-0.37
-0.53
-0.67
-0.81
-0.95
-1.08
-1.13
-1.07
-0.88
-0.63
-0.42
-0.35
-0.46
-0.69
-0.90
-0.97
-0.82
-0.46
-0.01
0.39
0.60
0.54
0.22
-0.31
-0.93
-1.54
-1.99
-2.16
-1.96
-1.36
-0.47
0.55
1.48
2.13
2.39
2.30
1.95
1.48
1.05
0.73
0.58
0.62
0.80
1.08
1.36
1.57
1.63
1.53
1.26
0.89
0.47
0.10
-0.16
-0.26
-0.23
-0.13
-0.09
-0.14
-0.29
-0.45
-0.53
-0.48
-0.37
-0.31
-0.41
-0.67
-1.02
-1.36
-1.64
-1.87
-2.08
-2.29
-2.42
-2.36
-2.07
-1.62
-1.19
-0.96
-0.95
-1.05
-1.03
-0.69
-0.03
0.78
1.51
1.97
2.13
2.08
1.94
1.75
1.49
1.12
0.68
0.31
0.15
0.29
0.65
1.02
1.17
1.00
0.58
0.09
-0.30
-0.49
-0.52
-0.47
-0.41
-0.34
-0.25
-0.11
0.07
0.23
0.32
0.30
0.21
0.06
-0.10
-0.26
-0.38
-0.40
-0.29
-0.05
0.26
0.53
0.70
0.75
0.76
0.77
0.83
0.87
0.83
0.66
0.36
0.01
-0.32
-0.58
-0.79
-1.02
-1.27
-1.51
-1.68
-1.70
-1.56
-1.28
-0.91
-0.51
-0.18
0.03
0.07
-0.08
-0.35
-0.67
-0.97
-1.19
-1.36
-1.54
-1.74
-1.90
-1.92
-1.72
-1.30
-0.79
-0.41
-0.37
-0.73
-1.37
-1.99
-2.29
-2.07
-1.41
-0.61
-0.03
0.08
-0.29
-0.83
-1.11
-0.75
0.30
1.69
2.77
2.92
1.83
-0.32
-2.83
-4.72
-5.19
-4.04
-1.76
0.56
1.78
1.19
-1.15
-4.33
-6.97
-7.85
-6.49
-3.30
0.67
4.18
6.17
5.82
2.76
-2.78
-9.51
-14.87
-15.29
-7.34
10.58
36.73
65.53
89.46
102.37
102.25
91.51
74.88
56.64
38.94
22.05
5.60
-10.01
-23.41
-33.04
-38.21
-39.60
-38.89
-37.91
-37.84
-39.13
-40.96
-41.99
-41.10
-37.89
-32.86
-27.09
-21.73
-17.51
-14.50
-12.15
-9.69
-6.59
-2.81
1.18
4.66
7.03
8.04
7.84
6.98
6.05
5.53
5.58
6.08
6.80
7.52
8.22
8.98
9.87
10.72
11.18
10.79
9.23
6.58
3.28
-0.01
-2.72
-4.60
-5.78
-6.64
-7.52
-8.57
-9.64
-10.48
-10.89
-10.85
-10.56
-10.30
-10.26
-10.49
-10.83
-11.07
-11.03
-10.70
-10.22
-9.84
-9.73
-9.95
-10.40
-10.90
-11.26
-11.41
-11.39
-11.32
-11.32
-11.43
-11.60
-11.69
-11.58
-11.22
-10.68
-10.09
-9.55
-9.11
-8.72
-8.28
-7.70
-7.01
-6.30
-5.61
-4.92
-4.07
-2.89
-1.31
0.56
2.47
4.25
5.80
7.29
9.04
11.40
14.56
18.54
23.20
28.30
33.65
38.93
43.83
47.96
50.89
52.20
51.65
49.24
45.29
40.34
34.98
29.67
24.57
19.57
14.42
8.92
3.08
-2.86
-8.50
-13.41
-17.28
-19.93
-21.41
-21.85
-21.52
-20.74
-19.88
-19.26
-19.15
-19.59
-20.33
-20.76
-20.10
-17.69
-13.38
-7.78
-2.11
2.26
4.39
4.11
2.02
-0.91
-3.85
-6.39
-8.53
-10.44
-12.16
-13.56
-14.46
-14.84
-14.95
-15.13
-15.60
-16.27
-16.79
-16.65
-15.52
-13.33
-10.37
-7.18
-4.34
-2.26
-1.07
-0.59
-0.46
-0.30
0.14
0.93
1.97
3.11
4.22
5.21
6.03
6.62
6.91
6.89
6.58
6.13
5.64
5.22
4.84
4.43
3.94
3.40
2.89
2.55
2.44
2.49
2.57
2.54
2.29
1.83
1.25
0.68
0.18
-0.24
-0.63
-1.02
-1.42
-1.79
-2.05
-2.14
-2.04
-1.81
-1.55
-1.37
-1.33
-1.44
-1.61
-1.73
-1.69
-1.50
-1.20
-0.87
-0.55
-0.26
0.01
0.27
0.45
0.50
0.39
0.19
-0.01
-0.10
-0.05
0.10
0.29
0.44
0.57
0.70
0.85
0.99
1.06
1.01
0.84
0.58
0.31
0.11
0.02
0.04
0.15
0.26
0.31
0.25
0.07
-0.16
-0.37
-0.51
-0.55
-0.55
-0.58
-0.70
-0.93
-1.25
-1.63
-2.06
-2.56
-3.15
-3.83
-4.58
-5.37
-6.13
-6.77
-7.16
-7.19
-6.78
-5.95
-4.87
-3.83
-3.18
-3.21
-3.97
-5.28
-6.78
-8.01
-8.59
-8.30
-7.16
-5.33
-3.03
-0.49
2.09
4.51
6.62
8.25
9.29
9.72
9.63
9.20
8.63
8.12
7.77
7.59
7.52
7.47
7.32
7.00
6.47
5.73
4.86
3.97
3.18
2.57
2.15
1.85
1.58
1.29
0.97
0.68
0.46
0.33
0.23
0.11
-0.10
-0.40
-0.70
-0.92
-0.97
-0.83
-0.54
-0.22
0.00
0.04
-0.09
-0.34
-0.59
-0.74
-0.79
-0.77
-0.77
-0.88
-1.09
-1.34
-1.56
-1.66
-1.59
-1.34
-0.93
-0.43
0.12
0.67
1.16
1.56
1.85
2.04
2.14
2.20
2.23
2.23
2.17
2.03
1.79
1.51
1.27
1.16
1.24
1.49
1.80
2.08
2.23
2.30
2.36
2.49
2.68
2.85
2.90
2.75
2.47
2.18
2.01
2.02
2.15
2.29
2.32
2.19
1.90
1.46
0.89
0.17
-0.67
-1.62
-2.58
-3.50
-4.31
-4.99
-5.51
-5.81
-5.89
-5.74
-5.44
-5.08
-4.76
-4.50
-4.22
-3.78
-3.07
-2.07
-0.94
0.12
0.88
1.22
1.17
0.89
0.59
0.43
0.49
0.72
1.01
1.25
1.33
1.23
0.98
0.64
0.27
-0.05
-0.30
-0.47
-0.54
-0.56
-0.54
-0.54
-0.56
-0.63
-0.73
-0.81
-0.85
-0.85
-0.83
-0.83
-0.85
-0.85
-0.79
-0.62
-0.36
-0.09
0.10
0.17
0.14
0.07
0.08
0.22
0.53
0.94
1.40
1.83
2.16
2.39
2.53
2.60
2.63
2.65
2.64
2.56
2.39
2.10
1.72
1.31
0.95
0.68
0.51
0.45
0.46
0.53
0.62
0.71
0.77
0.75
0.61
0.31
-0.10
-0.56
-0.98
-1.30
-1.48
-1.54
-1.49
-1.33
-1.05
-0.66
-0.19
0.26
0.63
0.85
0.94
0.96
0.97
1.00
1.03
0.99
0.82
0.50
0.09
-0.30
-0.57
-0.67
-0.60
-0.45
-0.31
-0.25
-0.29
-0.43
-0.61
-0.75
-0.80
-0.73
-0.56
-0.32
-0.07
0.14
0.28
0.34
0.29
0.12
-0.19
-0.59
-1.00
-1.29
-1.38
-1.25
-0.96
-0.60
-0.25
0.04
0.24
0.35
0.39
0.33
0.18
-0.05
-0.29
-0.47
-0.51
-0.36
-0.04
0.34
0.65
0.80
0.74
0.55
0.34
0.22
0.22
0.29
0.34
0.31
0.20
0.01
-0.19
-0.35
-0.42
-0.38
-0.23
-0.04
0.11
0.14
0.04
-0.14
-0.28
-0.31
-0.23
-0.10
0.02
0.09
0.15
0.23
0.34
0.44
0.47
0.43
0.35
0.31
0.37
0.49
0.61
0.62
0.50
0.30
0.13
0.07
0.14
0.27
0.35
0.32
0.17
-0.02
-0.18
-0.25
-0.25
-0.24
-0.26
-0.33
-0.39
-0.39
-0.31
-0.17
-0.06
-0.02
-0.08
-0.20
-0.33
-0.44
-0.55
-0.69
-0.88
-1.10
-1.27
-1.34
-1.23
-0.94
-0.53
-0.06
0.37
0.71
0.92
0.99
0.92
0.76
0.56
0.39
0.28
0.27
0.36
0.52
0.71
0.85
0.89
0.78
0.51
0.13
-0.27
-0.60
-0.78
-0.77
-0.59
-0.29
0.03
0.29
0.43
0.43
0.34
0.25
0.25
0.40
0.68
1.02
1.29
1.39
1.25
0.91
0.47
0.03
-0.31
-0.49
-0.48
-0.31
-0.04
0.23
0.42
0.45
0.32
0.05
-0.32
-0.72
-1.08
-1.34
-1.44
-1.33
-1.00
-0.50
0.10
0.75
1.39
2.00
2.58
3.13
3.68
4.25
4.88
5.55
6.24
6.87
7.32
7.55
7.60
7.66
7.94
8.60
9.65
10.99
12.40
13.68
14.67
15.35
15.80
16.17
16.63
17.34
18.39
19.77
21.39
23.11
24.83
26.58
28.53
30.86
33.75
37.24
41.14
45.16
48.99
52.54
56.02
60.01
65.01
71.38
79.09
87.67
96.35
104.46
111.71
118.35
125.06
132.25
140.17
148.90
158.47
168.88
179.79
190.15
197.86
199.98
192.85
173.91
142.49
100.08
49.74
-4.82
-60.21
-113.85
-164.32
-212.11
-258.75
-306.46
-357.65
-414.08
-475.92
-541.34
-606.96
-663.51
-702.55
-717.25
-703.92
-663.16
-600.13
-523.32
-441.85
-362.13
-285.70
-209.96
-129.74
-41.20
54.67
151.20
238.29
306.71
353.00
380.26
394.29
401.12
404.73
406.36
405.44
400.96
392.24
378.85
359.86
333.79
300.08
260.04
216.56
173.15
132.43
94.64
59.09
24.57
-9.42
-41.69
-70.04
-92.78
-109.67
-121.84
-130.40
-134.97
-133.62
-123.79
-104.04
-75.74
-43.19
-12.08
13.07
30.94
43.95
56.65
73.21
95.31
121.34
147.27
168.55
181.71
185.10
178.64
162.77
137.87
104.18
61.90
11.41
-46.68
-111.19
-179.65
-247.36
-307.21
-350.73
-370.30
-361.69
-325.52
-267.16
-195.16
-119.32
-48.95
8.51
48.53
70.43
77.48
76.14
74.21
78.43
92.55
116.78
148.62
184.19
219.35
249.65
270.57
277.68
267.87
240.42
197.45
143.30
82.94
20.29
-43.27
-108.45
-176.27
-245.68
-312.01
-367.27
-402.70
-412.18
-394.47
-354.25
-299.89
-239.58
-177.84
-114.77
-48.54
20.75
86.40
138.27
165.12
160.46
126.98
76.89
27.81
-3.65
-7.49
17.56
66.20
128.84
194.63
253.07
294.35
309.75
293.06
243.17
163.42
67.37
-24.79
-92.80
-124.08
-118.08
-85.26
-41.10
0.58
31.99
52.50
65.40
74.60
82.70
90.36
96.72
100.29
99.22
91.77
77.30
57.16
32.93
6.87
-18.25
-39.88
-56.21
-66.44
-70.69
-69.46
-63.97
-56.22
-48.44
-42.53
-39.46
-38.99
-39.84
-40.38
-39.26
-36.02
-31.41
-26.67
-23.00
-21.02
-20.59
-20.98
-21.26
-20.68
-18.96
-16.44
-13.69
-11.24
-9.46
-8.36
-7.80
-7.49
-7.17
-6.70
-6.02
-5.18
-4.26
-3.38
-2.68
-2.23
-2.03
-1.97
-1.86
-1.56
-1.02
-0.29
0.49
1.15
1.57
1.70
1.60
1.35
1.02
0.66
0.33
0.05
-0.12
-0.14
-0.03
0.19
0.45
0.68
0.84
0.90
0.84
0.68
0.48
0.30
0.19
0.18
0.24
0.32
0.35
0.27
0.09
-0.16
-0.43
-0.70
-0.95
-1.16
-1.31
-1.40
-1.44
-1.45
-1.45
-1.44
-1.42
-1.38
-1.32
-1.26
-1.23
-1.22
-1.21
-1.17
-1.12
-1.07
-1.07
-1.14
-1.22
-1.26
-1.20
-1.04
-0.87
-0.77
-0.80
-0.95
-1.15
-1.32
-1.39
-1.39
-1.36
-1.38
-1.49
-1.66
-1.83
-1.94
-2.00
-2.04
-2.08
-2.08
-1.97
-1.68
-1.22
-0.69
-0.22
0.08
0.20
0.21
0.25
0.40
0.66
0.95
1.18
1.30
1.28
1.14
0.88
0.54
0.14
-0.26
-0.57
-0.72
-0.69
-0.49
-0.18
0.19
0.58
0.97
1.34
1.69
2.02
2.37
2.79
3.34
4.00
4.65
5.11
5.21
4.92
4.38
3.83
3.49
3.46
3.65
3.86
3.92
3.80
3.59
3.45
3.44
3.52
3.53
3.37
3.00
2.53
2.08
1.75
1.52
1.31
1.04
0.67
0.26
-0.10
-0.34
-0.48
-0.58
-0.70
-0.84
-0.94
-0.94
-0.80
-0.56
-0.31
-0.17
-0.21
-0.47
-0.92
-1.47
-2.01
-2.42
-2.59
-2.53
-2.30
-2.07
-2.00
-2.12
-2.37
-2.60
-2.67
-2.52
-2.21
-1.87
-1.61
-1.49
-1.49
-1.53
-1.56
-1.52
-1.40
-1.20
-0.92
-0.58
-0.21
0.17
0.54
0.89
1.23
1.51
1.67
1.66
1.47
1.15
0.81
0.55
0.41
0.40
0.44
0.48
0.50
0.54
0.65
0.84
1.06
1.23
1.28
1.24
1.19
1.19
1.32
1.57
1.90
2.25
2.57
2.84
3.04
3.17
3.26
3.37
3.55
3.84
4.23
4.61
4.87
4.93
4.78
4.50
4.24
4.07
4.00
3.92
3.65
3.02
1.92
0.41
-1.34
-3.09
-4.63
-5.85
-6.77
-7.53
-8.25
-8.98
-9.66
-10.12
-10.24
-9.99
-9.44
-8.72
-7.93
-7.12
-6.28
-5.40
-4.49
-3.62
-2.87
-2.28
-1.84
-1.51
-1.30
-1.21
-1.27
-1.46
-1.66
-1.65
-1.26
-0.40
0.79
2.00
2.86
3.14
2.86
2.37
2.12
2.53
3.67
5.29
6.79
7.56
7.17
5.61
3.25
0.69
-1.41
-2.61
-2.77
-2.17
-1.47
-1.69
-3.93
-9.02
-17.07
-27.18
-37.53
-45.90
-50.33
-49.81
-44.54
-35.71
-24.99
-13.96
-3.75
5.00
12.02
17.18
20.46
21.96
21.97
20.94
19.43
17.91
16.66
15.69
14.80
13.72
12.29
10.56
8.77
7.24
6.23
5.75
5.61
5.52
5.19
4.54
3.67
2.80
2.20
2.01
2.24
2.74
3.30
3.73
3.91
3.86
3.68
3.52
3.46
3.48
3.49
3.36
3.04
2.53
1.93
1.33
0.82
0.41
0.12
-0.03
-0.04
0.10
0.34
0.56
0.65
0.53
0.21
-0.19
-0.54
-0.69
-0.60
-0.30
0.12
0.56
0.96
1.28
1.52
1.68
1.77
1.83
1.90
2.03
2.21
2.44
2.66
2.79
2.79
2.65
2.39
2.08
1.80
1.62
1.62
1.77
2.02
2.22
2.26
2.07
1.72
1.34
1.11
1.12
1.37
1.77
2.20
2.58
2.92
3.24
3.59
4.00
4.45
4.98
5.59
6.34
7.24
8.25
9.32
10.37
11.35
12.28
13.20
14.16
15.15
16.12
17.01
17.76
18.37
18.87
19.33
19.76
20.09
20.24
20.11
19.71
19.15
18.57
17.89
16.96
15.58
13.50
10.53
6.62
1.95
-3.18
-8.36
-13.19
-17.38
-20.70
-23.01
-24.29
-24.68
-24.44
-23.93
-23.49
-23.28
-23.40
-23.84
-24.50
-25.26
-25.91
-26.22
-25.97
-25.06
-23.51
-21.48
-19.22
-16.95
-14.83
-12.90
-11.15
-9.52
-7.98
-6.51
-5.14
-3.91
-2.83
-1.92
-1.18
-0.55
0.03
0.67
1.42
2.26
3.09
3.81
4.30
4.54
4.57
4.53
4.56
4.74
5.07
5.48
5.85
6.10
6.23
6.28
6.37
6.56
6.88
7.25
7.58
7.74
7.68
7.42
7.00
6.48
5.86
5.12
4.18
2.97
1.53
-0.05
-1.58
-2.89
-3.90
-4.64
-5.20
-5.71
-6.18
-6.61
-6.91
-7.10
-7.24
-7.46
-7.81
-8.26
-8.67
-8.86
-8.72
-8.25
-7.53
-6.73
-5.96
-5.33
-4.86
-4.53
-4.26
-3.93
-3.45
-2.79
-1.97
-1.07
-0.19
0.63
1.36
2.01
2.58
3.10
3.56
4.00
4.45
4.92
5.40
5.84
6.18
6.35
6.36
6.26
6.13
6.04
6.04
6.11
6.20
6.28
6.33
6.40
6.56
6.89
7.45
8.21
9.06
9.83
10.31
10.33
9.82
8.89
7.88
7.23
7.31
8.18
9.48
10.51
10.46
8.81
5.53
1.18
-3.46
-7.62
-10.94
-13.47
-15.60
-17.74
-20.09
-22.49
-24.51
-25.75
-26.04
-25.55
-24.73
-24.14
-24.19
-25.01
-26.37
-27.77
-28.76
-29.04
-28.41
-26.80
-24.32
-21.50
-19.49
-19.93
-24.29
-33.48
-46.87
-61.77
-73.91
-78.88
-73.79
-58.32
-34.99
-6.91
23.08
52.72
80.01
102.78
118.77
126.27
124.53
114.74
99.74
82.87
66.77
52.86
41.31
31.61
23.23
15.89
9.68
4.84
1.40
-0.83
-2.15
-2.94
-3.49
-4.02
-4.64
-5.35
-6.06
-6.72
-7.39
-8.14
-8.99
-9.90
-10.74
-11.40
-11.78
-11.88
-11.83
-11.84
-12.07
-12.53
-13.13
-13.66
-13.98
-14.00
-13.74
-13.27
-12.66
-11.96
-11.19
-10.34
-9.46
-8.59
-7.78
-7.01
-6.21
-5.32
-4.31
-3.24
-2.25
-1.47
-1.00
-0.85
-0.93
-1.10
-1.21
-1.16
-0.92
-0.56
-0.18
0.12
0.29
0.37
0.42
0.53
0.71
0.93
1.11
1.24
1.31
1.39
1.55
1.77
2.00
2.11
2.01
1.69
1.24
0.82
0.57
0.51
0.61
0.73
0.80
0.80
0.81
0.90
1.11
1.35
1.49
1.42
1.12
0.66
0.17
-0.24
-0.53
-0.72
-0.84
-0.93
-0.99
-0.98
-0.92
-0.82
-0.71
-0.63
-0.59
-0.59
-0.59
-0.57
-0.49
-0.40
-0.35
-0.44
-0.71
-1.18
-1.77
-2.35
-2.80
-3.05
-3.06
-2.87
-2.55
-2.19
-1.83
-1.54
-1.32
-1.21
-1.24
-1.45
-1.80
-2.25
-2.66
-2.91
-2.92
-2.70
-2.35
-2.00
-1.74
-1.56
-1.38
-1.12
-0.75
-0.34
-0.02
0.15
0.14
0.06
0.03
0.16
0.46
0.85
1.21
1.40
1.35
1.12
0.81
0.54
0.42
0.45
0.61
0.84
1.14
1.49
1.90
2.33
2.73
3.08
3.39
3.70
4.06
4.46
4.84
5.16
5.38
5.52
5.62
5.70
5.69
5.54
5.21
4.73
4.24
3.85
3.63
3.56
3.53
3.41
3.14
2.72
2.22
1.73
1.34
1.07
0.91
0.83
0.76
0.70
0.64
0.62
0.65
0.67
0.63
0.43
0.04
-0.50
-1.06
-1.52
-1.79
-1.87
-1.82
-1.77
-1.83
-2.04
-2.35
-2.70
-2.99
-3.17
-3.23
-3.18
-3.02
-2.73
-2.30
-1.78
-1.23
-0.81
-0.61
-0.64
-0.80
-0.94
-0.89
-0.63
-0.21
0.20
0.47
0.54
0.45
0.27
0.12
0.03
0.00
-0.01
-0.02
-0.05
-0.04
0.01
0.10
0.17
0.15
-0.01
-0.31
-0.64
-0.87
-0.86
-0.57
-0.08
0.44
0.79
0.85
0.64
0.29
-0.03
-0.18
-0.10
0.17
0.50
0.76
0.87
0.80
0.59
0.35
0.15
0.03
-0.03
-0.05
-0.08
-0.10
-0.07
0.04
0.23
0.44
0.59
0.62
0.54
0.39
0.24
0.14
0.09
0.06
0.01
-0.09
-0.25
-0.45
-0.62
-0.70
-0.65
-0.50
-0.33
-0.24
-0.33
-0.60
-0.95
-1.24
-1.38
-1.30
-1.06
-0.75
-0.46
-0.25
-0.15
-0.14
-0.20
-0.29
-0.34
-0.27
-0.08
0.21
0.52
0.81
1.05
1.27
1.50
1.73
1.87
1.83
1.58
1.17
0.79
0.61
0.71
1.01
1.32
1.45
1.30
0.92
0.51
0.23
0.18
0.29
0.44
0.50
0.43
0.30
0.22
0.28
0.49
0.77
0.98
1.01
0.87
0.63
0.42
0.32
0.32
0.35
0.29
0.08
-0.28
-0.70
-1.08
-1.39
-1.63
-1.86
-2.09
-2.30
-2.42
-2.41
-2.29
-2.14
-2.04
-2.02
-2.07
-2.11
-2.07
-1.89
-1.58
-1.16
-0.67
-0.12
0.43
0.89
1.15
1.17
0.95
0.62
0.33
0.20
0.26
0.47
0.72
0.93
1.08
1.16
1.21
1.22
1.17
1.07
0.91
0.69
0.43
0.16
-0.07
-0.25
-0.34
-0.32
-0.24
-0.15
-0.10
-0.10
-0.15
-0.19
-0.17
-0.04
0.18
0.48
0.76
0.92
0.88
0.59
0.13
-0.38
-0.76
-0.95
-0.94
-0.87
-0.83
-0.87
-0.93
-0.92
-0.80
-0.59
-0.39
-0.24
-0.14
-0.02
0.18
0.41
0.54
0.43
0.05
-0.49
-0.99
-1.23
-1.14
-0.80
-0.37
-0.04
0.08
-0.01
-0.24
-0.51
-0.72
-0.81
-0.80
-0.73
-0.64
-0.59
-0.56
-0.53
-0.46
-0.35
-0.24
-0.21
-0.30
-0.50
-0.74
-0.94
-1.05
-1.06
-1.02
-0.97
-0.91
-0.84
-0.72
-0.56
-0.40
-0.28
-0.24
-0.25
-0.30
-0.37
-0.48
-0.70
-1.05
-1.54
-2.09
-2.62
-3.02
-3.28
-3.45
-3.65
-3.96
-4.44
-5.03
-5.65
-6.20
-6.65
-7.04
-7.42
-7.89
-8.47
-9.16
-9.92
-10.73
-11.52
-12.21
-12.65
-12.72
-12.36
-11.65
-10.83
-10.18
-9.90
-9.99
-10.29
-10.46
-10.17
-9.17
-7.34
-4.63
-1.16
2.87
7.14
11.24
14.76
17.40
19.10
19.95
20.15
19.91
19.32
18.44
17.30
15.95
14.50
13.08
11.82
10.77
9.90
9.12
8.33
7.48
6.63
5.90
5.41
5.22
5.28
5.40
5.40
5.14
4.62
3.96
3.33
2.86
2.58
2.42
2.31
2.17
2.03
1.96
2.01
2.23
2.54
2.84
3.02
3.04
2.93
2.80
2.75
2.88
3.19
3.67
4.29
5.00
5.73
6.41
6.98
7.42
7.75
8.06
8.44
8.88
9.35
9.72
9.94
10.00
9.95
9.89
9.80
9.55
8.91
7.61
5.57
2.88
-0.14
-3.08
-5.59
-7.46
-8.70
-9.41
-9.74
-9.76
-9.53
-9.10
-8.55
-8.03
-7.64
-7.48
-7.55
-7.88
-8.53
-9.58
-11.09
-13.01
-15.17
-17.29
-19.11
-20.40
-21.04
-20.93
-19.97
-18.15
-15.53
-12.39
-9.16
-6.30
-4.16
-2.83
-2.16
-1.82
-1.53
-1.13
-0.60
-0.03
0.50
0.99
1.53
2.23
3.13
4.21
5.38
6.52
7.54
8.43
9.22
9.92
10.53
10.98
11.16
11.02
10.56
9.87
9.10
8.37
7.77
7.27
6.80
6.27
5.63
4.85
3.98
3.06
2.12
1.17
0.21
-0.77
-1.75
-2.70
-3.56
-4.29
-4.86
-5.26
-5.52
-5.68
-5.77
-5.81
-5.78
-5.61
-5.26
-4.72
-4.07
-3.43
-2.92
-2.64
-2.57
-2.62
-2.67
-2.62
-2.47
-2.25
-2.02
-1.77
-1.51
-1.20
-0.84
-0.49
-0.20
-0.04
0.02
0.04
0.14
0.39
0.76
1.16
1.46
1.57
1.51
1.41
1.37
1.45
1.56
1.54
1.26
0.68
-0.08
-0.89
-1.60
-2.15
-2.57
-2.85
-2.96
-2.85
-2.48
-1.93
-1.36
-0.93
-0.74
-0.79
-0.94
-1.05
-1.04
-0.92
-0.75
-0.58
-0.40
-0.14
0.24
0.76
1.34
1.89
2.36
2.71
3.00
3.25
3.46
3.59
3.55
3.30
2.85
2.25
1.65
1.15
0.86
0.78
0.85
0.96
1.02
1.01
0.97
0.96
1.06
1.27
1.58
1.91
2.21
2.39
2.42
2.23
1.85
1.32
0.75
0.25
-0.07
-0.21
-0.23
-0.21
-0.22
-0.31
-0.46
-0.67
-0.88
-1.05
-1.10
-0.97
-0.64
-0.18
0.32
0.72
0.98
1.08
1.09
1.05
0.96
0.76
0.39
-0.16
-0.81
-1.44
-1.91
-2.13
-2.11
-1.90
-1.60
-1.32
-1.14
-1.10
-1.19
-1.36
-1.51
-1.55
-1.43
-1.17
-0.83
-0.54
-0.38
-0.37
-0.46
-0.58
-0.66
-0.64
-0.48
-0.20
0.21
0.69
1.13
1.45
1.57
1.49
1.27
1.00
0.79
0.69
0.69
0.75
0.79
0.76
0.63
0.41
0.13
-0.18
-0.46
-0.65
-0.71
-0.62
-0.40
-0.11
0.14
0.29
0.29
0.17
0.00
-0.13
-0.15
-0.07
0.03
0.04
-0.11
-0.42
-0.81
-1.11
-1.19
-1.02
-0.65
-0.25
0.06
0.21
0.23
0.20
0.19
0.21
0.25
0.30
0.35
0.41
0.44
0.37
0.15
-0.23
-0.68
-1.04
-1.16
-0.99
-0.61
-0.16
0.24
0.54
0.81
1.10
1.41
1.62
1.59
1.24
0.62
-0.09
-0.68
-0.98
-0.96
-0.72
-0.41
-0.14
0.06
0.23
0.41
0.58
0.69
0.68
0.54
0.31
0.06
-0.13
-0.29
-0.46
-0.71
-1.06
-1.45
-1.76
-1.88
-1.75
-1.38
-0.85
-0.28
0.20
0.51
0.59
0.47
0.27
0.12
0.15
0.37
0.68
0.92
0.94
0.71
0.31
-0.10
-0.38
-0.48
-0.46
-0.41
-0.43
-0.50
-0.55
-0.48
-0.25
0.08
0.41
0.61
0.62
0.47
0.25
0.08
0.04
0.15
0.31
0.40
0.35
0.10
-0.30
-0.77
-1.20
-1.50
-1.63
-1.54
-1.23
-0.73
-0.15
0.42
0.84
1.04
1.01
0.83
0.62
0.47
0.44
0.53
0.67
0.79
0.81
0.67
0.39
0.02
-0.32
-0.52
-0.54
-0.43
-0.27
-0.20
-0.24
-0.38
-0.51
-0.55
-0.48
-0.33
-0.20
-0.14
-0.19
-0.29
-0.41
-0.51
-0.59
-0.69
-0.82
-0.99
-1.14
-1.21
-1.16
-0.96
-0.61
-0.16
0.35
0.87
1.37
1.79
2.07
2.14
1.94
1.50
0.90
0.29
-0.16
-0.36
-0.27
0.03
0.44
0.85
1.15
1.32
1.34
1.19
0.89
0.46
-0.08
-0.65
-1.10
-1.35
-1.31
-1.01
-0.60
-0.27
-0.19
-0.43
-0.91
-1.45
-1.86
-1.97
-1.74
-1.20
-0.50
0.20
0.74
1.02
1.00
0.71
0.24
-0.29
-0.76
-1.11
-1.28
-1.26
-1.05
-0.69
-0.25
0.18
0.52
0.73
0.82
0.83
0.78
0.68
0.52
0.32
0.13
0.01
-0.01
0.06
0.13
0.16
0.10
0.00
-0.10
-0.16
-0.20
-0.23
-0.29
-0.36
-0.41
-0.38
-0.25
-0.04
0.19
0.41
0.59
0.74
0.88
1.01
1.11
1.15
1.07
0.86
0.52
0.12
-0.27
-0.56
-0.67
-0.58
-0.30
0.08
0.48
0.78
0.90
0.78
0.48
0.10
-0.23
-0.38
-0.33
-0.12
0.11
0.27
0.29
0.19
0.02
-0.17
-0.36
-0.58
-0.83
-1.09
-1.30
-1.43
-1.44
-1.35
-1.20
-1.02
-0.84
-0.64
-0.41
-0.17
0.06
0.26
0.40
0.50
0.57
0.62
0.66
0.67
0.67
0.68
0.70
0.76
0.85
0.95
1.05
1.16
1.27
1.36
1.40
1.34
1.18
0.90
0.55
0.19
-0.11
-0.33
-0.44
-0.44
-0.35
-0.20
-0.04
0.07
0.07
-0.04
-0.29
-0.62
-0.98
-1.32
-1.54
-1.59
-1.42
-1.08
-0.66
-0.29
-0.08
-0.05
-0.11
-0.14
-0.04
0.24
0.59
0.88
1.03
1.01
0.89
0.77
0.71
0.73
0.80
0.89
0.98
1.06
1.11
1.10
1.02
0.87
0.69
0.52
0.40
0.31
0.25
0.16
0.03
-0.13
-0.32
-0.52
-0.72
-0.88
-0.97
-0.96
-0.87
-0.75
-0.69
-0.72
-0.84
-0.97
-1.06
-1.06
-0.99
-0.91
-0.84
-0.80
-0.73
-0.61
-0.41
-0.22
-0.10
-0.11
-0.23
-0.36
-0.40
-0.26
0.02
0.36
0.66
0.85
0.97
1.09
1.24
1.39
1.44
1.31
0.98
0.54
0.13
-0.12
-0.17
-0.08
0.03
0.11
0.17
0.28
0.52
0.90
1.33
1.65
1.75
1.58
1.19
0.67
0.10
-0.43
-0.90
-1.25
-1.44
-1.44
-1.25
-0.94
-0.65
-0.50
-0.56
-0.79
-1.04
-1.19
-1.15
-0.93
-0.64
-0.38
-0.23
-0.18
-0.17
-0.15
-0.10
-0.04
0.02
0.08
0.18
0.35
0.57
0.78
0.91
0.88
0.70
0.44
0.20
0.08
0.13
0.30
0.50
0.64
0.66
0.57
0.40
0.19
-0.05
-0.31
-0.63
-0.96
-1.24
-1.37
-1.29
-1.00
-0.59
-0.17
0.13
0.28
0.33
0.34
0.40
0.50
0.60
0.60
0.50
0.32
0.17
0.18
0.37
0.67
0.92
0.96
0.75
0.38
0.02
-0.15
-0.07
0.18
0.42
0.50
0.35
0.02
-0.35
-0.63
-0.75
-0.70
-0.54
-0.30
-0.08
0.08
0.09
-0.05
-0.31
-0.59
-0.81
-0.90
-0.88
-0.78
-0.66
-0.52
-0.35
-0.14
0.09
0.32
0.50
0.66
0.82
0.97
1.07
1.05
0.84
0.47
0.01
-0.44
-0.79
-1.01
-1.11
-1.09
-0.99
-0.82
-0.66
-0.54
-0.48
-0.44
-0.36
-0.22
-0.06
0.06
0.05
-0.05
-0.12
-0.05
0.22
0.62
0.93
0.97
0.64
0.03
-0.65
-1.14
-1.31
-1.15
-0.80
-0.40
-0.05
0.21
0.42
0.62
0.82
0.99
1.06
0.96
0.67
0.20
-0.36
-0.89
-1.24
-1.31
-1.09
-0.64
-0.12
0.35
0.68
0.88
0.97
1.03
1.09
1.16
1.24
1.32
1.38
1.38
1.26
0.98
0.54
-0.04
-0.68
-1.32
-1.84
-2.19
-2.28
-2.12
-1.73
-1.19
-0.59
-0.02
0.44
0.76
0.93
0.94
0.82
0.59
0.33
0.12
-0.02
-0.10
-0.19
-0.33
-0.53
-0.71
-0.79
-0.69
-0.43
-0.09
0.23
0.43
0.48
0.40
0.25
0.08
-0.06
-0.14
-0.14
-0.03
0.19
0.48
0.78
0.97
0.97
0.76
0.41
0.06
-0.16
-0.19
-0.04
0.22
0.48
0.70
0.87
0.98
1.03
1.02
0.93
0.79
0.67
0.62
0.66
0.76
0.84
0.86
0.79
0.69
0.61
0.59
0.63
0.65
0.58
0.41
0.14
-0.15
-0.35
-0.40
-0.30
-0.10
0.07
0.10
-0.07
-0.39
-0.72
-0.92
-0.91
-0.71
-0.42
-0.19
-0.11
-0.16
-0.28
-0.35
-0.29
-0.11
0.11
0.29
0.40
0.44
0.46
0.48
0.53
0.58
0.60
0.57
0.48
0.30
-0.00
-0.47
-1.06
-1.70
-2.21
-2.46
-2.36
-1.94
-1.34
-0.71
-0.17
0.23
0.50
0.68
0.80
0.82
0.69
0.35
-0.16
-0.78
-1.36
-1.78
-1.95
-1.85
-1.51
-0.99
-0.41
0.15
0.62
0.97
1.18
1.23
1.12
0.87
0.58
0.35
0.27
0.34
0.49
0.57
0.44
0.10
-0.34
-0.69
-0.80
-0.61
-0.22
0.23
0.60
0.85
0.97
1.00
0.97
0.83
0.54
0.09
-0.46
-1.00
-1.38
-1.49
-1.32
-0.95
-0.53
-0.19
-0.01
0.04
0.02
0.04
0.16
0.35
0.56
0.71
0.74
0.66
0.50
0.32
0.12
-0.09
-0.31
-0.54
-0.71
-0.78
-0.68
-0.41
-0.02
0.36
0.61
0.68
0.57
0.35
0.11
-0.11
-0.31
-0.51
-0.72
-0.89
-0.95
-0.86
-0.63
-0.36
-0.15
-0.09
-0.13
-0.18
-0.12
0.08
0.37
0.63
0.72
0.56
0.20
-0.29
-0.76
-1.11
-1.27
-1.25
-1.11
-0.95
-0.83
-0.79
-0.82
-0.88
-0.92
-0.94
-0.94
-0.96
-1.03
-1.13
-1.25
-1.37
-1.46
-1.53
-1.64
-1.83
-2.13
-2.51
-2.91
-3.26
-3.50
-3.64
-3.70
-3.67
-3.49
-3.05
-2.27
-1.17
0.04
1.08
1.69
1.76
1.42
0.91
0.53
0.46
0.74
1.30
2.04
2.88
3.75
4.59
5.35
5.96
6.44
6.83
7.25
7.79
8.52
9.40
10.35
11.20
11.80
12.02
11.80
11.14
10.14
8.90
7.57
6.29
5.20
4.41
4.02
4.06
4.42
4.92
5.27
5.21
4.60
3.44
1.87
0.11
-1.62
-3.16
-4.45
-5.44
-6.14
-6.53
-6.58
-6.32
-5.74
-4.91
-3.93
-2.92
-2.01
-1.30
-0.81
-0.49
-0.23
0.12
0.64
1.30
2.01
2.60
2.91
2.86
2.48
1.88
1.20
0.54
-0.08
-0.73
-1.52
-2.54
-3.85
-5.42
-7.19
-9.00
-10.74
-12.32
-13.67
-14.81
-15.75
-16.52
-17.13
-17.59
-17.93
-18.17
-18.37
-18.54
-18.67
-18.69
-18.49
-17.97
-17.09
-15.88
-14.42
-12.80
-11.05
-9.17
-7.16
-5.00
-2.70
-0.28
2.17
4.57
6.80
8.75
10.33
11.51
12.34
12.91
13.27
13.43
13.32
12.89
12.13
11.14
10.08
9.10
8.25
7.48
6.73
5.93
5.13
4.40
3.81
3.39
3.09
2.83
2.55
2.28
2.06
1.94
1.92
1.93
1.88
1.73
1.49
1.23
1.03
0.97
1.04
1.19
1.31
1.33
1.25
1.07
0.86
0.64
0.43
0.22
0.01
-0.16
-0.25
-0.20
-0.02
0.27
0.60
0.90
1.13
1.27
1.30
1.17
0.83
0.31
-0.32
-0.90
-1.30
-1.45
-1.38
-1.19
-1.02
-0.90
-0.81
-0.66
-0.39
-0.01
0.42
0.80
1.05
1.19
1.23
1.21
1.15
1.06
0.92
0.73
0.51
0.32
0.19
0.12
0.10
0.13
0.20
0.31
0.43
0.54
0.59
0.56
0.42
0.19
-0.10
-0.39
-0.66
-0.85
-0.96
-0.96
-0.87
-0.73
-0.59
-0.49
-0.43
-0.40
-0.37
-0.34
-0.33
-0.37
-0.47
-0.63
-0.79
-0.88
-0.83
-0.64
-0.30
0.15
0.68
1.28
1.89
2.45
2.86
3.03
2.88
2.44
1.85
1.27
0.91
0.84
1.03
1.32
1.50
1.45
1.17
0.79
0.48
0.31
0.29
0.32
0.29
0.16
-0.05
-0.29
-0.51
-0.72
-0.95
-1.19
-1.38
-1.45
-1.35
-1.07
-0.65
-0.16
0.33
0.73
0.97
0.98
0.74
0.32
-0.10
-0.32
-0.20
0.27
0.92
1.54
1.93
2.01
1.83
1.50
1.14
0.77
0.42
0.05
-0.31
-0.62
-0.83
-0.94
-0.99
-1.05
-1.16
-1.30
-1.39
-1.32
-1.06
-0.64
-0.19
0.16
0.32
0.28
0.08
-0.21
-0.54
-0.89
-1.24
-1.53
-1.71
-1.69
-1.44
-1.01
-0.50
-0.03
0.32
0.49
0.50
0.40
0.23
0.07
-0.02
0.00
0.15
0.39
0.59
0.63
0.44
0.04
-0.40
-0.68
-0.63
-0.23
0.44
1.19
1.80
2.16
2.23
2.04
1.65
1.19
0.72
0.36
0.16
0.11
0.14
0.16
0.11
-0.04
-0.27
-0.51
-0.72
-0.86
-0.93
-0.96
-0.97
-0.98
-0.99
-1.00
-0.99
-0.93
-0.81
-0.61
-0.37
-0.11
0.10
0.22
0.25
0.21
0.16
0.19
0.32
0.53
0.77
0.97
1.07
1.03
0.88
0.66
0.43
0.23
0.12
0.10
0.16
0.29
0.44
0.58
0.69
0.75
0.74
0.66
0.55
0.42
0.29
0.17
0.01
-0.20
-0.51
-0.87
-1.18
-1.35
-1.29
-1.01
-0.62
-0.24
0.02
0.12
0.12
0.07
0.05
0.05
0.07
0.05
-0.00
-0.05
-0.08
-0.07
-0.06
-0.05
-0.05
-0.01
0.14
0.41
0.75
1.09
1.31
1.35
1.22
0.97
0.66
0.36
0.10
-0.10
-0.23
-0.29
-0.30
-0.30
-0.30
-0.34
-0.41
-0.55
-0.75
-1.03
-1.35
-1.68
-1.90
-1.93
-1.72
-1.33
-0.88
-0.50
-0.23
-0.03
0.20
0.53
0.93
1.29
1.46
1.39
1.13
0.83
0.61
0.48
0.33
0.02
-0.50
-1.11
-1.58
-1.71
-1.42
-0.87
-0.30
0.05
0.09
-0.10
-0.33
-0.40
-0.21
0.22
0.77
1.28
1.62
1.75
1.72
1.60
1.48
1.40
1.31
1.17
0.94
0.61
0.27
-0.02
-0.20
-0.28
-0.30
-0.30
-0.31
-0.31
-0.27
-0.17
-0.00
0.20
0.37
0.45
0.37
0.13
-0.23
-0.62
-0.93
-1.05
-0.95
-0.69
-0.38
-0.09
0.13
0.29
0.42
0.54
0.62
0.61
0.52
0.39
0.29
0.28
0.34
0.39
0.33
0.12
-0.20
-0.54
-0.81
-0.94
-0.95
-0.90
-0.81
-0.70
-0.54
-0.32
-0.06
0.16
0.24
0.13
-0.15
-0.52
-0.85
-1.02
-0.94
-0.61
-0.09
0.48
0.95
1.17
1.09
0.77
0.38
0.11
0.07
0.27
0.59
0.88
1.02
1.02
0.94
0.85
0.76
0.61
0.31
-0.11
-0.56
-0.86
-0.90
-0.72
-0.46
-0.32
-0.42
-0.72
-1.06
-1.26
-1.21
-0.92
-0.52
-0.13
0.12
0.17
0.02
-0.27
-0.61
-0.90
-1.03
-0.91
-0.55
-0.04
0.49
0.86
0.98
0.81
0.47
0.09
-0.17
-0.24
-0.16
-0.03
0.04
0.01
-0.06
-0.07
0.05
0.25
0.42
0.46
0.31
0.04
-0.28
-0.54
-0.74
-0.88
-0.99
-1.03
-0.96
-0.78
-0.48
-0.17
0.08
0.22
0.23
0.15
0.06
-0.01
-0.01
0.06
0.14
0.17
0.09
-0.12
-0.38
-0.57
-0.58
-0.40
-0.10
0.18
0.31
0.29
0.20
0.20
0.37
0.69
1.05
1.30
1.34
1.15
0.80
0.40
0.07
-0.09
-0.04
0.18
0.48
0.75
0.88
0.87
0.78
0.72
0.75
0.89
1.06
1.14
1.05
0.78
0.39
0.00
-0.25
-0.27
-0.05
0.37
0.91
1.48
2.00
2.47
2.91
3.36
3.83
4.31
4.75
5.14
5.47
5.78
6.09
6.37
6.60
6.77
6.89
7.04
7.29
7.65
8.04
8.27
8.15
7.60
6.64
5.46
4.24
3.06
1.91
0.69
-0.63
-2.00
-3.25
-4.19
-4.73
-4.90
-4.86
-4.83
-4.92
-5.18
-5.52
-5.87
-6.16
-6.39
-6.60
-6.86
-7.20
-7.59
-7.95
-8.19
-8.25
-8.12
-7.81
-7.34
-6.72
-5.93
-5.02
-4.08
-3.27
-2.71
-2.47
-2.51
-2.72
-2.95
-3.11
-3.20
-3.27
-3.39
-3.59
-3.83
-3.99
-3.95
-3.63
-3.01
-2.19
-1.30
-0.51
0.08
0.46
0.68
0.80
0.86
0.88
0.83
0.77
0.77
0.93
1.31
1.88
2.51
3.02
3.27
3.20
2.85
2.35
1.87
1.56
1.51
1.79
2.35
3.09
3.82
4.36
4.59
4.46
4.05
3.48
2.87
2.31
1.82
1.38
0.98
0.61
0.28
0.00
-0.24
-0.47
-0.74
-1.09
-1.58
-2.20
-2.92
-3.67
-4.35
-4.88
-5.20
-5.33
-5.32
-5.26
-5.19
-5.12
-5.02
-4.85
-4.62
-4.37
-4.18
-4.08
-4.05
-4.06
-4.07
-4.02
-3.91
-3.71
-3.48
-3.27
-3.16
-3.25
-3.60
-4.18
-4.90
-5.58
-6.00
-6.03
-5.58
-4.70
-3.53
-2.27
-1.14
-0.33
0.06
-0.00
-0.47
-1.28
-2.29
-3.34
-4.20
-4.56
-4.18
-2.92
-0.87
1.75
4.60
7.36
9.82
11.89
13.51
14.60
15.07
14.80
13.76
11.98
9.65
7.02
4.42
2.14
0.38
-0.79
-1.41
-1.61
-1.54
-1.30
-0.96
-0.50
0.08
0.83
1.82
3.13
4.83
6.90
9.23
11.59
13.70
15.35
16.43
16.95
17.01
16.73
16.22
15.55
14.77
13.88
12.79
11.38
9.50
7.08
4.15
0.91
-2.32
-5.19
-7.43
-8.92
-9.72
-10.02
-10.01
-9.90
-9.80
-9.78
-9.85
-9.98
-10.10
-10.11
-9.95
-9.58
-9.03
-8.37
-7.66
-6.93
-6.14
-5.28
-4.34
-3.42
-2.65
-2.17
-2.03
-2.23
-2.68
-3.24
-3.82
-4.33
-4.72
-4.99
-5.14
-5.17
-5.11
-5.01
-4.88
-4.77
-4.68
-4.63
-4.58
-4.54
-4.45
-4.30
-4.03
-3.63
-3.08
-2.38
-1.56
-0.66
0.26
1.14
1.92
2.57
3.04
3.31
3.38
3.31
3.20
3.15
3.23
3.43
3.67
3.83
3.85
3.70
3.43
3.13
2.83
2.53
2.22
1.88
1.54
1.25
1.07
0.99
0.96
0.88
0.68
0.36
-0.05
-0.45
-0.76
-0.93
-0.95
-0.84
-0.65
-0.46
-0.30
-0.19
-0.10
-0.00
0.11
0.24
0.37
0.49
0.63
0.82
1.06
1.35
1.62
1.81
1.86
1.76
1.54
1.26
0.94
0.63
0.31
0.01
-0.26
-0.48
-0.60
-0.59
-0.42
-0.13
0.23
0.56
0.77
0.81
0.69
0.47
0.25
0.06
-0.10
-0.26
-0.43
-0.59
-0.67
-0.64
-0.53
-0.42
-0.40
-0.51
-0.69
-0.81
-0.75
-0.45
0.03
0.57
0.98
1.17
1.09
0.83
0.48
0.17
0.00
0.02
0.17
0.39
0.54
0.55
0.39
0.12
-0.19
-0.46
-0.64
-0.72
-0.69
-0.53
-0.27
0.04
0.31
0.45
0.42
0.24
0.04
-0.07
-0.04
0.12
0.32
0.45
0.47
0.36
0.21
0.05
-0.05
-0.12
-0.19
-0.28
-0.41
-0.53
-0.62
-0.69
-0.74
-0.79
-0.83
-0.83
-0.72
-0.46
-0.06
0.40
0.76
0.89
0.74
0.34
-0.16
-0.59
-0.80
-0.73
-0.45
-0.06
0.27
0.43
0.39
0.22
0.01
-0.15
-0.24
-0.32
-0.44
-0.63
-0.83
-0.90
-0.75
-0.36
0.16
0.64
0.91
0.89
0.66
0.37
0.18
0.17
0.31
0.47
0.53
0.45
0.26
0.07
-0.02
0.01
0.13
0.25
0.32
0.32
0.29
0.25
0.23
0.19
0.09
-0.07
-0.28
-0.47
-0.59
-0.61
-0.54
-0.45
-0.39
-0.38
-0.41
-0.43
-0.39
-0.29
-0.17
-0.10
-0.14
-0.27
-0.42
-0.49
-0.41
-0.21
0.04
0.25
0.35
0.31
0.16
-0.04
-0.21
-0.29
-0.25
-0.11
0.07
0.21
0.29
0.35
0.47
0.68
0.95
1.18
1.21
0.98
0.55
0.10
-0.19
-0.22
-0.04
0.21
0.38
0.35
0.17
-0.10
-0.34
-0.49
-0.55
-0.56
-0.56
-0.57
-0.58
-0.55
-0.42
-0.22
0.02
0.27
0.45
0.57
0.62
0.60
0.54
0.43
0.33
0.26
0.25
0.33
0.46
0.57
0.64
0.65
0.65
0.65
0.66
0.62
0.47
0.21
-0.08
-0.33
-0.46
-0.47
-0.43
-0.40
-0.41
-0.45
-0.48
-0.47
-0.41
-0.32
-0.20
-0.07
0.07
0.17
0.17
0.05
-0.17
-0.43
-0.63
-0.72
-0.71
-0.64
-0.56
-0.45
-0.28
-0.04
0.24
0.44
0.45
0.23
-0.14
-0.44
-0.48
-0.16
0.44
1.07
1.48
1.52
1.22
0.76
0.35
0.13
0.08
0.10
0.09
0.03
-0.05
-0.06
0.02
0.16
0.24
0.20
-0.00
-0.29
-0.57
-0.72
-0.70
-0.51
-0.22
0.07
0.26
0.28
0.14
-0.10
-0.34
-0.51
-0.59
-0.61
-0.65
-0.74
-0.84
-0.85
-0.67
-0.28
0.22
0.65
0.83
0.69
0.29
-0.17
-0.46
-0.45
-0.15
0.28
0.66
0.81
0.71
0.43
0.11
-0.09
-0.09
0.12
0.45
0.74
0.87
0.79
0.55
0.28
0.10
0.07
0.15
0.21
0.14
-0.10
-0.42
-0.68
-0.76
-0.65
-0.45
-0.29
-0.27
-0.38
-0.51
-0.57
-0.48
-0.29
-0.10
0.02
0.02
-0.04
-0.12
-0.19
-0.30
-0.49
-0.78
-1.10
-1.31
-1.24
-0.85
-0.19
0.54
1.11
1.36
1.22
0.80
0.28
-0.19
-0.52
-0.69
-0.75
-0.76
-0.73
-0.64
-0.45
-0.14
0.24
0.63
0.91
1.03
1.01
0.91
0.81
0.76
0.77
0.78
0.75
0.65
0.52
0.40
0.34
0.34
0.38
0.41
0.40
0.32
0.21
0.07
-0.06
-0.15
-0.18
-0.17
-0.15
-0.19
-0.32
-0.54
-0.80
-1.01
-1.12
-1.08
-0.93
-0.73
-0.53
-0.38
-0.27
-0.21
-0.19
-0.22
-0.29
-0.36
-0.43
-0.48
-0.50
-0.52
-0.56
-0.58
-0.54
-0.39
-0.13
0.23
0.62
0.95
1.16
1.22
1.13
0.94
0.69
0.47
0.32
0.28
0.34
0.48
0.64
0.78
0.87
0.92
0.94
0.89
0.73
0.43
-0.03
-0.56
-1.02
-1.25
-1.19
-0.87
-0.44
-0.09
0.02
-0.13
-0.43
-0.72
-0.85
-0.75
-0.47
-0.09
0.25
0.50
0.65
0.70
0.70
0.66
0.56
0.37
0.08
-0.26
-0.58
-0.80
-0.84
-0.71
-0.45
-0.16
0.06
0.17
0.15
0.07
-0.00
-0.02
0.06
0.18
0.30
0.35
0.31
0.20
0.08
-0.03
-0.12
-0.19
-0.27
-0.36
-0.43
-0.48
-0.50
-0.50
-0.48
-0.43
-0.36
-0.27
-0.18
-0.14
-0.12
-0.06
0.10
0.40
0.76
1.03
1.05
0.75
0.22
-0.35
-0.73
-0.79
-0.55
-0.15
0.26
0.58
0.75
0.79
0.69
0.44
0.05
-0.42
-0.85
-1.11
-1.10
-0.84
-0.44
-0.08
0.12
0.15
0.07
-0.06
-0.14
-0.16
-0.15
-0.14
-0.16
-0.21
-0.28
-0.34
-0.39
-0.43
-0.47
-0.50
-0.50
-0.45
-0.32
-0.12
0.11
0.32
0.43
0.36
0.11
-0.29
-0.71
-1.00
-1.05
-0.83
-0.44
-0.05
0.17
0.17
0.00
-0.20
-0.30
-0.25
-0.09
0.06
0.16
0.18
0.15
0.13
0.09
0.01
-0.13
-0.32
-0.48
-0.54
-0.46
-0.26
0.02
0.30
0.51
0.61
0.56
0.37
0.08
-0.26
-0.53
-0.63
-0.47
-0.07
0.53
1.21
1.84
2.27
2.42
2.24
1.74
1.01
0.20
-0.50
-0.93
-1.03
-0.88
-0.63
-0.43
-0.36
-0.40
-0.43
-0.35
-0.13
0.17
0.44
0.61
0.64
0.59
0.51
0.46
0.45
0.47
0.48
0.42
0.26
-0.05
-0.48
-0.94
-1.32
-1.51
-1.48
-1.28
-1.01
-0.76
-0.52
-0.27
0.01
0.30
0.52
0.59
0.52
0.41
0.38
0.50
0.74
0.97
1.04
0.90
0.61
0.28
0.01
-0.14
-0.19
-0.18
-0.11
0.02
0.21
0.44
0.62
0.69
0.60
0.39
0.14
-0.07
-0.24
-0.38
-0.55
-0.74
-0.88
-0.89
-0.70
-0.34
0.05
0.33
0.40
0.26
0.01
-0.23
-0.36
-0.36
-0.25
-0.05
0.22
0.58
0.98
1.35
1.57
1.52
1.17
0.60
-0.05
-0.60
-0.95
-1.08
-1.05
-0.93
-0.77
-0.58
-0.34
-0.05
0.27
0.56
0.75
0.80
0.72
0.53
0.26
-0.02
-0.29
-0.48
-0.57
-0.57
-0.51
-0.45
-0.44
-0.52
-0.66
-0.81
-0.91
-0.91
-0.84
-0.75
-0.68
-0.65
-0.62
-0.50
-0.28
0.00
0.23
0.28
0.11
-0.23
-0.58
-0.76
-0.67
-0.30
0.23
0.74
1.09
1.21
1.14
0.95
0.75
0.59
0.46
0.32
0.12
-0.11
-0.29
-0.33
-0.19
0.08
0.31
0.36
0.17
-0.18
-0.54
-0.73
-0.70
-0.51
-0.26
-0.06
0.09
0.22
0.37
0.54
0.71
0.81
0.83
0.81
0.77
0.73
0.69
0.63
0.57
0.58
0.70
0.92
1.15
1.26
1.16
0.86
0.49
0.21
0.16
0.37
0.77
1.22
1.58
1.76
1.73
1.55
1.27
0.96
0.66
0.44
0.37
0.54
0.98
1.61
2.30
2.89
3.27
3.46
3.58
3.76
4.08
4.46
4.78
4.90
4.79
4.51
4.19
3.92
3.76
3.70
3.71
3.75
3.74
3.60
3.25
2.68
1.92
1.08
0.26
-0.45
-1.07
-1.66
-2.30
-3.04
-3.90
-4.87
-5.94
-7.08
-8.26
-9.39
-10.40
-11.20
-11.77
-12.14
-12.36
-12.47
-12.53
-12.55
-12.54
-12.48
-12.32
-11.98
-11.39
-10.54
-9.46
-8.24
-6.98
-5.75
-4.57
-3.47
-2.44
-1.48
-0.61
0.22
1.03
1.85
2.63
3.26
3.62
3.65
3.40
3.00
2.59
2.26
2.00
1.75
1.39
0.88
0.21
-0.55
-1.32
-2.02
-2.56
-2.95
-3.19
-3.36
-3.51
-3.65
-3.75
-3.73
-3.54
-3.17
-2.70
-2.24
-1.88
-1.67
-1.56
-1.47
-1.28
-0.92
-0.37
0.35
1.19
2.10
3.02
3.88
4.68
5.41
6.11
6.84
7.62
8.43
9.19
9.85
10.35
10.71
10.95
11.16
11.37
11.59
11.81
11.95
11.97
11.80
11.44
10.93
10.34
9.70
9.01
8.26
7.40
6.43
5.38
4.26
3.08
1.82
0.48
-0.86
-2.04
-2.90
-3.31
-3.34
-3.22
-3.24
-3.59
-4.26
-5.02
-5.56
-5.66
-5.28
-4.62
-3.94
-3.46
-3.26
-3.26
-3.28
-3.17
-2.87
-2.38
-1.79
-1.23
-0.77
-0.47
-0.30
-0.18
-0.00
0.32
0.79
1.36
1.91
2.35
2.67
2.95
3.29
3.80
4.46
5.20
5.87
6.40
6.85
7.36
8.13
9.29
10.82
12.59
14.32
15.80
16.86
17.46
17.71
17.79
17.90
18.18
18.64
19.17
19.52
19.39
18.57
16.94
14.55
11.53
8.06
4.33
0.53
-3.15
-6.52
-9.44
-11.90
-13.96
-15.74
-17.34
-18.74
-19.89
-20.69
-21.09
-21.12
-20.87
-20.43
-19.89
-19.26
-18.49
-17.55
-16.44
-15.20
-13.94
-12.75
-11.70
-10.77
-9.93
-9.09
-8.22
-7.32
-6.42
-5.55
-4.72
-3.91
-3.15
-2.46
-1.90
-1.52
-1.30
-1.17
-1.04
-0.82
-0.48
-0.06
0.40
0.82
1.14
1.35
1.43
1.39
1.26
1.06
0.87
0.76
0.78
0.99
1.32
1.66
1.88
1.87
1.62
1.23
0.79
0.39
0.02
-0.37
-0.85
-1.43
-2.01
-2.49
-2.82
-3.02
-3.19
-3.44
-3.82
-4.25
-4.59
-4.69
-4.52
-4.09
-3.53
-2.91
-2.27
-1.58
-0.78
0.13
1.09
2.01
2.77
3.32
3.61
3.67
3.49
3.12
2.58
1.95
1.33
0.79
0.38
0.11
-0.05
-0.11
-0.10
-0.04
-0.01
-0.08
-0.32
-0.72
-1.23
-1.70
-2.02
-2.13
-2.05
-1.85
-1.66
-1.57
-1.62
-1.77
-1.98
-2.16
-2.22
-2.10
-1.73
-1.07
-0.05
1.33
3.02
4.93
6.90
8.77
10.45
11.86
12.99
13.83
14.34
14.43
14.01
13.02
11.45
9.37
6.93
4.31
1.70
-0.74
-2.89
-4.66
-5.98
-6.84
-7.29
-7.43
-7.38
-7.26
-7.20
-7.25
-7.42
-7.69
-8.01
-8.35
-8.65
-8.89
-9.01
-9.00
-8.88
-8.72
-8.61
-8.62
-8.74
-8.89
-8.90
-8.65
-8.08
-7.21
-6.11
-4.81
-3.25
-1.35
0.95
3.61
6.47
9.28
11.81
13.93
15.63
17.03
18.22
19.28
20.20
20.90
21.25
21.15
20.48
19.16
17.21
14.77
12.10
9.57
7.48
5.94
4.83
3.82
2.53
0.77
-1.40
-3.72
-5.85
-7.55
-8.77
-9.60
-10.15
-10.52
-10.70
-10.69
-10.47
-10.09
-9.63
-9.16
-8.74
-8.38
-8.07
-7.77
-7.42
-7.02
-6.59
-6.21
-5.94
-5.83
-5.86
-5.95
-5.97
-5.86
-5.60
-5.25
-4.91
-4.62
-4.40
-4.21
-4.00
-3.77
-3.55
-3.38
-3.24
-3.09
-2.80
-2.29
-1.53
-0.63
0.28
1.10
1.78
2.32
2.76
3.10
3.31
3.40
3.42
3.48
3.70
4.12
4.71
5.36
5.96
6.46
6.87
7.20
7.44
7.54
7.44
7.14
6.66
6.09
5.47
4.89
4.36
3.93
3.63
3.46
3.36
3.18
2.81
2.15
1.26
0.32
-0.41
-0.74
-0.64
-0.25
0.16
0.30
-0.00
-0.77
-1.87
-3.09
-4.31
-5.46
-6.55
-7.56
-8.30
-8.46
-7.63
-5.51
-2.06
2.34
7.03
11.22
14.24
15.88
16.40
16.48
17.04
18.83
22.24
27.19
33.08
38.85
43.12
44.40
41.56
34.32
23.58
11.39
0.36
-7.24
-10.26
-8.96
-4.71
0.82
6.43
11.75
17.15
23.09
29.71
36.45
42.31
46.16
47.28
45.69
42.21
38.26
35.31
34.21
34.75
35.77
35.77
33.67
29.25
23.16
16.30
9.37
2.58
-4.15
-11.00
-18.17
-25.89
-34.67
-45.15
-57.57
-71.30
-84.69
-95.55
-102.06
-103.52
-100.52
-94.41
-86.58
-77.97
-69.15
-60.54
-52.64
-45.87
-40.49
-36.30
-32.83
-29.59
-26.39
-23.44
-21.19
-19.96
-19.67
-19.82
-19.68
-18.61
-16.36
-13.15
-9.56
-6.28
-3.86
-2.49
-1.98
-1.84
-1.53
-0.71
0.68
2.46
4.37
6.21
7.90
9.48
10.97
12.32
13.39
14.05
14.32
14.42
14.62
15.09
15.76
16.37
16.62
16.37
15.75
15.03
14.38
13.71
12.71
11.12
8.88
6.37
4.22
3.07
3.28
4.78
7.19
10.00
12.78
15.22
17.09
18.20
18.39
17.72
16.53
15.34
14.75
15.03
16.04
17.26
18.09
18.15
17.47
16.44
15.56
15.17
15.33
15.86
16.48
16.98
17.28
17.38
17.38
17.42
17.63
18.15
19.08
20.46
22.24
24.21
26.06
27.40
27.92
27.57
26.63
25.60
24.87
24.44
23.82
22.30
19.55
16.00
12.95
12.12
14.93
21.95
32.60
45.57
59.31
72.62
84.87
95.79
105.18
112.42
116.40
115.45
107.75
91.90
67.50
35.56
-1.52
-40.56
-78.48
-113.11
-143.70
-171.03
-197.09
-224.35
-254.78
-288.67
-323.77
-355.31
-377.24
-384.46
-375.07
-351.30
-318.45
-282.42
-247.01
-212.68
-177.26
-137.91
-93.08
-43.48
8.35
59.11
105.67
145.48
176.55
197.49
207.82
208.18
200.48
187.43
171.89
156.21
142.06
130.43
121.64
115.42
110.90
106.81
101.97
95.73
88.25
80.37
73.21
67.58
63.65
60.89
58.31
55.00
50.47
44.82
38.68
32.84
27.89
23.95
20.69
17.52
13.90
9.57
4.66
-0.48
-5.37
-9.62
-13.00
-15.44
-17.01
-17.84
-18.11
-18.01
-17.72
-17.30
-16.75
-15.99
-14.94
-13.63
-12.17
-10.76
-9.56
-8.63
-7.92
-7.33
-6.76
-6.18
-5.62
-5.12
-4.75
-4.54
-4.49
-4.58
-4.70
-4.70
-4.38
-3.64
-2.57
-1.48
-0.83
-0.93
-1.85
-3.26
-4.56
-5.21
-5.02
-4.25
-3.56
-3.67
-4.94
-7.23
-9.87
-11.91
-12.60
-11.76
-9.95
-8.26
-7.85
-9.42
-12.88
-17.31
-21.26
-23.34
-22.74
-19.44
-14.33
-9.17
-6.43
-8.76
-18.31
-35.33
-57.01
-77.98
-91.47
-91.99
-77.57
-50.18
-15.45
19.67
49.48
71.08
84.31
90.58
91.43
87.78
80.13
69.17
56.33
43.68
33.28
26.31
22.59
20.87
19.51
17.29
13.92
10.03
6.74
5.02
5.16
6.68
8.55
9.73
9.57
8.03
5.66
3.28
1.59
0.95
1.24
2.05
2.86
3.26
3.08
2.41
1.54
0.81
0.47
0.58
0.99
1.45
1.72
1.65
1.28
0.78
0.32
0.01
-0.21
-0.48
-0.97
-1.78
-2.89
-4.15
-5.38
-6.47
-7.45
-8.48
-9.77
-11.49
-13.73
-16.45
-19.44
-22.42
-25.03
-26.93
-27.90
-27.96
-27.41
-26.78
-26.64
-27.34
-28.87
-30.70
-31.99
-31.86
-29.70
-25.40
-19.41
-12.52
-5.71
0.14
4.37
6.64
6.95
5.67
3.49
1.31
0.04
0.35
2.48
6.18
10.80
15.49
19.53
22.42
23.98
24.29
23.60
22.27
20.66
19.10
17.79
16.83
16.17
15.69
15.26
14.79
14.27
13.70
13.09
12.45
11.74
10.92
10.04
9.16
8.39
7.78
7.31
6.90
6.43
5.82
5.08
4.29
3.57
2.99
2.58
2.29
2.03
1.73
1.35
0.89
0.38
-0.18
-0.73
-1.22
-1.56
-1.65
-1.46
-1.00
-0.40
0.20
0.59
0.69
0.48
0.07
-0.37
-0.68
-0.81
-0.77
-0.66
-0.60
-0.63
-0.74
-0.85
-0.89
-0.82
-0.65
-0.43
-0.22
-0.04
0.09
0.15
0.12
-0.01
-0.24
-0.51
-0.76
-0.92
-0.95
-0.87
-0.74
-0.66
-0.72
-0.96
-1.34
-1.74
-1.98
-1.96
-1.63
-1.08
-0.47
0.02
0.30
0.34
0.21
-0.02
-0.26
-0.48
-0.65
-0.76
-0.83
-0.86
-0.88
-0.90
-0.92
-0.92
-0.86
-0.73
-0.52
-0.25
0.03
0.27
0.43
0.48
0.42
0.29
0.17
0.13
0.22
0.39
0.57
0.63
0.54
0.32
0.07
-0.10
-0.14
-0.04
0.15
0.36
0.57
0.75
0.87
0.92
0.87
0.72
0.49
0.23
-0.04
-0.34
-0.67
-1.01
-1.31
-1.51
-1.54
-1.36
-1.01
-0.55
-0.02
0.50
0.96
1.29
1.43
1.35
1.09
0.71
0.32
-0.01
-0.22
-0.31
-0.29
-0.16
0.04
0.30
0.53
0.64
0.55
0.22
-0.25
-0.68
-0.89
-0.79
-0.44
-0.03
0.22
0.16
-0.20
-0.72
-1.19
-1.44
-1.42
-1.17
-0.78
-0.36
0.00
0.25
0.32
0.21
-0.04
-0.32
-0.50
-0.50
-0.32
-0.05
0.15
0.17
-0.03
-0.40
-0.81
-1.14
-1.28
-1.19
-0.87
-0.37
0.23
0.81
1.28
1.58
1.71
1.70
1.62
1.50
1.38
1.26
1.14
1.02
0.91
0.81
0.68
0.47
0.16
-0.24
-0.66
-0.99
-1.19
-1.25
-1.22
-1.22
-1.35
-1.68
-2.17
-2.69
-3.06
-3.14
-2.82
-2.15
-1.24
-0.29
0.55
1.14
1.42
1.42
1.21
0.90
0.62
0.43
0.36
0.36
0.35
0.31
0.23
0.18
0.22
0.37
0.59
0.79
0.90
0.83
0.58
0.20
-0.24
-0.68
-1.04
-1.32
-1.54
-1.72
-1.89
-2.04
-2.14
-2.16
-2.09
-1.96
-1.79
-1.65
-1.54
-1.50
-1.49
-1.51
-1.52
-1.54
-1.56
-1.59
-1.63
-1.68
-1.69
-1.64
-1.48
-1.23
-0.92
-0.64
-0.51
-0.58
-0.82
-1.13
-1.34
-1.35
-1.14
-0.81
-0.48
-0.26
-0.15
-0.07
0.04
0.18
0.32
0.38
0.37
0.36
0.47
0.79
1.30
1.86
2.32
2.55
2.52
2.29
1.98
1.69
1.49
1.39
1.35
1.36
1.40
1.50
1.67
1.92
2.18
2.29
2.10
1.50
0.55
-0.51
-1.32
-1.59
-1.18
-0.24
0.91
1.87
2.40
2.48
2.27
1.97
1.72
1.53
1.34
1.11
0.86
0.69
0.65
0.72
0.78
0.71
0.47
0.12
-0.18
-0.29
-0.15
0.18
0.57
0.89
1.06
1.06
0.92
0.67
0.36
0.02
-0.28
-0.51
-0.67
-0.74
-0.74
-0.68
-0.57
-0.44
-0.32
-0.25
-0.22
-0.22
-0.20
-0.14
-0.05
0.06
0.17
0.32
0.51
0.77
1.01
1.15
1.09
0.83
0.45
0.06
-0.22
-0.38
-0.51
-0.70
-1.04
-1.52
-2.05
-2.49
-2.74
-2.71
-2.40
-1.88
-1.25
-0.64
-0.13
0.23
0.45
0.59
0.71
0.87
1.07
1.26
1.36
1.35
1.22
1.05
0.90
0.78
0.71
0.66
0.63
0.66
0.78
0.99
1.27
1.51
1.64
1.66
1.61
1.53
1.42
1.25
0.97
0.59
0.17
-0.15
-0.33
-0.35
-0.28
-0.19
-0.11
-0.02
0.09
0.21
0.28
0.27
0.17
0.07
0.08
0.24
0.50
0.71
0.74
0.52
0.13
-0.26
-0.50
-0.48
-0.25
0.06
0.33
0.42
0.29
-0.06
-0.61
-1.28
-1.98
-2.54
-2.83
-2.72
-2.17
-1.32
-0.37
0.38
0.74
0.67
0.29
-0.15
-0.41
-0.38
-0.10
0.25
0.48
0.51
0.33
0.04
-0.24
-0.43
-0.54
-0.61
-0.70
-0.83
-1.00
-1.17
-1.28
-1.30
-1.23
-1.08
-0.91
-0.77
-0.71
-0.73
-0.82
-0.91
-0.93
-0.86
-0.72
-0.62
-0.65
-0.87
-1.22
-1.57
-1.77
-1.71
-1.41
-0.99
-0.61
-0.41
-0.44
-0.67
-1.08
-1.68
-2.50
-3.53
-4.66
-5.70
-6.54
-7.18
-7.83
-8.81
-10.36
-12.54
-15.18
-17.97
-20.58
-22.84
-24.67
-26.05
-26.93
-27.19
-26.74
-25.55
-23.74
-21.50
-19.14
-16.89
-14.90
-13.13
-11.37
-9.28
-6.54
-2.98
1.30
5.95
10.53
14.62
17.96
20.53
22.37
23.60
24.22
24.26
23.76
22.84
21.64
20.28
18.79
17.18
15.45
13.71
12.12
10.87
10.05
9.61
9.36
9.08
8.65
8.05
7.35
6.67
6.07
5.55
5.07
4.58
4.06
3.52
2.96
2.38
1.74
1.00
0.16
-0.73
-1.58
-2.27
-2.72
-2.92
-2.94
-2.88
-2.83
-2.79
-2.68
-2.37
-1.76
-0.82
0.33
1.52
2.57
3.35
3.85
4.11
4.22
4.20
4.07
3.79
3.38
2.92
2.54
2.39
2.52
2.88
3.33
3.66
3.71
3.43
2.88
2.20
1.57
1.12
0.85
0.71
0.60
0.43
0.20
-0.05
-0.25
-0.36
-0.42
-0.48
-0.58
-0.70
-0.76
-0.65
-0.35
0.08
0.51
0.80
0.92
0.89
0.83
0.88
1.10
1.51
2.00
2.45
2.74
2.82
2.69
2.44
2.18
2.00
1.88
1.78
1.61
1.34
0.98
0.62
0.32
0.10
-0.08
-0.29
-0.60
-0.98
-1.39
-1.72
-1.89
-1.88
-1.72
-1.50
-1.28
-1.16
-1.16
-1.27
-1.41
-1.51
-1.49
-1.35
-1.11
-0.85
-0.62
-0.42
-0.24
-0.06
0.14
0.34
0.56
0.80
1.07
1.35
1.61
1.81
1.91
1.89
1.78
1.57
1.28
0.89
0.42
-0.11
-0.66
-1.19
-1.68
-2.12
-2.51
-2.81
-2.93
-2.73
-2.12
-1.13
0.14
1.47
2.65
3.52
4.04
4.27
4.33
4.32
4.27
4.13
3.83
3.34
2.68
1.96
1.29
0.72
0.20
-0.38
-1.09
-1.88
-2.62
-3.13
-3.32
-3.24
-3.07
-2.97
-3.08
-3.38
-3.79
-4.20
-4.54
-4.76
-4.82
-4.65
-4.22
-3.50
-2.51
-1.33
-0.07
1.14
2.18
2.97
3.45
3.63
3.54
3.26
2.87
2.43
2.02
1.71
1.54
1.52
1.63
1.77
1.83
1.74
1.51
1.25
1.05
0.95
0.94
0.91
0.76
0.48
0.10
-0.28
-0.60
-0.82
-0.96
-1.00
-0.96
-0.84
-0.70
-0.63
-0.69
-0.91
-1.18
-1.34
-1.27
-0.94
-0.45
0.03
0.39
0.59
0.67
0.69
0.66
0.54
0.32
0.02
-0.25
-0.35
-0.23
0.06
0.39
0.59
0.58
0.39
0.11
-0.17
-0.40
-0.59
-0.74
-0.85
-0.87
-0.79
-0.62
-0.40
-0.20
-0.04
0.07
0.16
0.22
0.22
0.13
-0.05
-0.26
-0.43
-0.49
-0.45
-0.36
-0.31
-0.35
-0.49
-0.68
-0.88
-1.06
-1.23
-1.37
-1.47
-1.43
-1.20
-0.72
-0.07
0.59
1.07
1.22
1.04
0.67
0.29
0.09
0.10
0.25
0.41
0.47
0.40
0.24
0.07
-0.07
-0.17
-0.26
-0.38
-0.51
-0.64
-0.71
-0.70
-0.62
-0.50
-0.41
-0.35
-0.34
-0.31
-0.20
0.02
0.32
0.62
0.86
0.99
1.03
1.01
0.97
0.87
0.71
0.46
0.15
-0.14
-0.35
-0.45
-0.48
-0.52
-0.62
-0.77
-0.92
-1.00
-0.98
-0.89
-0.81
-0.78
-0.81
-0.87
-0.91
-0.86
-0.71
-0.45
-0.12
0.23
0.57
0.85
1.05
1.15
1.20
1.21
1.22
1.21
1.20
1.20
1.27
1.48
1.87
2.40
2.96
3.40
3.59
3.48
3.12
2.60
2.01
1.41
0.79
0.19
-0.37
-0.84
-1.21
-1.50
-1.76
-2.06
-2.38
-2.70
-2.96
-3.15
-3.29
-3.44
-3.62
-3.79
-3.86
-3.75
-3.43
-2.93
-2.33
-1.71
-1.13
-0.63
-0.22
0.08
0.29
0.47
0.70
1.05
1.52
2.07
2.58
2.94
3.11
3.07
2.86
2.52
2.11
1.65
1.17
0.72
0.31
-0.02
-0.24
-0.32
-0.27
-0.13
0.01
0.07
-0.00
-0.18
-0.40
-0.56
-0.65
-0.71
-0.79
-0.99
-1.31
-1.66
-1.94
-2.05
-1.96
-1.71
-1.43
-1.21
-1.12
-1.14
-1.24
-1.36
-1.47
-1.57
-1.68
-1.80
-1.91
-1.97
-1.93
-1.75
-1.43
-0.99
-0.44
0.17
0.81
1.45
2.02
2.49
2.84
3.09
3.28
3.45
3.59
3.65
3.59
3.40
3.08
2.69
2.24
1.75
1.21
0.61
-0.04
-0.66
-1.15
-1.44
-1.50
-1.34
-1.06
-0.75
-0.47
-0.29
-0.23
-0.28
-0.45
-0.71
-1.01
-1.27
-1.42
-1.40
-1.23
-1.00
-0.84
-0.86
-1.09
-1.47
-1.87
-2.16
-2.25
-2.08
-1.70
-1.19
-0.65
-0.22
0.02
0.01
-0.22
-0.58
-0.92
-1.13
-1.19
-1.14
-1.05
-1.02
-1.05
-1.11
-1.15
-1.17
-1.17
-1.19
-1.21
-1.16
-0.93
-0.44
0.33
1.26
2.22
3.08
3.78
4.38
4.94
5.51
6.04
6.44
6.59
6.46
6.10
5.62
5.16
4.82
4.61
4.52
4.49
4.49
4.58
4.81
5.23
5.77
6.27
6.54
6.43
5.94
5.25
4.61
4.27
4.30
4.63
5.08
5.49
5.80
6.06
6.37
6.76
7.16
7.43
7.43
7.06
6.39
5.50
4.49
3.38
2.12
0.69
-0.86
-2.38
-3.61
-4.40
-4.74
-4.85
-5.05
-5.67
-6.82
-8.39
-10.12
-11.70
-12.88
-13.57
-13.77
-13.54
-12.97
-12.13
-11.14
-10.11
-9.18
-8.43
-7.83
-7.28
-6.62
-5.70
-4.46
-2.99
-1.43
0.05
1.33
2.37
3.20
3.82
4.21
4.31
4.06
3.52
2.78
1.99
1.25
0.58
-0.05
-0.72
-1.45
-2.22
-2.96
-3.60
-4.11
-4.48
-4.71
-4.78
-4.68
-4.43
-4.08
-3.73
-3.43
-3.19
-2.95
-2.63
-2.18
-1.64
-1.15
-0.86
-0.91
-1.27
-1.79
-2.20
-2.28
-1.90
-1.14
-0.20
0.69
1.35
1.78
2.02
2.19
2.33
2.41
2.37
2.21
2.00
1.85
1.87
2.08
2.39
2.69
2.85
2.80
2.53
2.12
1.63
1.14
0.74
0.45
0.28
0.22
0.24
0.28
0.29
0.20
-0.06
-0.53
-1.20
-2.04
-2.94
-3.80
-4.53
-5.09
-5.50
-5.81
-6.06
-6.28
-6.45
-6.53
-6.49
-6.29
-5.92
-5.41
-4.78
-4.09
-3.38
-2.73
-2.25
-2.03
-2.06
-2.23
-2.31
-2.11
-1.55
-0.75
0.06
0.62
0.77
0.56
0.13
-0.31
-0.63
-0.79
-0.80
-0.70
-0.49
-0.19
0.09
0.18
-0.14
-1.00
-2.37
-4.00
-5.51
-6.49
-6.67
-6.00
-4.63
-2.83
-0.89
0.95
2.53
3.69
4.37
4.54
4.31
3.91
3.60
3.62
4.05
4.84
5.79
6.70
7.40
7.80
7.92
7.84
7.72
7.69
7.78
7.94
8.00
7.79
7.25
6.46
5.62
4.93
4.50
4.30
4.22
4.16
4.11
4.13
4.29
4.62
5.06
5.54
6.00
6.42
6.78
7.04
7.11
6.90
6.37
5.55
4.54
3.41
2.17
0.82
-0.65
-2.14
-3.45
-4.32
-4.58
-4.18
-3.19
-1.77
-0.07
1.78
3.62
5.32
6.71
7.70
8.28
8.56
8.66
8.73
8.82
8.92
9.00
9.05
9.09
9.19
9.37
9.67
10.17
10.91
11.91
13.15
14.48
15.66
16.41
16.47
15.77
14.49
12.96
11.31
9.70
8.05
6.04
3.52
0.11
-4.33
-9.64
-15.43
-21.10
-26.06
-29.93
-32.61
-34.14
-34.65
-34.19
-32.81
-30.59
-27.73
-24.53
-21.38
-18.68
-16.75
-15.80
-15.85
-16.70
-18.00
-19.30
-20.20
-20.42
-19.91
-18.80
-17.38
-15.98
-14.85
-14.09
-13.56
-12.92
-11.71
-9.53
-6.20
-1.88
3.01
7.88
12.16
15.50
17.73
18.91
19.14
18.60
17.49
16.06
14.58
13.31
12.37
11.71
11.15
10.48
9.58
8.48
7.32
6.32
5.61
5.20
5.00
4.88
4.70
4.39
3.92
3.30
2.58
1.84
1.19
0.71
0.44
0.34
0.32
0.24
-0.02
-0.52
-1.24
-2.08
-2.86
-3.41
-3.61
-3.46
-3.06
-2.58
-2.20
-1.97
-1.88
-1.83
-1.73
-1.56
-1.34
-1.10
-0.86
-0.60
-0.25
0.25
0.89
1.62
2.31
2.81
3.02
2.89
2.45
1.81
1.07
0.31
-0.40
-1.02
-1.52
-1.87
-2.07
-2.19
-2.31
-2.50
-2.72
-2.88
-2.87
-2.61
-2.13
-1.55
-0.99
-0.53
-0.19
0.08
0.36
0.66
0.98
1.29
1.54
1.73
1.84
1.92
1.99
2.11
2.29
2.48
2.60
2.54
2.25
1.73
1.04
0.29
-0.40
-0.93
-1.23
-1.30
-1.17
-0.89
-0.57
-0.28
-0.06
0.08
0.13
0.08
-0.08
-0.35
-0.72
-1.11
-1.44
-1.62
-1.63
-1.49
-1.26
-1.03
-0.89
-0.84
-0.85
-0.82
-0.65
-0.27
0.33
1.03
1.69
2.17
2.37
2.26
1.88
1.29
0.59
-0.08
-0.62
-0.95
-1.07
-1.02
-0.89
-0.75
-0.65
-0.61
-0.58
-0.57
-0.53
-0.47
-0.38
-0.26
-0.15
-0.12
-0.20
-0.46
-0.85
-1.30
-1.72
-2.03
-2.20
-2.30
-2.38
-2.48
-2.62
-2.75
-2.81
-2.72
-2.46
-2.02
-1.50
-0.96
-0.49
-0.10
0.26
0.71
1.32
2.11
3.00
3.81
4.37
4.57
4.44
4.11
3.81
3.68
3.75
3.89
3.89
3.59
2.94
2.06
1.15
0.40
-0.13
-0.46
-0.69
-0.87
-1.00
-1.04
-0.97
-0.84
-0.72
-0.70
-0.77
-0.91
-1.07
-1.22
-1.35
-1.47
-1.55
-1.58
-1.55
-1.48
-1.45
-1.52
-1.77
-2.17
-2.65
-3.11
-3.42
-3.49
-3.30
-2.87
-2.28
-1.59
-0.87
-0.14
0.62
1.44
2.34
3.32
4.30
5.16
5.77
6.02
5.89
5.50
5.05
4.71
4.56
4.56
4.56
4.40
3.98
3.29
2.39
1.34
0.19
-1.01
-2.20
-3.31
-4.27
-5.05
-5.59
-5.89
-5.93
-5.73
-5.36
-4.92
-4.53
-4.24
-4.02
-3.77
-3.35
-2.70
-1.84
-0.87
0.06
0.85
1.46
1.87
2.11
2.21
2.21
2.16
2.12
2.10
2.08
2.02
1.93
1.80
1.69
1.64
1.63
1.63
1.60
1.50
1.36
1.21
1.06
0.89
0.66
0.37
0.10
-0.03
0.08
0.41
0.86
1.24
1.38
1.23
0.87
0.45
0.09
-0.12
-0.18
-0.14
-0.03
0.12
0.30
0.47
0.58
0.59
0.47
0.19
-0.28
-0.90
-1.63
-2.35
-2.93
-3.26
-3.29
-3.10
-2.82
-2.59
-2.49
-2.50
-2.52
-2.45
-2.20
-1.79
-1.24
-0.60
0.10
0.87
1.67
2.42
3.03
3.39
3.46
3.26
2.90
2.47
2.02
1.52
0.91
0.16
-0.69
-1.50
-2.09
-2.37
-2.34
-2.10
-1.86
-1.75
-1.82
-1.99
-2.10
-2.00
-1.66
-1.13
-0.54
-0.01
0.41
0.74
1.02
1.28
1.51
1.66
1.69
1.59
1.38
1.10
0.82
0.61
0.48
0.39
0.28
0.06
-0.36
-0.95
-1.66
-2.33
-2.85
-3.12
-3.14
-2.98
-2.71
-2.39
-2.06
-1.77
-1.55
-1.43
-1.41
-1.42
-1.37
-1.11
-0.57
0.21
1.10
1.90
2.46
2.72
2.76
2.69
2.64
2.65
2.72
2.76
2.74
2.60
2.35
2.02
1.67
1.36
1.12
0.95
0.79
0.57
0.21
-0.30
-0.91
-1.48
-1.91
-2.13
-2.17
-2.08
-1.98
-1.92
-1.90
-1.84
-1.68
-1.35
-0.85
-0.24
0.35
0.81
1.07
1.13
1.03
0.83
0.60
0.36
0.14
-0.04
-0.15
-0.20
-0.18
-0.09
0.05
0.24
0.46
0.70
0.93
1.10
1.17
1.14
1.03
0.88
0.72
0.54
0.33
0.05
-0.30
-0.69
-1.08
-1.40
-1.57
-1.60
-1.53
-1.46
-1.52
-1.76
-2.14
-2.51
-2.67
-2.50
-2.03
-1.38
-0.77
-0.32
-0.09
0.01
0.07
0.18
0.38
0.65
0.95
1.25
1.52
1.80
2.11
2.47
2.90
3.35
3.73
3.95
3.93
3.66
3.21
2.70
2.21
1.78
1.39
0.99
0.53
-0.05
-0.72
-1.45
-2.11
-2.58
-2.74
-2.60
-2.19
-1.64
-1.06
-0.53
-0.05
0.39
0.77
1.07
1.22
1.20
1.02
0.72
0.42
0.17
0.05
0.05
0.15
0.30
0.45
0.56
0.62
0.64
0.62
0.56
0.46
0.33
0.22
0.17
0.19
0.23
0.22
0.12
-0.02
-0.11
-0.04
0.22
0.57
0.82
0.76
0.32
-0.40
-1.20
-1.80
-2.03
-1.88
-1.48
-1.03
-0.74
-0.67
-0.72
-0.73
-0.57
-0.21
0.23
0.56
0.67
0.57
0.38
0.27
0.35
0.58
0.88
1.11
1.22
1.20
1.10
0.96
0.79
0.58
0.33
0.07
-0.13
-0.20
-0.10
0.12
0.38
0.54
0.52
0.30
-0.04
-0.34
-0.51
-0.55
-0.53
-0.60
-0.79
-1.06
-1.25
-1.22
-0.95
-0.58
-0.31
-0.28
-0.50
-0.79
-0.90
-0.69
-0.19
0.42
0.91
1.15
1.15
1.07
1.06
1.22
1.51
1.82
2.00
1.98
1.78
1.44
1.04
0.60
0.14
-0.31
-0.69
-0.95
-1.09
-1.19
-1.35
-1.66
-2.08
-2.49
-2.72
-2.65
-2.33
-1.92
-1.63
-1.57
-1.72
-1.91
-1.96
-1.78
-1.42
-1.02
-0.72
-0.60
-0.58
-0.56
-0.42
-0.10
0.34
0.80
1.15
1.30
1.25
1.05
0.80
0.62
0.55
0.66
0.94
1.37
1.86
2.32
2.65
2.79
2.76
2.62
2.45
2.30
2.16
1.94
1.60
1.14
0.69
0.38
0.30
0.39
0.48
0.36
-0.07
-0.78
-1.59
-2.30
-2.79
-3.04
-3.12
-3.16
-3.23
-3.31
-3.34
-3.23
-2.97
-2.56
-2.08
-1.63
-1.26
-0.95
-0.66
-0.30
0.14
0.62
1.02
1.23
1.19
0.96
0.66
0.45
0.41
0.52
0.71
0.82
0.77
0.55
0.25
-0.02
-0.15
-0.13
0.03
0.27
0.53
0.78
1.01
1.17
1.19
1.02
0.67
0.18
-0.32
-0.70
-0.87
-0.82
-0.61
-0.38
-0.27
-0.41
-0.81
-1.37
-1.93
-2.30
-2.34
-2.03
-1.44
-0.72
0.00
0.62
1.10
1.43
1.62
1.68
1.61
1.45
1.26
1.12
1.10
1.21
1.39
1.54
1.55
1.35
0.99
0.54
0.11
-0.21
-0.43
-0.55
-0.57
-0.49
-0.31
-0.07
0.15
0.22
0.10
-0.17
-0.47
-0.62
-0.52
-0.17
0.29
0.65
0.77
0.55
0.04
-0.63
-1.25
-1.66
-1.74
-1.53
-1.12
-0.65
-0.26
-0.01
0.13
0.22
0.30
0.40
0.48
0.48
0.40
0.27
0.16
0.14
0.22
0.35
0.45
0.47
0.41
0.36
0.40
0.57
0.78
0.89
0.80
0.47
0.03
-0.32
-0.42
-0.23
0.14
0.52
0.71
0.62
0.29
-0.18
-0.67
-1.06
-1.30
-1.35
-1.24
-1.04
-0.81
-0.63
-0.55
-0.57
-0.63
-0.68
-0.67
-0.63
-0.59
-0.60
-0.66
-0.72
-0.72
-0.59
-0.32
0.03
0.39
0.67
0.82
0.86
0.85
0.85
0.92
1.03
1.11
1.08
0.91
0.63
0.35
0.18
0.19
0.33
0.49
0.54
0.42
0.14
-0.15
-0.35
-0.41
-0.39
-0.35
-0.35
-0.38
-0.39
-0.32
-0.19
-0.09
-0.10
-0.26
-0.55
-0.84
-1.03
-1.07
-0.99
-0.85
-0.70
-0.57
-0.45
-0.29
-0.08
0.18
0.48
0.74
0.90
0.91
0.77
0.56
0.40
0.42
0.63
0.96
1.24
1.29
1.06
0.65
0.25
0.05
0.08
0.26
0.39
0.35
0.10
-0.24
-0.53
-0.65
-0.59
-0.41
-0.21
-0.09
-0.08
-0.13
-0.19
-0.20
-0.15
-0.04
0.07
0.12
0.04
-0.15
-0.45
-0.76
-0.98
-1.06
-0.97
-0.76
-0.50
-0.26
-0.08
0.06
0.17
0.28
0.36
0.39
0.32
0.18
0.05
0.03
0.19
0.50
0.86
1.14
1.23
1.12
0.87
0.58
0.34
0.19
0.14
0.16
0.23
0.36
0.52
0.67
0.71
0.57
0.26
-0.17
-0.55
-0.75
-0.69
-0.39
-0.02
0.25
0.26
0.00
-0.43
-0.87
-1.15
-1.16
-0.89
-0.40
0.18
0.72
1.12
1.25
1.10
0.69
0.14
-0.38
-0.70
-0.73
-0.50
-0.12
0.28
0.56
0.67
0.65
0.52
0.37
0.21
0.09
0.00
-0.05
-0.11
-0.19
-0.29
-0.39
-0.43
-0.38
-0.21
0.03
0.25
0.38
0.36
0.20
-0.05
-0.32
-0.54
-0.68
-0.77
-0.83
-0.92
-1.05
-1.24
-1.48
-1.73
-1.96
-2.11
-2.10
-1.91
-1.50
-0.94
-0.30
0.29
0.74
1.02
1.13
1.14
1.12
1.15
1.30
1.57
1.91
2.26
2.52
2.62
2.52
2.24
1.83
1.36
0.88
0.45
0.14
0.01
0.06
0.24
0.45
0.57
0.57
0.48
0.38
0.37
0.47
0.62
0.73
0.71
0.54
0.26
-0.06
-0.38
-0.68
-0.96
-1.19
-1.36
-1.44
-1.42
-1.29
-1.11
-0.90
-0.72
-0.60
-0.56
-0.60
-0.69
-0.79
-0.84
-0.76
-0.53
-0.15
0.32
0.74
0.98
0.97
0.72
0.34
-0.03
-0.22
-0.18
0.04
0.35
0.63
0.81
0.89
0.91
0.93
0.94
0.91
0.77
0.52
0.20
-0.11
-0.34
-0.46
-0.51
-0.52
-0.54
-0.58
-0.62
-0.63
-0.58
-0.50
-0.38
-0.24
-0.09
0.05
0.15
0.15
0.02
-0.19
-0.45
-0.66
-0.80
-0.88
-0.94
-1.01
-1.12
-1.22
-1.28
-1.24
-1.09
-0.85
-0.54
-0.22
0.05
0.23
0.31
0.31
0.30
0.37
0.54
0.75
0.89
0.83
0.55
0.11
-0.31
-0.55
-0.54
-0.30
0.02
0.30
0.44
0.39
0.20
-0.04
-0.26
-0.38
-0.39
-0.32
-0.22
-0.13
-0.08
-0.04
0.05
0.22
0.46
0.72
0.93
1.01
0.96
0.84
0.71
0.65
0.66
0.69
0.66
0.49
0.17
-0.25
-0.63
-0.84
-0.79
-0.50
-0.05
0.38
0.65
0.70
0.56
0.32
0.12
0.03
0.05
0.14
0.25
0.34
0.42
0.49
0.54
0.54
0.45
0.26
0.02
-0.19
-0.31
-0.28
-0.13
0.05
0.18
0.20
0.13
0.06
0.11
0.34
0.77
1.29
1.73
1.95
1.87
1.54
1.07
0.59
0.18
-0.14
-0.43
-0.73
-1.05
-1.34
-1.55
-1.63
-1.59
-1.45
-1.27
-1.09
-0.93
-0.79
-0.70
-0.66
-0.67
-0.71
-0.71
-0.60
-0.35
0.03
0.47
0.83
1.03
1.01
0.81
0.53
0.28
0.15
0.16
0.26
0.38
0.50
0.58
0.63
0.64
0.60
0.48
0.27
0.03
-0.19
-0.30
-0.29
-0.20
-0.12
-0.12
-0.23
-0.41
-0.61
-0.78
-0.88
-0.94
-0.96
-0.94
-0.87
-0.74
-0.58
-0.41
-0.30
-0.29
-0.39
-0.57
-0.79
-0.97
-1.04
-0.95
-0.69
-0.34
0.01
0.25
0.32
0.24
0.11
0.03
0.07
0.24
0.47
0.65
0.71
0.62
0.43
0.18
-0.06
-0.27
-0.42
-0.53
-0.58
-0.57
-0.49
-0.31
-0.08
0.15
0.31
0.35
0.29
0.18
0.10
0.08
0.09
0.06
-0.09
-0.35
-0.64
-0.83
-0.87
-0.80
-0.70
-0.67
-0.72
-0.80
-0.81
-0.72
-0.58
-0.47
-0.48
-0.62
-0.78
-0.83
-0.67
-0.29
0.20
0.65
0.93
1.01
0.92
0.76
0.59
0.46
0.39
0.36
0.41
0.52
0.70
0.88
0.97
0.90
0.68
0.40
0.18
0.14
0.31
0.60
0.88
1.00
0.88
0.53
0.04
-0.47
-0.86
-1.03
-0.98
-0.74
-0.42
-0.13
0.03
0.02
-0.17
-0.50
-0.92
-1.39
-1.87
-2.27
-2.51
-2.50
-2.21
-1.72
-1.14
-0.63
-0.30
-0.14
-0.07
0.04
0.27
0.63
1.04
1.35
1.46
1.32
1.01
0.66
0.41
0.33
0.40
0.55
0.67
0.72
0.71
0.67
0.64
0.64
0.63
0.58
0.46
0.23
-0.10
-0.49
-0.90
-1.26
-1.47
-1.49
-1.29
-0.95
-0.60
-0.37
-0.29
-0.34
-0.42
-0.44
-0.36
-0.22
-0.08
0.02
0.06
0.08
0.12
0.22
0.34
0.42
0.39
0.23
-0.02
-0.25
-0.39
-0.40
-0.32
-0.22
-0.13
-0.06
0.05
0.27
0.61
1.03
1.43
1.70
1.75
1.56
1.15
0.60
0.02
-0.47
-0.72
-0.68
-0.36
0.09
0.49
0.69
0.66
0.47
0.22
0.02
-0.12
-0.21
-0.24
-0.16
0.05
0.41
0.82
1.15
1.29
1.21
0.99
0.75
0.60
0.56
0.60
0.65
0.68
0.65
0.54
0.35
0.05
-0.29
-0.59
-0.76
-0.72
-0.52
-0.28
-0.13
-0.14
-0.28
-0.45
-0.52
-0.46
-0.33
-0.25
-0.32
-0.58
-0.96
-1.36
-1.66
-1.82
-1.84
-1.77
-1.65
-1.48
-1.26
-1.01
-0.78
-0.58
-0.40
-0.20
0.08
0.41
0.72
0.89
0.90
0.79
0.69
0.69
0.81
0.95
0.98
0.85
0.61
0.41
0.33
0.38
0.47
0.47
0.36
0.19
0.08
0.12
0.28
0.43
0.44
0.25
-0.06
-0.35
-0.46
-0.33
-0.06
0.18
0.22
-0.01
-0.45
-0.93
-1.26
-1.34
-1.13
-0.75
-0.34
0.02
0.32
0.60
0.93
1.33
1.71
1.97
2.01
1.82
1.47
1.10
0.87
0.85
1.07
1.49
2.01
2.52
2.88
2.98
2.76
2.27
1.62
1.01
0.65
0.63
0.94
1.47
2.06
2.55
2.88
2.98
2.82
2.36
1.58
0.49
-0.80
-2.12
-3.27
-4.12
-4.67
-4.97
-5.15
-5.31
-5.46
-5.58
-5.59
-5.44
-5.15
-4.72
-4.19
-3.60
-2.96
-2.27
-1.56
-0.89
-0.31
0.14
0.45
0.66
0.83
1.01
1.23
1.46
1.65
1.79
1.90
2.02
2.20
2.39
2.51
2.46
2.14
1.58
0.91
0.33
-0.01
-0.04
0.16
0.42
0.62
0.69
0.68
0.68
0.74
0.81
0.78
0.56
0.15
-0.32
-0.69
-0.82
-0.70
-0.40
-0.06
0.22
0.43
0.60
0.75
0.90
1.01
1.06
1.05
1.05
1.15
1.36
1.65
1.92
2.05
1.98
1.70
1.30
0.89
0.57
0.39
0.33
0.31
0.22
-0.04
-0.47
-0.98
-1.44
-1.70
-1.72
-1.55
-1.32
-1.15
-1.13
-1.21
-1.32
-1.36
-1.32
-1.26
-1.26
-1.35
-1.53
-1.73
-1.86
-1.89
-1.86
-1.83
-1.83
-1.80
-1.66
-1.31
-0.77
-0.16
0.38
0.73
0.90
1.01
1.17
1.40
1.63
1.74
1.63
1.35
1.02
0.78
0.73
0.81
0.91
0.89
0.70
0.36
-0.04
-0.40
-0.69
-0.91
-1.12
-1.34
-1.57
-1.71
-1.71
-1.54
-1.25
-0.94
-0.71
-0.60
-0.55
-0.50
-0.36
-0.12
0.16
0.39
0.50
0.45
0.27
0.04
-0.15
-0.22
-0.13
0.11
0.47
0.89
1.32
1.70
1.96
2.03
1.87
1.49
0.97
0.45
0.09
-0.01
0.16
0.51
0.89
1.16
1.26
1.21
1.10
1.02
1.04
1.15
1.30
1.43
1.52
1.56
1.58
1.60
1.58
1.46
1.16
0.65
-0.01
-0.72
-1.35
-1.79
-2.01
-2.08
-2.10
-2.15
-2.22
-2.26
-2.14
-1.82
-1.30
-0.70
-0.16
0.19
0.31
0.22
-0.01
-0.33
-0.67
-0.95
-1.12
-1.09
-0.85
-0.42
0.05
0.44
0.62
0.55
0.31
0.03
-0.17
-0.21
-0.12
0.02
0.12
0.11
-0.02
-0.21
-0.39
-0.51
-0.55
-0.55
-0.56
-0.64
-0.80
-1.03
-1.28
-1.49
-1.62
-1.61
-1.47
-1.18
-0.78
-0.28
0.27
0.83
1.33
1.72
1.93
1.94
1.75
1.43
1.04
0.67
0.37
0.17
0.07
0.04
0.05
0.06
0.06
0.05
0.05
0.08
0.16
0.26
0.37
0.51
0.69
0.94
1.22
1.49
1.62
1.54
1.25
0.86
0.51
0.32
0.33
0.48
0.63
0.65
0.44
0.03
-0.51
-1.04
-1.44
-1.65
-1.69
-1.61
-1.46
-1.29
-1.10
-0.90
-0.73
-0.66
-0.72
-0.88
-1.03
-1.04
-0.84
-0.43
0.05
0.49
0.85
1.11
1.34
1.54
1.70
1.74
1.64
1.41
1.14
0.90
0.79
0.81
0.94
1.12
1.27
1.32
1.21
0.92
0.44
-0.17
-0.82
-1.40
-1.81
-1.98
-1.91
-1.69
-1.42
-1.22
-1.13
-1.14
-1.18
-1.20
-1.13
-0.95
-0.67
-0.31
0.08
0.45
0.74
0.93
1.06
1.18
1.35
1.55
1.72
1.75
1.57
1.18
0.65
0.11
-0.34
-0.61
-0.69
-0.58
-0.35
-0.06
0.19
0.33
0.32
0.16
-0.08
-0.32
-0.52
-0.62
-0.62
-0.54
-0.43
-0.32
-0.27
-0.32
-0.48
-0.71
-0.94
-1.10
-1.11
-0.95
-0.60
-0.15
0.33
0.75
1.03
1.13
1.09
0.94
0.75
0.56
0.40
0.28
0.19
0.13
0.12
0.17
0.26
0.35
0.39
0.35
0.23
0.09
-0.01
-0.01
0.10
0.29
0.46
0.53
0.46
0.25
-0.02
-0.27
-0.43
-0.50
-0.55
-0.68
-0.95
-1.35
-1.78
-2.12
-2.25
-2.14
-1.84
-1.43
-0.98
-0.52
-0.06
0.41
0.83
1.15
1.28
1.23
1.07
0.92
0.87
0.98
1.21
1.45
1.60
1.58
1.39
1.07
0.68
0.31
0.01
-0.17
-0.19
-0.04
0.25
0.58
0.81
0.83
0.59
0.13
-0.43
-0.93
-1.27
-1.39
-1.34
-1.21
-1.11
-1.08
-1.16
-1.30
-1.46
-1.56
-1.55
-1.38
-1.09
-0.73
-0.37
-0.05
0.18
0.31
0.34
0.27
0.15
0.00
-0.10
-0.10
0.03
0.23
0.44
0.56
0.57
0.51
0.50
0.62
0.89
1.25
1.57
1.75
1.75
1.59
1.33
1.03
0.71
0.42
0.18
0.05
0.04
0.12
0.19
0.18
0.03
-0.21
-0.45
-0.59
-0.60
-0.51
-0.42
-0.38
-0.40
-0.46
-0.57
-0.72
-0.97
-1.33
-1.79
-2.30
-2.76
-3.09
-3.19
-3.06
-2.68
-2.14
-1.56
-1.06
-0.80
-0.81
-1.04
-1.35
-1.54
-1.49
-1.19
-0.74
-0.30
0.03
0.20
0.32
0.45
0.65
0.87
1.02
1.06
1.01
0.95
0.96
1.08
1.25
1.38
1.37
1.21
0.93
0.61
0.26
-0.13
-0.59
-1.10
-1.58
-1.94
-2.08
-1.97
-1.67
-1.29
-0.90
-0.58
-0.33
-0.14
0.02
0.18
0.38
0.62
0.92
1.21
1.42
1.42
1.16
0.65
0.02
-0.56
-0.93
-0.99
-0.73
-0.23
0.36
0.92
1.34
1.57
1.63
1.54
1.38
1.20
1.05
0.98
0.97
1.00
1.02
1.00
0.96
0.91
0.89
0.89
0.85
0.75
0.55
0.26
-0.05
-0.31
-0.50
-0.60
-0.64
-0.65
-0.63
-0.58
-0.51
-0.43
-0.37
-0.36
-0.41
-0.50
-0.57
-0.59
-0.51
-0.34
-0.06
0.28
0.64
0.95
1.17
1.27
1.27
1.18
1.06
0.93
0.84
0.80
0.82
0.82
0.76
0.60
0.37
0.20
0.19
0.40
0.73
1.01
1.06
0.78
0.24
-0.37
-0.85
-1.09
-1.10
-0.98
-0.85
-0.77
-0.73
-0.67
-0.53
-0.31
-0.05
0.15
0.21
0.09
-0.16
-0.43
-0.61
-0.62
-0.49
-0.29
-0.12
-0.05
-0.06
-0.07
0.01
0.22
0.55
0.94
1.28
1.49
1.54
1.41
1.17
0.85
0.49
0.15
-0.11
-0.20
-0.09
0.20
0.57
0.84
0.87
0.61
0.16
-0.31
-0.58
-0.58
-0.34
-0.03
0.16
0.09
-0.22
-0.70
-1.22
-1.67
-2.05
-2.33
-2.53
-2.61
-2.51
-2.19
-1.69
-1.09
-0.55
-0.17
0.01
0.05
0.07
0.19
0.48
0.93
1.43
1.85
2.09
2.11
1.95
1.67
1.32
0.94
0.55
0.15
-0.19
-0.41
-0.46
-0.35
-0.15
0.04
0.14
0.13
0.04
-0.07
-0.17
-0.25
-0.29
-0.28
-0.22
-0.15
-0.11
-0.16
-0.35
-0.61
-0.84
-0.93
-0.80
-0.47
-0.05
0.35
0.65
0.81
0.89
0.91
0.90
0.85
0.75
0.57
0.35
0.13
-0.05
-0.15
-0.16
-0.13
-0.13
-0.22
-0.40
-0.60
-0.74
-0.73
-0.58
-0.31
-0.02
0.22
0.37
0.43
0.46
0.50
0.56
0.64
0.69
0.67
0.57
0.43
0.30
0.23
0.23
0.28
0.30
0.25
0.11
-0.07
-0.24
-0.33
-0.32
-0.22
-0.04
0.21
0.50
0.76
0.92
0.88
0.59
0.08
-0.57
-1.20
-1.72
-2.03
-2.12
-2.00
-1.71
-1.33
-0.93
-0.60
-0.40
-0.32
-0.26
-0.14
0.08
0.38
0.62
0.65
0.41
-0.03
-0.51
-0.83
-0.85
-0.55
-0.04
0.55
1.07
1.42
1.54
1.42
1.11
0.75
0.48
0.42
0.61
0.94
1.22
1.26
0.99
0.46
-0.16
-0.68
-0.98
-1.03
-0.87
-0.61
-0.34
-0.14
-0.06
-0.10
-0.21
-0.31
-0.36
-0.33
-0.25
-0.19
-0.17
-0.18
-0.16
-0.08
0.09
0.32
0.57
0.82
0.99
1.02
0.86
0.47
-0.07
-0.60
-0.92
-0.87
-0.47
0.14
0.70
1.01
1.01
0.76
0.41
0.07
-0.22
-0.51
-0.81
-1.11
-1.28
-1.24
-0.97
-0.57
-0.20
0.00
-0.01
-0.16
-0.33
-0.39
-0.32
-0.13
0.09
0.28
0.39
0.36
0.20
-0.08
-0.39
-0.63
-0.67
-0.47
-0.07
0.40
0.78
0.94
0.84
0.50
0.05
-0.38
-0.64
-0.68
-0.50
-0.20
0.09
0.20
0.07
-0.29
-0.75
-1.13
-1.31
-1.26
-1.04
-0.80
-0.66
-0.64
-0.69
-0.71
-0.61
-0.38
-0.03
0.38
0.78
1.11
1.34
1.46
1.49
1.48
1.48
1.50
1.51
1.42
1.22
0.93
0.65
0.49
0.49
0.57
0.62
0.51
0.27
-0.02
-0.21
-0.20
-0.02
0.22
0.37
0.34
0.12
-0.21
-0.56
-0.85
-1.08
-1.29
-1.49
-1.69
-1.81
-1.79
-1.55
-1.10
-0.51
0.09
0.57
0.86
0.93
0.85
0.71
0.59
0.55
0.62
0.76
0.91
0.98
0.95
0.80
0.61
0.45
0.39
0.43
0.52
0.61
0.64
0.63
0.62
0.64
0.67
0.67
0.55
0.31
0.01
-0.27
-0.42
-0.43
-0.36
-0.29
-0.31
-0.43
-0.58
-0.68
-0.69
-0.60
-0.49
-0.41
-0.36
-0.34
-0.33
-0.36
-0.49
-0.75
-1.10
-1.42
-1.57
-1.45
-1.06
-0.49
0.12
0.64
0.96
1.05
0.95
0.71
0.43
0.19
0.05
0.04
0.13
0.24
0.31
0.30
0.21
0.10
0.00
-0.03
-0.00
0.07
0.15
0.20
0.18
0.09
-0.05
-0.22
-0.38
-0.49
-0.51
-0.42
-0.23
0.01
0.26
0.42
0.44
0.31
0.04
-0.27
-0.48
-0.52
-0.36
-0.10
0.13
0.19
0.02
-0.32
-0.71
-1.03
-1.20
-1.22
-1.11
-0.92
-0.63
-0.23
0.24
0.70
1.04
1.19
1.17
1.05
0.93
0.87
0.87
0.89
0.90
0.87
0.84
0.83
0.84
0.86
0.84
0.77
0.68
0.58
0.48
0.36
0.19
-0.05
-0.33
-0.56
-0.66
-0.58
-0.34
-0.04
0.18
0.25
0.12
-0.16
-0.49
-0.75
-0.85
-0.80
-0.64
-0.46
-0.31
-0.22
-0.19
-0.21
-0.29
-0.42
-0.57
-0.68
-0.67
-0.49
-0.20
0.12
0.34
0.39
0.27
0.09
-0.05
-0.06
0.09
0.35
0.63
0.86
0.96
0.92
0.78
0.61
0.48
0.41
0.40
0.38
0.31
0.15
-0.09
-0.38
-0.69
-0.96
-1.15
-1.24
-1.22
-1.12
-0.96
-0.75
-0.50
-0.21
0.09
0.34
0.47
0.41
0.12
-0.36
-0.94
-1.47
-1.81
-1.85
-1.55
-0.98
-0.29
0.32
0.70
0.81
0.70
0.54
0.43
0.43
0.48
0.50
0.45
0.36
0.28
0.26
0.26
0.22
0.10
-0.10
-0.27
-0.32
-0.19
0.10
0.43
0.69
0.78
0.68
0.45
0.17
-0.07
-0.25
-0.35
-0.40
-0.41
-0.37
-0.24
-0.05
0.17
0.30
0.23
-0.06
-0.51
-0.99
-1.33
-1.45
-1.34
-1.09
-0.76
-0.40
-0.01
0.40
0.78
1.05
1.12
1.00
0.74
0.49
0.38
0.46
0.69
0.96
1.13
1.13
0.93
0.61
0.25
-0.08
-0.31
-0.42
-0.45
-0.46
-0.51
-0.66
-0.87
-1.07
-1.17
-1.10
-0.86
-0.51
-0.18
0.03
0.08
-0.02
-0.22
-0.47
-0.73
-0.99
-1.22
-1.37
-1.39
-1.23
-0.92
-0.49
-0.05
0.32
0.52
0.54
0.42
0.27
0.22
0.35
0.66
1.04
1.33
1.38
1.19
0.82
0.44
0.21
0.22
0.40
0.66
0.86
0.91
0.78
0.51
0.16
-0.19
-0.43
-0.48
-0.34
-0.08
0.14
0.16
-0.07
-0.53
-1.10
-1.66
-2.12
-2.44
-2.60
-2.58
-2.31
-1.79
-1.07
-0.29
0.37
0.80
0.98
1.03
1.10
1.24
1.41
1.47
1.34
1.02
0.61
0.26
0.09
0.08
0.16
0.26
0.36
0.49
0.68
0.89
1.04
1.00
0.73
0.31
-0.14
-0.48
-0.66
-0.72
-0.73
-0.75
-0.78
-0.77
-0.70
-0.55
-0.41
-0.35
-0.44
-0.66
-0.95
-1.21
-1.37
-1.38
-1.27
-1.07
-0.87
-0.69
-0.54
-0.39
-0.18
0.09
0.41
0.75
1.07
1.33
1.54
1.73
1.93
2.14
2.33
2.46
2.43
2.16
1.65
0.94
0.17
-0.49
-0.91
-1.03
-0.91
-0.69
-0.51
-0.43
-0.44
-0.47
-0.46
-0.37
-0.24
-0.09
0.05
0.15
0.18
0.12
-0.05
-0.35
-0.75
-1.21
-1.64
-1.95
-2.10
-2.07
-1.87
-1.55
-1.18
-0.82
-0.48
-0.17
0.17
0.54
0.92
1.24
1.39
1.32
1.06
0.72
0.44
0.34
0.43
0.65
0.87
0.94
0.83
0.58
0.28
0.03
-0.10
-0.13
-0.09
-0.02
0.08
0.21
0.38
0.55
0.67
0.71
0.65
0.53
0.37
0.20
0.01
-0.24
-0.56
-0.90
-1.21
-1.41
-1.46
-1.36
-1.19
-1.02
-0.92
-0.90
-0.93
-0.93
-0.88
-0.73
-0.51
-0.22
0.09
0.43
0.80
1.16
1.48
1.71
1.75
1.58
1.24
0.83
0.50
0.39
0.51
0.79
1.05
1.15
1.03
0.75
0.47
0.31
0.31
0.39
0.40
0.23
-0.10
-0.48
-0.76
-0.83
-0.67
-0.38
-0.12
0.01
-0.03
-0.20
-0.40
-0.60
-0.80
-1.02
-1.29
-1.58
-1.78
-1.79
-1.53
-1.05
-0.50
-0.06
0.13
0.10
-0.05
-0.15
-0.09
0.14
0.44
0.69
0.82
0.85
0.84
0.86
0.91
0.97
0.99
0.95
0.86
0.74
0.60
0.41
0.19
-0.03
-0.19
-0.27
-0.24
-0.13
-0.02
0.06
0.08
0.05
-0.03
-0.15
-0.30
-0.46
-0.58
-0.65
-0.68
-0.73
-0.82
-0.96
-1.07
-1.07
-0.91
-0.61
-0.25
0.09
0.34
0.49
0.56
0.59
0.60
0.56
0.47
0.34
0.23
0.20
0.29
0.52
0.80
1.09
1.33
1.50
1.62
1.66
1.61
1.41
1.07
0.65
0.24
-0.06
-0.23
-0.32
-0.38
-0.45
-0.50
-0.49
-0.41
-0.32
-0.31
-0.49
-0.83
-1.26
-1.65
-1.92
-2.04
-2.09
-2.11
-2.11
-2.07
-1.90
-1.56
-1.07
-0.50
0.01
0.38
0.57
0.59
0.51
0.44
0.41
0.44
0.54
0.68
0.85
1.01
1.12
1.15
1.09
0.96
0.85
0.85
0.98
1.22
1.45
1.57
1.53
1.36
1.14
0.94
0.78
0.60
0.36
0.04
-0.32
-0.63
-0.84
-0.91
-0.87
-0.78
-0.71
-0.70
-0.73
-0.79
-0.81
-0.75
-0.57
-0.28
0.05
0.35
0.54
0.59
0.53
0.42
0.32
0.25
0.19
0.11
0.00
-0.12
-0.20
-0.19
-0.06
0.16
0.38
0.51
0.52
0.40
0.20
0.02
-0.09
-0.11
-0.10
-0.12
-0.20
-0.34
-0.48
-0.58
-0.67
-0.79
-0.99
-1.25
-1.49
-1.59
-1.46
-1.07
-0.51
0.07
0.54
0.81
0.87
0.80
0.69
0.61
0.61
0.67
0.77
0.89
1.02
1.14
1.21
1.20
1.10
0.89
0.63
0.38
0.21
0.16
0.22
0.31
0.40
0.41
0.35
0.25
0.15
0.10
0.09
0.10
0.05
-0.07
-0.27
-0.48
-0.66
-0.78
-0.87
-0.95
-1.06
-1.16
-1.21
-1.16
-1.01
-0.80
-0.60
-0.45
-0.34
-0.24
-0.13
0.01
0.17
0.33
0.45
0.53
0.54
0.46
0.31
0.09
-0.13
-0.31
-0.43
-0.47
-0.42
-0.26
0.05
0.50
1.04
1.53
1.83
1.84
1.53
0.97
0.35
-0.17
-0.45
-0.48
-0.35
-0.17
-0.07
-0.08
-0.18
-0.33
-0.50
-0.70
-0.98
-1.33
-1.70
-1.98
-2.05
-1.85
-1.44
-0.92
-0.43
-0.06
0.18
0.33
0.45
0.57
0.69
0.78
0.83
0.81
0.75
0.68
0.67
0.74
0.89
1.09
1.27
1.38
1.38
1.26
1.03
0.75
0.44
0.16
-0.05
-0.17
-0.19
-0.13
-0.06
-0.06
-0.19
-0.45
-0.78
-1.11
-1.36
-1.53
-1.64
-1.73
-1.85
-1.97
-2.07
-2.11
-2.05
-1.92
-1.73
-1.54
-1.35
-1.13
-0.84
-0.42
0.10
0.65
1.14
1.47
1.61
1.60
1.53
1.48
1.51
1.61
1.70
1.73
1.68
1.59
1.53
1.52
1.56
1.56
1.44
1.17
0.78
0.38
0.08
-0.06
-0.06
-0.01
-0.00
-0.11
-0.32
-0.58
-0.81
-0.97
-1.08
-1.20
-1.35
-1.54
-1.68
-1.70
-1.58
-1.36
-1.14
-0.98
-0.87
-0.75
-0.54
-0.20
0.19
0.49
0.59
0.47
0.23
0.04
0.04
0.33
0.88
1.52
2.06
2.32
2.20
1.74
1.10
0.47
0.00
-0.24
-0.33
-0.35
-0.35
-0.32
-0.18
0.09
0.41
0.62
0.57
0.22
-0.32
-0.85
-1.16
-1.18
-0.99
-0.79
-0.73
-0.87
-1.15
-1.39
-1.45
-1.29
-0.93
-0.49
-0.08
0.22
0.38
0.40
0.33
0.26
0.22
0.26
0.40
0.57
0.73
0.78
0.67
0.41
0.08
-0.22
-0.37
-0.28
0.05
0.55
1.09
1.53
1.75
1.73
1.48
1.10
0.67
0.28
-0.06
-0.32
-0.50
-0.63
-0.74
-0.81
-0.86
-0.89
-0.91
-0.95
-1.03
-1.18
-1.38
-1.58
-1.70
-1.68
-1.49
-1.14
-0.70
-0.22
0.22
0.61
0.90
1.08
1.11
0.99
0.77
0.53
0.36
0.35
0.48
0.71
0.91
0.97
0.84
0.57
0.26
0.06
0.04
0.18
0.37
0.46
0.35
0.03
-0.39
-0.77
-1.03
-1.14
-1.14
-1.07
-0.94
-0.73
-0.46
-0.22
-0.14
-0.33
-0.76
-1.26
-1.58
-1.51
-1.07
-0.40
0.22
0.60
0.71
0.66
0.60
0.66
0.82
0.98
1.02
0.87
0.61
0.34
0.17
0.16
0.25
0.35
0.38
0.35
0.31
0.34
0.50
0.72
0.90
0.96
0.87
0.71
0.56
0.50
0.53
0.60
0.59
0.43
0.10
-0.33
-0.75
-1.05
-1.17
-1.10
-0.92
-0.72
-0.57
-0.52
-0.57
-0.65
-0.71
-0.68
-0.56
-0.38
-0.21
-0.10
-0.10
-0.18
-0.29
-0.39
-0.44
-0.43
-0.35
-0.19
0.08
0.44
0.85
1.22
1.43
1.42
1.17
0.77
0.35
0.07
0.01
0.18
0.47
0.75
0.90
0.87
0.70
0.48
0.28
0.14
0.03
-0.06
-0.17
-0.26
-0.32
-0.35
-0.40
-0.56
-0.83
-1.20
-1.56
-1.78
-1.82
-1.66
-1.39
-1.10
-0.88
-0.73
-0.63
-0.53
-0.39
-0.18
0.07
0.32
0.53
0.66
0.70
0.68
0.63
0.57
0.53
0.50
0.49
0.49
0.51
0.59
0.74
0.98
1.29
1.58
1.73
1.66
1.35
0.89
0.46
0.20
0.15
0.22
0.23
0.04
-0.39
-0.91
-1.33
-1.48
-1.30
-0.90
-0.49
-0.23
-0.22
-0.45
-0.80
-1.14
-1.38
-1.48
-1.41
-1.21
-0.89
-0.46
0.05
0.60
1.10
1.43
1.54
1.42
1.16
0.92
0.80
0.82
0.91
0.93
0.77
0.45
0.07
-0.18
-0.18
0.07
0.45
0.77
0.90
0.78
0.51
0.21
-0.00
-0.08
-0.06
-0.02
-0.07
-0.24
-0.52
-0.84
-1.12
-1.32
-1.43
-1.52
-1.61
-1.70
-1.70
-1.56
-1.21
-0.72
-0.19
0.23
0.45
0.48
0.41
0.35
0.33
0.36
0.38
0.34
0.26
0.19
0.19
0.29
0.48
0.68
0.83
0.90
0.92
0.92
0.99
1.15
1.37
1.57
1.65
1.56
1.30
0.93
0.53
0.18
-0.08
-0.23
-0.28
-0.27
-0.22
-0.17
-0.17
-0.25
-0.42
-0.64
-0.88
-1.06
-1.13
-1.11
-1.01
-0.90
-0.80
-0.73
-0.69
-0.62
-0.51
-0.34
-0.12
0.10
0.26
0.32
0.27
0.16
0.06
0.01
0.00
-0.00
-0.06
-0.18
-0.30
-0.35
-0.25
-0.05
0.15
0.18
-0.05
-0.53
-1.12
-1.64
-1.93
-1.95
-1.73
-1.36
-0.95
-0.57
-0.28
-0.10
-0.03
-0.09
-0.24
-0.42
-0.54
-0.52
-0.29
0.14
0.65
1.10
1.34
1.30
1.03
0.64
0.29
0.11
0.12
0.29
0.53
0.75
0.87
0.82
0.61
0.28
-0.10
-0.43
-0.66
-0.76
-0.75
-0.66
-0.53
-0.35
-0.14
0.05
0.16
0.13
-0.03
-0.26
-0.46
-0.53
-0.44
-0.26
-0.09
-0.03
-0.14
-0.36
-0.60
-0.76
-0.77
-0.65
-0.43
-0.17
0.09
0.31
0.51
0.65
0.73
0.72
0.62
0.44
0.23
0.08
0.04
0.18
0.47
0.85
1.23
1.47
1.51
1.35
1.05
0.71
0.42
0.23
0.10
-0.03
-0.18
-0.38
-0.56
-0.69
-0.75
-0.76
-0.80
-0.92
-1.15
-1.44
-1.68
-1.78
-1.67
-1.34
-0.87
-0.35
0.14
0.56
0.89
1.14
1.33
1.40
1.32
1.07
0.69
0.25
-0.12
-0.31
-0.26
-0.02
0.31
0.62
0.84
0.92
0.88
0.76
0.58
0.37
0.15
-0.06
-0.25
-0.39
-0.48
-0.51
-0.49
-0.40
-0.29
-0.19
-0.17
-0.29
-0.55
-0.89
-1.21
-1.45
-1.56
-1.56
-1.48
-1.33
-1.06
-0.61
0.02
0.73
1.36
1.72
1.69
1.32
0.80
0.33
0.09
0.10
0.28
0.50
0.67
0.78
0.89
1.06
1.29
1.54
1.74
1.86
1.90
1.86
1.74
1.51
1.17
0.74
0.33
0.04
-0.04
0.07
0.25
0.38
0.33
0.07
-0.34
-0.82
-1.29
-1.70
-1.99
-2.14
-2.13
-1.97
-1.70
-1.38
-1.10
-0.89
-0.75
-0.68
-0.64
-0.63
-0.65
-0.68
-0.67
-0.56
-0.32
0.02
0.37
0.64
0.77
0.78
0.73
0.69
0.68
0.69
0.64
0.52
0.36
0.27
0.37
0.67
1.11
1.53
1.75
1.68
1.38
0.98
0.64
0.45
0.41
0.44
0.45
0.43
0.39
0.41
0.53
0.72
0.91
0.99
0.87
0.53
0.03
-0.54
-1.07
-1.49
-1.76
-1.91
-1.95
-1.92
-1.83
-1.69
-1.51
-1.29
-1.08
-0.89
-0.73
-0.58
-0.42
-0.20
0.07
0.35
0.61
0.77
0.80
0.72
0.58
0.42
0.30
0.27
0.37
0.64
1.08
1.61
2.10
2.39
2.37
2.05
1.55
1.05
0.67
0.44
0.31
0.19
-0.00
-0.25
-0.50
-0.74
-0.94
-1.08
-1.16
-1.15
-1.03
-0.82
-0.60
-0.46
-0.49
-0.69
-1.01
-1.35
-1.62
-1.73
-1.64
-1.36
-0.95
-0.48
-0.03
0.35
0.66
0.94
1.18
1.37
1.45
1.35
1.08
0.70
0.33
0.06
-0.09
-0.13
-0.14
-0.12
-0.05
0.09
0.33
0.63
0.89
1.05
1.07
0.92
0.65
0.31
-0.04
-0.31
-0.41
-0.34
-0.17
-0.05
-0.13
-0.48
-1.01
-1.55
-1.89
-1.92
-1.67
-1.28
-0.93
-0.73
-0.69
-0.77
-0.84
-0.85
-0.72
-0.44
-0.04
0.46
0.96
1.39
1.71
1.88
1.90
1.76
1.47
1.04
0.55
0.08
-0.26
-0.43
-0.47
-0.47
-0.53
-0.70
-0.90
-0.99
-0.85
-0.45
0.09
0.57
0.78
0.65
0.26
-0.23
-0.63
-0.84
-0.91
-0.93
-0.97
-1.04
-1.04
-0.88
-0.50
0.06
0.65
1.14
1.42
1.47
1.34
1.09
0.80
0.55
0.33
0.13
-0.10
-0.36
-0.62
-0.78
-0.74
-0.44
0.06
0.59
0.96
1.01
0.75
0.34
0.01
-0.07
0.11
0.41
0.63
0.59
0.24
-0.32
-0.91
-1.36
-1.58
-1.59
-1.44
-1.22
-0.97
-0.68
-0.35
-0.02
0.29
0.50
0.60
0.61
0.58
0.55
0.54
0.49
0.35
0.06
-0.36
-0.79
-1.11
-1.18
-0.98
-0.58
-0.13
0.23
0.43
0.46
0.40
0.30
0.17
-0.00
-0.25
-0.57
-0.89
-1.11
-1.17
-1.04
-0.77
-0.43
-0.10
0.19
0.38
0.48
0.47
0.35
0.17
-0.02
-0.16
-0.22
-0.19
-0.11
0.03
0.20
0.40
0.60
0.77
0.87
0.88
0.83
0.77
0.74
0.77
0.83
0.87
0.85
0.78
0.65
0.49
0.26
-0.06
-0.48
-0.93
-1.32
-1.52
-1.48
-1.25
-0.94
-0.65
-0.42
-0.19
0.11
0.53
0.96
1.26
1.29
1.02
0.54
0.03
-0.35
-0.53
-0.54
-0.48
-0.41
-0.35
-0.29
-0.17
0.00
0.21
0.38
0.49
0.49
0.40
0.29
0.19
0.19
0.29
0.50
0.75
0.98
1.12
1.14
1.06
0.88
0.64
0.38
0.16
0.04
0.06
0.21
0.43
0.62
0.67
0.51
0.17
-0.27
-0.67
-0.92
-0.98
-0.90
-0.77
-0.71
-0.75
-0.86
-0.97
-0.99
-0.88
-0.65
-0.36
-0.11
-0.01
-0.10
-0.35
-0.71
-1.04
-1.25
-1.25
-1.04
-0.65
-0.18
0.28
0.66
0.91
1.03
1.03
0.91
0.71
0.46
0.23
0.07
0.02
0.11
0.28
0.47
0.60
0.62
0.54
0.41
0.30
0.20
0.11
-0.01
-0.17
-0.35
-0.48
-0.51
-0.42
-0.25
-0.12
-0.11
-0.23
-0.44
-0.64
-0.77
-0.83
-0.86
-0.92
-1.02
-1.09
-1.05
-0.82
-0.41
0.08
0.53
0.82
0.94
0.93
0.86
0.79
0.71
0.60
0.46
0.27
0.08
-0.07
-0.16
-0.21
-0.23
-0.24
-0.19
-0.03
0.26
0.62
0.91
1.01
0.86
0.54
0.21
0.00
-0.03
0.03
0.10
0.05
-0.12
-0.38
-0.66
-0.90
-1.07
-1.15
-1.15
-1.06
-0.88
-0.62
-0.29
0.08
0.44
0.76
0.97
1.02
0.87
0.56
0.16
-0.19
-0.40
-0.41
-0.25
-0.02
0.16
0.20
0.08
-0.13
-0.32
-0.35
-0.17
0.20
0.65
1.02
1.17
1.03
0.66
0.16
-0.34
-0.71
-0.94
-1.02
-0.98
-0.85
-0.64
-0.36
-0.08
0.12
0.15
-0.01
-0.29
-0.54
-0.64
-0.54
-0.33
-0.11
-0.01
-0.05
-0.14
-0.13
0.08
0.53
1.10
1.65
2.02
2.14
2.04
1.78
1.48
1.20
0.98
0.79
0.63
0.50
0.42
0.39
0.41
0.44
0.43
0.32
0.10
-0.22
-0.58
-0.93
-1.19
-1.32
-1.27
-1.06
-0.73
-0.36
-0.06
0.08
0.04
-0.11
-0.31
-0.48
-0.65
-0.89
-1.27
-1.79
-2.34
-2.77
-2.94
-2.80
-2.39
-1.81
-1.17
-0.54
0.07
0.66
1.18
1.62
1.92
2.06
2.05
1.90
1.65
1.34
1.00
0.67
0.40
0.23
0.18
0.25
0.42
0.60
0.71
0.67
0.44
0.10
-0.24
-0.43
-0.37
-0.06
0.40
0.84
1.09
1.06
0.77
0.30
-0.20
-0.62
-0.89
-1.02
-1.04
-1.00
-0.94
-0.92
-0.91
-0.92
-0.90
-0.83
-0.70
-0.54
-0.39
-0.28
-0.21
-0.14
0.02
0.28
0.64
0.99
1.22
1.28
1.20
1.09
1.04
1.10
1.23
1.31
1.26
1.04
0.72
0.35
0.01
-0.28
-0.53
-0.72
-0.81
-0.76
-0.56
-0.28
-0.02
0.12
0.09
-0.10
-0.39
-0.71
-1.00
-1.23
-1.40
-1.48
-1.49
-1.47
-1.40
-1.28
-1.05
-0.68
-0.17
0.40
0.89
1.20
1.26
1.14
0.91
0.65
0.37
0.04
-0.38
-0.87
-1.32
-1.58
-1.55
-1.19
-0.61
0.03
0.55
0.85
0.93
0.89
0.83
0.82
0.86
0.89
0.84
0.66
0.38
0.06
-0.22
-0.42
-0.52
-0.57
-0.61
-0.68
-0.78
-0.90
-0.98
-1.02
-1.01
-0.97
-0.92
-0.85
-0.73
-0.55
-0.32
-0.10
0.09
0.22
0.35
0.54
0.84
1.23
1.58
1.77
1.68
1.31
0.76
0.21
-0.17
-0.27
-0.12
0.20
0.56
0.83
0.94
0.88
0.68
0.37
0.02
-0.32
-0.59
-0.72
-0.66
-0.43
-0.12
0.17
0.32
0.27
0.05
-0.31
-0.72
-1.10
-1.36
-1.48
-1.46
-1.32
-1.13
-0.99
-0.92
-0.94
-0.99
-0.98
-0.84
-0.56
-0.19
0.20
0.53
0.82
1.09
1.38
1.69
1.97
2.11
2.02
1.69
1.22
0.76
0.48
0.40
0.48
0.58
0.57
0.43
0.19
-0.06
-0.25
-0.34
-0.37
-0.35
-0.28
-0.14
0.05
0.28
0.46
0.50
0.36
0.03
-0.37
-0.76
-1.04
-1.17
-1.19
-1.16
-1.13
-1.14
-1.17
-1.21
-1.24
-1.23
-1.16
-1.03
-0.80
-0.47
-0.10
0.26
0.56
0.73
0.77
0.68
0.51
0.29
0.11
-0.00
-0.02
0.06
0.20
0.35
0.50
0.63
0.75
0.87
0.97
1.04
1.06
1.08
1.13
1.23
1.36
1.46
1.45
1.31
1.05
0.74
0.42
0.12
-0.17
-0.50
-0.88
-1.31
-1.72
-2.04
-2.25
-2.33
-2.32
-2.26
-2.16
-2.00
-1.72
-1.29
-0.76
-0.23
0.15
0.33
0.31
0.22
0.19
0.28
0.48
0.69
0.81
0.82
0.74
0.66
0.64
0.70
0.80
0.90
0.98
1.02
1.01
0.95
0.82
0.64
0.43
0.26
0.15
0.12
0.13
0.12
0.08
-0.01
-0.08
-0.10
-0.04
0.04
0.05
-0.14
-0.56
-1.17
-1.82
-2.34
-2.58
-2.49
-2.13
-1.59
-0.97
-0.32
0.30
0.84
1.23
1.39
1.30
1.03
0.68
0.35
0.10
-0.09
-0.24
-0.39
-0.50
-0.50
-0.37
-0.10
0.23
0.57
0.87
1.09
1.24
1.31
1.27
1.12
0.87
0.59
0.34
0.17
0.11
0.13
0.20
0.29
0.39
0.45
0.45
0.34
0.12
-0.18
-0.46
-0.63
-0.67
-0.61
-0.57
-0.62
-0.76
-0.85
-0.73
-0.31
0.36
1.07
1.55
1.63
1.27
0.67
0.07
-0.29
-0.32
-0.07
0.30
0.62
0.80
0.83
0.80
0.76
0.73
0.66
0.48
0.16
-0.22
-0.56
-0.70
-0.58
-0.25
0.15
0.43
0.47
0.26
-0.11
-0.52
-0.83
-0.98
-0.96
-0.81
-0.61
-0.42
-0.33
-0.38
-0.56
-0.83
-1.12
-1.34
-1.42
-1.33
-1.11
-0.84
-0.58
-0.39
-0.27
-0.16
0.02
0.30
0.69
1.10
1.45
1.63
1.59
1.36
0.99
0.57
0.22
0.02
0.03
0.26
0.66
1.15
1.61
1.94
2.08
2.02
1.83
1.56
1.29
1.04
0.84
0.68
0.54
0.40
0.21
-0.04
-0.35
-0.67
-0.91
-1.04
-1.05
-1.01
-1.00
-1.05
-1.13
-1.16
-1.08
-0.90
-0.71
-0.63
-0.73
-1.00
-1.31
-1.54
-1.59
-1.43
-1.14
-0.82
-0.58
-0.43
-0.34
-0.23
-0.03
0.28
0.60
0.82
0.86
0.71
0.46
0.21
0.01
-0.15
-0.32
-0.51
-0.66
-0.67
-0.49
-0.14
0.26
0.58
0.74
0.74
0.62
0.45
0.32
0.29
0.41
0.70
1.09
1.49
1.76
1.85
1.78
1.69
1.70
1.90
2.24
2.58
2.80
2.82
2.69
2.50
2.32
2.15
1.95
1.67
1.30
0.89
0.52
0.24
0.08
-0.01
-0.11
-0.26
-0.49
-0.75
-0.98
-1.16
-1.28
-1.35
-1.45
-1.58
-1.76
-1.93
-2.07
-2.16
-2.19
-2.18
-2.17
-2.20
-2.29
-2.46
-2.70
-2.98
-3.24
-3.40
-3.40
-3.17
-2.72
-2.10
-1.39
-0.71
-0.19
0.11
0.14
-0.06
-0.39
-0.74
-1.00
-1.10
-1.02
-0.81
-0.59
-0.47
-0.54
-0.78
-1.03
-1.11
-0.83
-0.13
0.87
1.97
2.91
3.57
3.96
4.21
4.43
4.66
4.77
4.57
3.91
2.78
1.31
-0.28
-1.77
-3.04
-4.11
-5.05
-5.91
-6.62
-7.01
-6.88
-6.12
-4.80
-3.15
-1.50
-0.10
0.93
1.60
2.02
2.30
2.47
2.51
2.40
2.15
1.85
1.60
1.45
1.41
1.40
1.32
1.12
0.76
0.28
-0.26
-0.77
-1.17
-1.41
-1.48
-1.40
-1.24
-1.02
-0.73
-0.37
0.04
0.42
0.69
0.78
0.68
0.48
0.29
0.21
0.28
0.46
0.67
0.83
0.93
0.97
0.97
0.93
0.83
0.66
0.40
0.09
-0.22
-0.44
-0.48
-0.33
-0.03
0.33
0.65
0.85
0.90
0.82
0.66
0.47
0.28
0.12
-0.02
-0.12
-0.16
-0.15
-0.14
-0.18
-0.32
-0.58
-0.89
-1.17
-1.30
-1.23
-1.00
-0.71
-0.47
-0.33
-0.25
-0.13
0.11
0.47
0.87
1.17
1.30
1.22
1.00
0.73
0.51
0.41
0.48
0.68
0.97
1.27
1.49
1.55
1.44
1.18
0.86
0.52
0.21
-0.08
-0.34
-0.55
-0.67
-0.65
-0.50
-0.24
0.04
0.23
0.26
0.08
-0.28
-0.74
-1.22
-1.66
-1.99
-2.18
-2.18
-1.92
-1.43
-0.79
-0.14
0.40
0.76
0.98
1.16
1.37
1.59
1.76
1.75
1.53
1.16
0.78
0.51
0.39
0.37
0.36
0.30
0.19
0.11
0.14
0.31
0.57
0.82
0.97
0.99
0.92
0.88
0.95
1.13
1.33
1.45
1.41
1.27
1.15
1.15
1.30
1.50
1.59
1.48
1.16
0.76
0.44
0.32
0.46
0.82
1.33
1.87
2.32
2.56
2.49
2.09
1.42
0.61
-0.22
-1.00
-1.72
-2.42
-3.13
-3.84
-4.49
-5.02
-5.43
-5.72
-5.94
-6.08
-6.12
-6.01
-5.71
-5.21
-4.54
-3.79
-3.02
-2.31
-1.70
-1.21
-0.83
-0.56
-0.36
-0.22
-0.12
-0.06
-0.02
-0.01
-0.01
-0.02
-0.02
-0.01
0.04
0.13
0.30
0.53
0.84
1.20
1.61
2.06
2.50
2.90
3.18
3.27
3.15
2.84
2.44
2.06
1.79
1.65
1.63
1.69
1.77
1.85
1.87
1.79
1.57
1.22
0.82
0.46
0.24
0.18
0.20
0.19
0.06
-0.19
-0.45
-0.60
-0.56
-0.38
-0.20
-0.21
-0.48
-0.99
-1.59
-2.11
-2.43
-2.49
-2.33
-2.00
-1.54
-0.97
-0.31
0.38
1.04
1.57
1.92
2.06
2.01
1.82
1.55
1.27
1.05
0.92
0.90
0.96
1.05
1.05
0.90
0.57
0.14
-0.26
-0.51
-0.55
-0.44
-0.26
-0.12
-0.06
-0.03
-0.01
0.01
0.00
-0.07
-0.21
-0.35
-0.44
-0.44
-0.40
-0.41
-0.50
-0.62
-0.64
-0.45
-0.03
0.51
1.03
1.42
1.66
1.80
1.86
1.85
1.68
1.32
0.83
0.33
-0.03
-0.16
-0.09
0.03
0.09
0.04
-0.09
-0.22
-0.28
-0.31
-0.36
-0.49
-0.69
-0.91
-1.07
-1.15
-1.15
-1.14
-1.19
-1.29
-1.39
-1.41
-1.28
-1.03
-0.67
-0.29
0.06
0.38
0.64
0.85
0.97
1.00
0.97
0.93
0.94
0.98
1.02
0.98
0.81
0.56
0.34
0.25
0.36
0.59
0.79
0.82
0.61
0.26
-0.10
-0.31
-0.32
-0.17
-0.02
0.02
-0.13
-0.43
-0.77
-1.01
-1.08
-1.01
-0.86
-0.74
-0.70
-0.73
-0.78
-0.82
-0.84
-0.89
-1.01
-1.17
-1.25
-1.13
-0.74
-0.14
0.51
1.02
1.30
1.35
1.26
1.11
0.93
0.72
0.49
0.29
0.22
0.34
0.61
0.93
1.16
1.22
1.12
0.93
0.74
0.61
0.50
0.39
0.24
0.06
-0.11
-0.20
-0.20
-0.16
-0.14
-0.21
-0.36
-0.56
-0.71
-0.78
-0.75
-0.69
-0.63
-0.57
-0.44
-0.21
0.14
0.50
0.71
0.65
0.26
-0.35
-0.98
-1.44
-1.62
-1.57
-1.40
-1.26
-1.20
-1.21
-1.18
-0.99
-0.62
-0.10
0.46
0.92
1.21
1.34
1.38
1.41
1.48
1.58
1.66
1.64
1.49
1.22
0.90
0.60
0.39
0.26
0.16
0.05
-0.09
-0.25
-0.39
-0.50
-0.59
-0.73
-0.94
-1.18
-1.38
-1.45
-1.33
-1.07
-0.79
-0.60
-0.54
-0.51
-0.39
-0.04
0.55
1.28
1.95
2.36
2.41
2.11
1.62
1.09
0.66
0.39
0.28
0.26
0.24
0.14
-0.08
-0.41
-0.80
-1.14
-1.32
-1.26
-0.99
-0.58
-0.17
0.15
0.33
0.38
0.37
0.32
0.27
0.18
0.08
-0.03
-0.11
-0.13
-0.11
-0.11
-0.21
-0.46
-0.84
-1.26
-1.59
-1.74
-1.64
-1.34
-0.92
-0.50
-0.12
0.19
0.45
0.69
0.91
1.10
1.23
1.29
1.28
1.23
1.16
1.10
1.05
0.99
0.91
0.80
0.63
0.42
0.19
-0.03
-0.19
-0.24
-0.21
-0.10
0.01
0.10
0.16
0.19
0.24
0.31
0.38
0.44
0.47
0.46
0.43
0.37
0.24
0.03
-0.28
-0.63
-0.95
-1.16
-1.25
-1.27
-1.27
-1.30
-1.35
-1.37
-1.33
-1.24
-1.10
-0.95
-0.76
-0.46
-0.04
0.50
1.03
1.41
1.53
1.40
1.13
0.89
0.75
0.69
0.58
0.32
-0.14
-0.68
-1.15
-1.41
-1.41
-1.18
-0.79
-0.29
0.31
0.97
1.57
1.94
1.91
1.43
0.59
-0.35
-1.13
-1.59
-1.69
-1.54
-1.27
-0.99
-0.77
-0.64
-0.62
-0.73
-0.95
-1.22
-1.46
-1.60
-1.61
-1.48
-1.24
-0.89
-0.42
0.14
0.71
1.18
1.44
1.44
1.23
0.92
0.66
0.52
0.56
0.71
0.91
1.09
1.17
1.16
1.07
0.94
0.82
0.73
0.67
0.61
0.49
0.34
0.20
0.09
0.02
-0.04
-0.15
-0.34
-0.57
-0.76
-0.86
-0.86
-0.84
-0.85
-0.92
-1.00
-1.00
-0.88
-0.67
-0.49
-0.43
-0.54
-0.76
-0.95
-1.01
-0.90
-0.65
-0.35
-0.09
0.11
0.26
0.42
0.61
0.84
1.06
1.20
1.24
1.19
1.11
1.06
1.07
1.14
1.22
1.25
1.19
1.05
0.85
0.63
0.43
0.25
0.08
-0.11
-0.34
-0.62
-0.94
-1.25
-1.52
-1.69
-1.74
-1.67
-1.50
-1.26
-1.00
-0.75
-0.57
-0.47
-0.48
-0.60
-0.83
-1.12
-1.39
-1.56
-1.52
-1.23
-0.71
-0.06
0.59
1.11
1.40
1.48
1.37
1.19
1.00
0.84
0.71
0.56
0.40
0.22
0.08
0.03
0.11
0.27
0.44
0.52
0.46
0.31
0.17
0.16
0.32
0.58
0.78
0.79
0.55
0.13
-0.32
-0.68
-0.88
-1.00
-1.12
-1.28
-1.49
-1.66
-1.73
-1.69
-1.56
-1.34
-1.05
-0.72
-0.37
-0.05
0.19
0.33
0.42
0.53
0.70
0.95
1.25
1.56
1.87
2.16
2.38
2.44
2.25
1.76
1.07
0.35
-0.15
-0.30
-0.11
0.20
0.38
0.23
-0.28
-0.94
-1.49
-1.68
-1.42
-0.84
-0.16
0.42
0.79
0.95
0.93
0.75
0.40
-0.15
-0.84
-1.55
-2.11
-2.39
-2.34
-2.05
-1.66
-1.32
-1.12
-1.07
-1.08
-1.06
-0.91
-0.62
-0.21
0.26
0.72
1.14
1.48
1.71
1.79
1.71
1.46
1.10
0.72
0.44
0.32
0.39
0.59
0.83
1.01
1.08
1.02
0.86
0.67
0.51
0.40
0.37
0.38
0.45
0.56
0.73
0.91
1.05
1.10
1.03
0.82
0.51
0.14
-0.22
-0.55
-0.80
-0.99
-1.16
-1.36
-1.64
-1.99
-2.34
-2.58
-2.62
-2.43
-2.05
-1.58
-1.13
-0.77
-0.54
-0.44
-0.42
-0.39
-0.27
-0.03
0.36
0.85
1.36
1.80
2.08
2.14
1.98
1.60
1.08
0.53
0.07
-0.16
-0.12
0.16
0.58
1.02
1.36
1.55
1.56
1.40
1.09
0.69
0.27
-0.08
-0.30
-0.39
-0.39
-0.36
-0.38
-0.47
-0.60
-0.74
-0.81
-0.80
-0.69
-0.56
-0.47
-0.49
-0.66
-0.93
-1.23
-1.44
-1.50
-1.44
-1.32
-1.19
-1.06
-0.85
-0.50
0.04
0.67
1.22
1.55
1.59
1.41
1.18
1.04
1.05
1.16
1.28
1.33
1.32
1.26
1.14
0.92
0.59
0.21
-0.10
-0.22
-0.11
0.14
0.38
0.48
0.41
0.26
0.14
0.15
0.26
0.34
0.28
0.05
-0.30
-0.62
-0.79
-0.77
-0.66
-0.60
-0.72
-1.07
-1.59
-2.13
-2.55
-2.74
-2.67
-2.37
-1.88
-1.29
-0.64
0.01
0.59
1.07
1.40
1.61
1.72
1.78
1.84
1.90
1.91
1.81
1.53
1.09
0.62
0.30
0.28
0.63
1.24
1.87
2.30
2.39
2.17
1.82
1.53
1.42
1.48
1.60
1.65
1.57
1.43
1.35
1.44
1.71
2.08
2.40
2.54
2.45
2.20
1.91
1.78
1.95
2.46
3.19
3.94
4.49
4.73
4.70
4.67
4.98
5.86
7.33
9.13
10.85
12.09
12.59
12.24
10.98
8.87
6.19
3.51
1.64
1.35
2.94
5.90
8.91
10.41
9.36
5.81
0.81
-4.27
-8.50
-11.71
-14.27
-16.57
-18.68
-20.27
-20.95
-20.52
-19.23
-17.50
-15.88
-14.74
-14.09
-13.66
-13.04
-11.91
-10.20
-8.14
-6.10
-4.43
-3.34
-2.77
-2.55
-2.42
-2.18
-1.73
-1.12
-0.44
0.19
0.72
1.16
1.56
1.98
2.44
2.89
3.20
3.27
3.04
2.56
1.99
1.53
1.35
1.48
1.82
2.19
2.44
2.52
2.49
2.51
2.69
3.08
3.56
3.95
4.13
4.08
3.89
3.73
3.75
4.01
4.45
4.96
5.46
5.88
6.25
6.56
6.77
6.83
6.62
6.12
5.36
4.47
3.62
3.01
2.72
2.78
3.10
3.57
4.11
4.68
5.28
5.90
6.49
7.00
7.36
7.60
7.79
8.05
8.46
9.01
9.61
10.16
10.58
10.84
10.94
10.86
10.57
9.98
9.02
7.66
5.89
3.77
1.37
-1.19
-3.81
-6.32
-8.58
-10.48
-11.97
-13.09
-13.90
-14.49
-14.91
-15.18
-15.28
-15.20
-14.95
-14.56
-14.11
-13.60
-13.03
-12.34
-11.45
-10.33
-9.01
-7.59
-6.19
-4.92
-3.82
-2.93
-2.20
-1.60
-1.14
-0.81
-0.63
-0.58
-0.58
-0.54
-0.39
-0.09
0.30
0.69
0.94
1.01
0.92
0.78
0.67
0.63
0.58
0.43
0.09
-0.40
-0.96
-1.48
-1.96
-2.46
-3.04
-3.70
-4.33
-4.74
-4.76
-4.39
-3.78
-3.12
-2.58
-2.22
-2.00
-1.84
-1.74
-1.70
-1.74
-1.84
-1.90
-1.81
-1.52
-1.05
-0.51
-0.04
0.28
0.44
0.50
0.56
0.66
0.81
0.94
0.93
0.69
0.22
-0.34
-0.82
-1.06
-0.99
-0.69
-0.33
-0.06
0.07
0.07
0.06
0.12
0.26
0.43
0.56
0.58
0.51
0.38
0.26
0.19
0.16
0.13
0.08
-0.01
-0.12
-0.19
-0.20
-0.17
-0.17
-0.25
-0.39
-0.52
-0.53
-0.36
-0.08
0.18
0.29
0.22
0.05
-0.03
0.11
0.52
1.08
1.60
1.90
1.91
1.67
1.28
0.86
0.52
0.29
0.17
0.13
0.11
0.08
0.05
0.04
0.09
0.21
0.34
0.42
0.38
0.23
0.01
-0.19
-0.31
-0.31
-0.24
-0.12
0.00
0.12
0.24
0.35
0.44
0.52
0.59
0.63
0.66
0.66
0.62
0.53
0.40
0.26
0.13
0.02
-0.07
-0.14
-0.14
-0.08
0.08
0.28
0.45
0.51
0.45
0.32
0.17
0.08
0.06
0.09
0.17
0.28
0.41
0.55
0.67
0.73
0.67
0.50
0.22
-0.12
-0.45
-0.67
-0.75
-0.67
-0.48
-0.28
-0.19
-0.24
-0.42
-0.61
-0.71
-0.64
-0.44
-0.22
-0.11
-0.18
-0.39
-0.61
-0.67
-0.48
-0.04
0.50
0.95
1.13
1.00
0.65
0.27
-0.01
-0.09
-0.03
0.11
0.24
0.34
0.42
0.47
0.47
0.43
0.38
0.40
0.53
0.78
1.07
1.27
1.30
1.10
0.73
0.27
-0.17
-0.53
-0.74
-0.79
-0.69
-0.51
-0.32
-0.23
-0.27
-0.45
-0.70
-0.89
-0.92
-0.76
-0.47
-0.15
0.07
0.13
-0.01
-0.26
-0.54
-0.77
-0.91
-0.96
-0.91
-0.78
-0.59
-0.38
-0.20
-0.13
-0.18
-0.32
-0.45
-0.49
-0.39
-0.20
0.02
0.20
0.36
0.52
0.74
1.00
1.23
1.31
1.17
0.83
0.38
0.01
-0.18
-0.11
0.15
0.48
0.76
0.91
0.97
1.02
1.15
1.37
1.59
1.70
1.55
1.15
0.57
-0.04
-0.54
-0.85
-0.96
-0.93
-0.78
-0.55
-0.27
0.04
0.34
0.56
0.65
0.58
0.34
-0.03
-0.43
-0.77
-0.97
-1.00
-0.89
-0.71
-0.53
-0.37
-0.22
-0.06
0.09
0.20
0.21
0.12
-0.01
-0.10
-0.11
-0.07
-0.06
-0.14
-0.34
-0.59
-0.81
-0.91
-0.86
-0.64
-0.29
0.15
0.58
0.89
1.00
0.87
0.55
0.16
-0.15
-0.30
-0.27
-0.15
-0.01
0.07
0.11
0.12
0.12
0.13
0.14
0.16
0.21
0.31
0.45
0.60
0.70
0.69
0.56
0.32
0.04
-0.20
-0.38
-0.47
-0.46
-0.40
-0.34
-0.32
-0.34
-0.38
-0.35
-0.13
0.30
0.88
1.43
1.74
1.66
1.21
0.55
-0.07
-0.47
-0.59
-0.51
-0.34
-0.16
0.02
0.20
0.35
0.40
0.27
-0.05
-0.44
-0.72
-0.78
-0.58
-0.26
0.01
0.13
0.09
-0.02
-0.10
-0.13
-0.13
-0.16
-0.24
-0.34
-0.44
-0.50
-0.50
-0.45
-0.34
-0.18
0.02
0.22
0.37
0.45
0.47
0.45
0.41
0.36
0.26
0.11
-0.08
-0.25
-0.36
-0.39
-0.36
-0.30
-0.24
-0.19
-0.15
-0.16
-0.21
-0.31
-0.44
-0.53
-0.51
-0.36
-0.12
0.12
0.25
0.24
0.10
-0.07
-0.17
-0.16
-0.03
0.13
0.26
0.33
0.35
0.38
0.46
0.61
0.76
0.81
0.67
0.33
-0.13
-0.60
-0.95
-1.10
-1.06
-0.87
-0.62
-0.33
-0.02
0.32
0.70
1.05
1.26
1.22
0.88
0.31
-0.32
-0.80
-0.96
-0.80
-0.44
-0.10
0.07
0.03
-0.12
-0.21
-0.15
0.04
0.23
0.28
0.12
-0.17
-0.44
-0.56
-0.48
-0.25
0.02
0.23
0.35
0.39
0.42
0.45
0.48
0.48
0.39
0.19
-0.11
-0.44
-0.71
-0.81
-0.71
-0.43
-0.07
0.27
0.47
0.50
0.41
0.27
0.17
0.15
0.19
0.22
0.16
-0.03
-0.31
-0.61
-0.82
-0.87
-0.73
-0.44
-0.07
0.30
0.62
0.85
0.96
0.94
0.77
0.46
0.03
-0.42
-0.78
-0.93
-0.80
-0.39
0.17
0.70
1.00
0.98
0.68
0.24
-0.15
-0.33
-0.28
-0.10
0.10
0.23
0.27
0.27
0.28
0.32
0.33
0.22
-0.02
-0.33
-0.56
-0.59
-0.35
0.03
0.39
0.57
0.53
0.31
0.05
-0.18
-0.35
-0.48
-0.61
-0.74
-0.83
-0.88
-0.88
-0.88
-0.90
-0.93
-0.89
-0.75
-0.51
-0.21
0.03
0.16
0.16
0.09
0.02
0.01
0.07
0.15
0.24
0.31
0.37
0.41
0.39
0.24
-0.05
-0.46
-0.88
-1.15
-1.14
-0.83
-0.28
0.35
0.88
1.21
1.30
1.19
0.96
0.66
0.35
0.03
-0.30
-0.57
-0.71
-0.65
-0.40
-0.01
0.34
0.54
0.52
0.33
0.11
-0.03
-0.04
0.04
0.10
0.08
-0.02
-0.13
-0.14
-0.01
0.24
0.50
0.66
0.66
0.53
0.36
0.26
0.29
0.41
0.52
0.51
0.33
0.03
-0.28
-0.47
-0.50
-0.39
-0.25
-0.17
-0.20
-0.33
-0.44
-0.47
-0.36
-0.19
-0.05
-0.04
-0.17
-0.34
-0.44
-0.35
-0.09
0.24
0.49
0.55
0.41
0.14
-0.12
-0.28
-0.28
-0.16
0.03
0.20
0.28
0.26
0.19
0.14
0.17
0.28
0.40
0.41
0.23
-0.10
-0.48
-0.78
-0.91
-0.88
-0.80
-0.76
-0.81
-0.89
-0.90
-0.78
-0.55
-0.33
-0.22
-0.29
-0.49
-0.68
-0.72
-0.53
-0.18
0.21
0.45
0.48
0.31
0.06
-0.11
-0.15
-0.08
-0.02
-0.05
-0.21
-0.44
-0.61
-0.61
-0.41
-0.06
0.30
0.55
0.65
0.63
0.56
0.49
0.44
0.38
0.28
0.15
0.05
0.03
0.13
0.32
0.52
0.63
0.61
0.47
0.29
0.14
0.11
0.18
0.32
0.45
0.51
0.49
0.43
0.40
0.43
0.51
0.59
0.61
0.54
0.41
0.28
0.19
0.11
-0.00
-0.18
-0.41
-0.62
-0.73
-0.70
-0.57
-0.45
-0.40
-0.43
-0.49
-0.47
-0.31
-0.01
0.37
0.75
1.04
1.18
1.15
0.96
0.65
0.33
0.08
-0.00
0.07
0.21
0.29
0.23
0.02
-0.23
-0.38
-0.35
-0.16
0.05
0.13
0.03
-0.22
-0.47
-0.57
-0.49
-0.28
-0.08
-0.02
-0.11
-0.26
-0.32
-0.20
0.09
0.43
0.63
0.58
0.28
-0.14
-0.50
-0.66
-0.56
-0.27
0.09
0.39
0.55
0.55
0.40
0.18
-0.05
-0.21
-0.21
-0.06
0.20
0.45
0.56
0.47
0.25
0.01
-0.11
-0.10
-0.03
-0.03
-0.16
-0.37
-0.53
-0.49
-0.19
0.29
0.78
1.11
1.16
0.95
0.60
0.25
0.02
-0.02
0.12
0.36
0.59
0.72
0.70
0.57
0.42
0.33
0.35
0.45
0.55
0.59
0.56
0.48
0.41
0.39
0.41
0.41
0.35
0.20
-0.02
-0.24
-0.41
-0.52
-0.57
-0.59
-0.59
-0.57
-0.52
-0.48
-0.49
-0.59
-0.81
-1.11
-1.40
-1.55
-1.45
-1.09
-0.54
0.05
0.51
0.71
0.65
0.43
0.18
0.03
-0.00
0.02
0.01
-0.05
-0.11
-0.06
0.14
0.44
0.69
0.76
0.57
0.18
-0.24
-0.53
-0.60
-0.47
-0.23
0.02
0.21
0.31
0.31
0.20
0.03
-0.12
-0.17
-0.08
0.13
0.32
0.35
0.13
-0.29
-0.73
-0.98
-0.92
-0.57
-0.12
0.22
0.29
0.09
-0.26
-0.55
-0.65
-0.52
-0.27
-0.03
0.07
0.04
0.01
0.09
0.35
0.71
0.98
1.03
0.78
0.34
-0.13
-0.48
-0.64
-0.63
-0.54
-0.44
-0.34
-0.21
-0.03
0.15
0.26
0.24
0.07
-0.14
-0.28
-0.25
-0.03
0.28
0.57
0.74
0.76
0.68
0.58
0.50
0.44
0.39
0.29
0.12
-0.10
-0.38
-0.67
-0.93
-1.11
-1.13
-0.98
-0.71
-0.39
-0.10
0.11
0.26
0.40
0.54
0.64
0.66
0.54
0.28
-0.03
-0.29
-0.40
-0.33
-0.10
0.20
0.49
0.68
0.73
0.67
0.53
0.39
0.29
0.24
0.19
0.10
-0.04
-0.18
-0.24
-0.18
-0.02
0.17
0.27
0.21
0.02
-0.22
-0.41
-0.51
-0.51
-0.50
-0.51
-0.58
-0.69
-0.77
-0.77
-0.67
-0.47
-0.24
-0.06
0.01
0.00
-0.00
0.08
0.32
0.64
0.95
1.09
1.01
0.77
0.49
0.31
0.30
0.39
0.48
0.48
0.33
0.11
-0.09
-0.19
-0.15
0.01
0.19
0.31
0.29
0.11
-0.18
-0.51
-0.81
-0.99
-1.03
-0.90
-0.64
-0.28
0.09
0.42
0.64
0.72
0.65
0.43
0.12
-0.19
-0.41
-0.47
-0.39
-0.22
-0.05
0.09
0.19
0.31
0.45
0.61
0.69
0.61
0.31
-0.13
-0.59
-0.88
-0.92
-0.68
-0.27
0.13
0.37
0.34
0.07
-0.32
-0.64
-0.75
-0.64
-0.41
-0.23
-0.22
-0.41
-0.67
-0.88
-0.92
-0.82
-0.65
-0.50
-0.42
-0.37
-0.27
-0.11
0.09
0.27
0.36
0.37
0.31
0.23
0.13
-0.00
-0.18
-0.36
-0.49
-0.52
-0.42
-0.23
-0.02
0.13
0.17
0.13
0.08
0.07
0.14
0.28
0.42
0.53
0.55
0.48
0.38
0.29
0.24
0.25
0.27
0.27
0.22
0.12
-0.02
-0.19
-0.35
-0.47
-0.50
-0.39
-0.08
0.38
0.90
1.30
1.46
1.31
0.96
0.57
0.30
0.22
0.27
0.34
0.31
0.16
-0.05
-0.21
-0.21
-0.05
0.18
0.39
0.46
0.34
0.08
-0.25
-0.58
-0.84
-1.00
-1.07
-1.03
-0.89
-0.66
-0.35
-0.03
0.26
0.49
0.63
0.74
0.84
0.95
1.03
1.03
0.91
0.69
0.44
0.25
0.19
0.24
0.32
0.30
0.10
-0.26
-0.67
-0.96
-0.99
-0.78
-0.44
-0.15
-0.03
-0.11
-0.28
-0.41
-0.43
-0.33
-0.21
-0.15
-0.20
-0.33
-0.48
-0.56
-0.50
-0.28
0.12
0.67
1.26
1.78
2.10
2.15
1.93
1.54
1.05
0.52
-0.01
-0.51
-0.93
-1.18
-1.23
-1.09
-0.89
-0.75
-0.74
-0.83
-0.93
-0.93
-0.80
-0.58
-0.33
-0.11
0.10
0.33
0.56
0.74
0.76
0.56
0.15
-0.37
-0.84
-1.16
-1.25
-1.13
-0.89
-0.62
-0.41
-0.32
-0.34
-0.39
-0.42
-0.39
-0.33
-0.30
-0.35
-0.44
-0.47
-0.34
-0.01
0.42
0.76
0.83
0.58
0.14
-0.28
-0.50
-0.44
-0.19
0.12
0.34
0.42
0.40
0.36
0.37
0.43
0.51
0.55
0.50
0.36
0.15
-0.07
-0.25
-0.34
-0.32
-0.24
-0.15
-0.11
-0.14
-0.22
-0.28
-0.28
-0.21
-0.12
-0.11
-0.20
-0.37
-0.50
-0.45
-0.17
0.32
0.87
1.29
1.43
1.21
0.70
0.05
-0.54
-0.90
-0.90
-0.53
0.11
0.86
1.50
1.84
1.76
1.29
0.56
-0.21
-0.82
-1.11
-1.07
-0.79
-0.42
-0.10
0.09
0.13
0.07
-0.03
-0.13
-0.21
-0.24
-0.23
-0.17
-0.09
-0.02
0.01
-0.04
-0.12
-0.19
-0.17
-0.05
0.15
0.33
0.42
0.37
0.21
0.01
-0.18
-0.34
-0.48
-0.59
-0.65
-0.61
-0.44
-0.19
0.09
0.32
0.45
0.49
0.46
0.40
0.29
0.15
0.01
-0.05
0.01
0.17
0.35
0.47
0.49
0.44
0.40
0.40
0.43
0.43
0.33
0.10
-0.21
-0.52
-0.73
-0.77
-0.66
-0.47
-0.29
-0.21
-0.28
-0.45
-0.62
-0.70
-0.63
-0.41
-0.10
0.26
0.62
0.95
1.21
1.33
1.26
1.00
0.63
0.28
0.08
0.07
0.20
0.36
0.43
0.36
0.14
-0.16
-0.44
-0.62
-0.62
-0.45
-0.15
0.20
0.52
0.73
0.83
0.82
0.76
0.66
0.54
0.38
0.20
0.02
-0.12
-0.17
-0.13
-0.05
0.05
0.11
0.12
0.12
0.13
0.17
0.26
0.37
0.49
0.58
0.63
0.67
0.72
0.80
0.84
0.79
0.58
0.24
-0.17
-0.48
-0.57
-0.40
-0.07
0.26
0.38
0.22
-0.17
-0.64
-0.97
-1.07
-0.93
-0.65
-0.36
-0.17
-0.08
-0.07
-0.07
-0.07
-0.08
-0.11
-0.18
-0.30
-0.45
-0.63
-0.79
-0.90
-0.91
-0.78
-0.52
-0.21
0.01
0.03
-0.18
-0.53
-0.88
-1.07
-1.04
-0.83
-0.55
-0.33
-0.22
-0.19
-0.14
-0.00
0.25
0.57
0.86
1.01
1.00
0.84
0.64
0.49
0.48
0.59
0.76
0.86
0.83
0.62
0.30
-0.04
-0.28
-0.32
-0.15
0.14
0.43
0.54
0.40
0.05
-0.38
-0.69
-0.78
-0.64
-0.42
-0.26
-0.26
-0.36
-0.41
-0.27
0.05
0.41
0.61
0.51
0.13
-0.36
-0.73
-0.83
-0.67
-0.38
-0.14
-0.06
-0.15
-0.29
-0.40
-0.42
-0.35
-0.27
-0.23
-0.24
-0.27
-0.28
-0.24
-0.17
-0.09
0.00
0.12
0.30
0.50
0.69
0.77
0.70
0.52
0.38
0.38
0.57
0.86
1.10
1.13
0.93
0.58
0.24
0.03
0.02
0.14
0.28
0.33
0.24
0.03
-0.21
-0.41
-0.54
-0.62
-0.69
-0.77
-0.86
-0.90
-0.85
-0.71
-0.54
-0.42
-0.42
-0.56
-0.82
-1.11
-1.34
-1.44
-1.39
-1.16
-0.79
-0.35
0.07
0.37
0.50
0.48
0.37
0.23
0.12
0.02
-0.09
-0.21
-0.30
-0.31
-0.20
0.03
0.34
0.63
0.85
0.98
1.02
1.00
0.92
0.77
0.56
0.33
0.16
0.13
0.26
0.50
0.74
0.87
0.79
0.50
0.07
-0.37
-0.69
-0.82
-0.75
-0.58
-0.39
-0.24
-0.16
-0.10
-0.05
-0.01
-0.07
-0.30
-0.69
-1.14
-1.48
-1.55
-1.29
-0.82
-0.30
0.10
0.29
0.32
0.28
0.27
0.32
0.39
0.43
0.43
0.43
0.47
0.56
0.64
0.62
0.45
0.16
-0.12
-0.22
-0.03
0.43
0.99
1.47
1.71
1.65
1.37
0.96
0.57
0.29
0.18
0.24
0.42
0.63
0.76
0.75
0.58
0.29
-0.04
-0.32
-0.54
-0.71
-0.82
-0.88
-0.81
-0.60
-0.25
0.11
0.34
0.32
0.03
-0.43
-0.91
-1.26
-1.41
-1.39
-1.25
-1.04
-0.77
-0.43
-0.03
0.37
0.67
0.77
0.65
0.38
0.06
-0.18
-0.26
-0.15
0.08
0.33
0.48
0.46
0.27
-0.03
-0.35
-0.58
-0.67
-0.62
-0.46
-0.26
-0.07
0.09
0.24
0.41
0.63
0.89
1.10
1.18
1.06
0.74
0.27
-0.19
-0.50
-0.57
-0.41
-0.12
0.15
0.27
0.20
-0.01
-0.27
-0.45
-0.49
-0.38
-0.17
0.07
0.27
0.39
0.44
0.41
0.32
0.18
0.01
-0.16
-0.29
-0.32
-0.24
-0.07
0.15
0.35
0.48
0.54
0.52
0.46
0.41
0.38
0.33
0.22
-0.02
-0.38
-0.76
-1.04
-1.08
-0.85
-0.41
0.07
0.44
0.60
0.56
0.40
0.21
0.04
-0.09
-0.18
-0.23
-0.23
-0.19
-0.11
-0.02
0.04
0.05
0.02
-0.05
-0.14
-0.22
-0.30
-0.37
-0.48
-0.64
-0.84
-1.01
-1.05
-0.90
-0.54
-0.05
0.43
0.78
0.95
0.92
0.74
0.43
0.03
-0.40
-0.78
-0.98
-0.94
-0.69
-0.35
-0.09
-0.01
-0.08
-0.19
-0.20
-0.08
0.13
0.28
0.29
0.17
0.02
-0.06
-0.02
0.09
0.18
0.19
0.14
0.11
0.17
0.31
0.44
0.45
0.33
0.14
0.04
0.10
0.30
0.51
0.57
0.41
0.11
-0.18
-0.30
-0.18
0.09
0.36
0.46
0.32
-0.03
-0.47
-0.87
-1.13
-1.21
-1.11
-0.87
-0.55
-0.18
0.20
0.55
0.82
0.97
0.96
0.83
0.63
0.46
0.37
0.34
0.33
0.28
0.19
0.14
0.19
0.39
0.68
0.94
1.03
0.89
0.55
0.15
-0.17
-0.30
-0.28
-0.18
-0.11
-0.13
-0.21
-0.29
-0.28
-0.20
-0.09
-0.01
-0.01
-0.07
-0.13
-0.15
-0.18
-0.27
-0.47
-0.75
-1.00
-1.09
-0.96
-0.62
-0.21
0.17
0.44
0.61
0.72
0.80
0.86
0.87
0.79
0.64
0.44
0.27
0.17
0.15
0.20
0.26
0.28
0.24
0.15
0.06
0.01
0.02
0.04
0.03
