1564787882.00
64.000000
-0.00
-0.00
-0.00
-0.00
-0.00
-0.00
-0.00
-0.00
-0.00
-0.00
0.00
0.01
0.01
-0.00
-0.03
-0.05
-0.05
0.00
0.13
0.36
0.66
1.01
1.37
1.72
2.06
2.40
2.79
3.24
3.80
4.43
5.08
5.70
6.27
6.81
7.37
8.03
8.84
9.91
11.15
12.45
13.70
14.84
15.92
17.11
18.61
20.57
23.22
26.36
29.72
33.01
36.07
38.98
42.07
45.78
50.44
56.43
63.41
70.85
78.20
85.12
91.70
98.45
106.10
115.20
126.31
138.92
152.26
165.45
177.94
189.83
201.76
215.11
228.62
244.59
263.60
285.77
309.90
333.09
351.05
359.17
354.13
335.07
304.41
265.99
224.12
182.01
141.22
102.01
64.24
28.14
-5.53
-35.53
-61.31
-83.03
-101.30
-116.68
-129.39
-139.27
-145.90
-149.06
-148.82
-146.04
-141.88
-137.56
-133.98
-131.20
-128.89
-126.45
-123.41
-119.46
-114.80
-109.84
-105.08
-100.81
-97.10
-93.81
-90.66
-87.43
-83.99
-80.44
-76.96
-73.74
-70.84
-68.26
-65.92
-63.71
-61.60
-59.59
-57.76
-56.15
-54.76
-53.53
-52.41
-51.42
-50.63
-50.18
-50.22
-50.78
-51.79
-53.04
-54.26
-55.24
-56.01
-56.77
-57.89
-59.73
-62.51
-66.12
-70.22
-74.33
-78.09
-81.47
-84.82
-88.79
-94.04
-100.93
-109.35
-118.69
-128.10
-136.84
-144.59
-151.69
-159.02
-167.82
-179.28
-194.02
-211.61
-230.44
-247.82
-260.69
-266.52
-264.01
-253.45
-236.49
-215.59
-193.29
-171.61
-151.75
-134.06
-118.15
-103.15
-88.03
-72.13
-55.59
-39.52
-25.60
-15.19
-8.50
-4.36
-0.85
3.56
9.16
14.84
18.95
20.52
20.01
19.06
19.39
21.70
25.14
27.87
28.22
25.65
21.13
16.58
13.94
14.13
16.62
19.52
20.53
18.08
12.28
5.02
-0.98
-3.73
-3.23
-1.63
-1.99
-6.30
-14.18
-22.86
-28.76
-29.64
-25.87
-20.24
-16.25
-16.16
-19.74
-24.48
-27.10
-25.43
-19.64
-12.11
-6.03
-3.71
-5.27
-8.68
-10.98
-10.02
-5.64
0.31
5.10
6.74
5.08
1.78
-0.68
-0.48
2.64
7.31
11.42
13.32
12.77
10.96
9.93
11.34
15.42
20.72
24.94
26.36
24.96
22.55
21.69
23.98
28.99
34.46
37.75
37.61
35.04
32.72
33.33
37.85
44.95
51.83
55.87
56.15
53.82
51.40
51.33
54.68
60.56
66.67
70.43
70.45
67.30
63.27
61.05
62.12
65.84
69.79
71.19
68.69
63.16
57.25
53.75
54.03
57.20
60.70
61.80
59.06
53.12
46.20
40.83
38.44
38.66
39.55
38.81
35.17
29.18
23.00
19.05
18.54
20.73
23.27
23.68
20.76
15.29
9.51
5.84
5.55
8.07
11.37
13.17
12.20
8.92
5.19
3.16
4.03
7.31
11.10
13.20
12.41
9.22
5.54
3.52
4.17
6.76
9.23
9.53
6.93
2.55
-1.26
-2.34
-0.08
4.28
8.20
9.34
6.89
2.05
-2.63
-4.72
-3.27
0.64
4.52
5.96
4.05
-0.04
-3.71
-4.49
-1.53
3.70
8.29
9.49
6.39
0.56
-4.88
-7.00
-4.83
0.16
4.88
6.46
3.89
-1.44
-6.50
-8.36
-5.88
-0.34
5.22
7.76
6.00
1.23
-3.43
-4.89
-2.03
3.69
9.06
11.14
8.95
4.04
-0.58
-2.21
-0.07
4.36
8.33
9.38
6.78
1.94
-2.44
-3.88
-1.51
3.32
7.84
9.36
6.94
1.88
-2.89
-4.67
-2.58
1.87
5.79
6.58
3.53
-1.74
-6.30
-7.61
-5.01
-0.03
4.46
5.90
3.58
-1.11
-5.28
-6.32
-3.44
1.89
6.76
8.62
6.75
2.72
-0.67
-1.17
1.58
5.76
8.52
7.74
3.27
-2.89
-7.72
-8.78
-5.59
0.16
5.57
8.05
6.68
2.67
-1.40
-3.09
-1.51
2.19
5.55
6.34
4.04
0.12
-2.83
-2.86
0.10
4.12
6.46
5.30
0.89
-4.54
-8.04
-7.64
-3.48
2.31
6.82
7.97
5.61
1.55
-1.60
-1.91
0.83
5.04
8.30
8.82
6.35
2.34
-0.93
-1.72
0.11
3.06
4.88
3.91
0.18
-4.60
-7.92
-7.89
-4.44
0.57
4.29
4.49
0.84
-4.83
-9.50
-10.71
-7.93
-2.89
1.54
2.97
0.95
-2.81
-5.46
-4.80
-0.63
5.01
9.04
9.20
5.45
0.06
-3.70
-3.54
0.50
6.07
9.93
9.90
6.04
0.54
-3.58
-4.17
-1.09
3.80
7.70
8.37
5.31
-0.03
-5.01
-7.30
-6.12
-2.64
0.66
1.52
-0.72
-4.70
-7.84
-7.88
-4.25
1.54
6.69
8.70
6.80
2.36
-1.91
-3.47
-1.46
2.84
6.69
7.67
5.15
0.77
-2.64
-2.88
0.04
3.90
5.64
3.49
-1.92
-7.79
-10.95
-9.72
-4.93
0.66
4.01
3.52
-0.11
-4.30
-6.18
-4.21
0.90
6.48
9.46
8.02
2.83
-3.39
-7.32
-7.01
-2.97
2.23
5.49
5.05
1.41
-3.07
-5.68
-4.89
-1.24
3.04
5.39
4.33
0.40
-4.22
-6.84
-5.76
-1.29
4.41
8.45
8.82
5.52
0.46
-3.65
-4.77
-2.72
0.86
3.58
3.65
1.00
-2.73
-5.16
-4.71
-1.53
2.40
4.49
3.10
-1.39
-6.73
-9.98
-9.21
-4.58
1.70
6.63
8.10
6.03
2.31
-0.35
-0.06
3.14
7.36
10.01
9.37
5.60
0.77
-2.51
-2.56
0.36
4.23
6.47
5.56
1.89
-2.48
-5.05
-4.42
-1.05
2.92
5.02
3.90
0.18
-3.93
-5.98
-4.73
-0.90
3.29
5.44
4.47
1.14
-2.45
-4.21
-3.28
-0.61
1.70
1.68
-1.30
-6.01
-9.97
-10.74
-7.43
-1.34
4.60
7.41
5.80
0.87
-4.47
-7.21
-5.88
-1.33
3.92
7.16
6.98
3.91
0.01
-2.40
-2.04
0.59
3.59
4.65
2.48
-2.33
-7.48
-10.14
-8.64
-3.54
2.47
6.15
5.59
1.44
-3.59
-6.39
-5.43
-1.53
2.62
4.30
2.39
-2.03
-6.39
-8.18
-6.35
-1.90
2.80
5.24
4.20
0.45
-3.70
-5.54
-3.53
1.76
7.80
11.54
11.20
7.33
2.60
0.04
1.23
5.32
9.55
11.08
8.59
3.22
-2.33
-5.31
-4.57
-1.08
2.67
4.17
2.36
-1.77
-5.85
-7.49
-5.68
-1.43
2.90
4.81
3.20
-1.03
-5.38
-7.31
-5.74
-1.64
2.39
3.84
1.79
-2.54
-6.43
-7.28
-4.22
1.37
6.60
8.62
6.29
0.81
-4.86
-7.61
-6.00
-0.98
4.54
7.46
6.20
1.65
-3.47
-6.15
-4.97
-0.91
3.32
4.96
2.94
-1.54
-5.68
-6.90
-4.34
0.65
5.32
7.12
5.16
0.71
-3.65
-5.40
-3.70
0.24
3.83
4.69
2.09
-2.63
-6.82
-8.17
-6.02
-1.72
2.21
3.62
1.91
-1.61
-4.59
-4.97
-2.22
2.34
6.28
7.44
5.19
0.78
-3.25
-4.57
-2.32
2.45
7.29
9.82
8.95
5.52
1.66
-0.40
0.33
3.10
5.87
6.69
4.85
1.41
-1.53
-2.17
-0.16
3.05
5.07
4.17
0.38
-4.32
-7.20
-6.41
-2.15
3.50
7.72
8.61
6.12
1.94
-1.47
-2.40
-0.77
1.82
3.12
1.56
-2.67
-7.64
-10.75
-10.27
-6.34
-1.03
2.84
3.27
0.16
-4.64
-8.47
-9.30
-6.86
-2.61
1.08
2.32
0.75
-2.33
-4.71
-4.57
-1.58
2.86
6.31
6.79
3.95
-0.70
-4.56
-5.52
-3.23
0.76
3.85
4.00
0.95
-3.55
-6.91
-7.16
-4.12
0.52
4.22
5.03
2.68
-1.29
-4.47
-4.91
-2.25
2.05
5.54
6.24
3.81
-0.18
-3.20
-3.29
-0.24
4.30
7.72
7.96
4.71
-0.41
-4.76
-6.04
-3.77
0.63
4.54
5.73
3.60
-0.47
-3.98
-4.83
-2.49
1.61
5.01
5.54
2.70
-2.04
-6.03
-7.02
-4.51
-0.05
3.60
4.21
1.35
-3.33
-7.05
-7.50
-4.28
0.79
4.79
5.43
2.57
-1.66
-4.27
-3.26
0.97
5.82
8.17
6.39
1.30
-4.24
-7.00
-5.33
-0.05
5.97
9.46
8.58
4.01
-1.49
-4.64
-3.50
1.37
7.30
10.86
10.00
5.11
-1.11
-5.29
-5.27
-1.39
3.77
6.98
6.33
2.33
-2.43
-5.05
-4.00
-0.13
3.98
5.48
3.04
-2.36
-7.95
-10.73
-9.23
-4.34
1.23
4.54
4.06
0.46
-3.93
-6.51
-5.86
-2.52
1.41
3.50
2.46
-1.15
-5.23
-7.33
-6.10
-1.97
3.01
6.40
6.55
3.61
-0.56
-3.41
-3.13
0.25
4.91
8.24
8.39
5.21
0.47
-3.30
-4.19
-2.13
1.12
3.11
2.17
-1.44
-5.72
-8.14
-7.22
-3.37
1.28
4.13
3.61
0.06
-4.51
-7.60
-7.61
-4.77
-0.92
1.70
1.71
-0.55
-3.32
-4.40
-2.60
1.53
5.92
8.06
6.58
2.01
-3.30
-6.53
-5.93
-1.88
3.38
7.06
7.45
4.82
1.19
-1.06
-0.64
1.85
4.40
4.85
2.30
-2.37
-6.92
-9.10
-7.89
-4.05
0.32
2.93
2.57
-0.27
-3.72
-5.55
-4.52
-1.02
3.07
5.42
4.69
1.29
-2.72
-4.92
-3.89
-0.18
4.01
6.18
4.99
1.05
-3.41
-5.93
-5.23
-1.92
1.87
3.78
2.67
-0.74
-4.24
-5.53
-3.51
0.90
5.35
7.30
5.53
0.84
-4.35
-7.29
-6.50
-2.55
2.19
5.02
4.48
1.25
-2.29
-3.57
-1.38
3.28
7.86
9.75
7.93
3.58
-0.61
-2.11
-0.09
4.04
7.55
7.95
4.64
-0.79
-5.40
-6.66
-3.89
1.28
5.85
7.12
4.33
-0.95
-5.53
-6.51
-3.05
3.09
8.47
10.00
6.70
0.26
-5.88
-8.60
-6.78
-1.91
2.87
4.59
2.13
-3.17
-8.24
-10.08
-7.59
-2.10
3.34
5.73
3.96
-0.60
-4.97
-6.27
-3.54
1.72
6.43
7.75
4.78
-0.96
-6.40
-8.70
-6.81
-2.01
2.88
5.22
3.98
0.24
-3.50
-4.82
-2.76
1.61
5.80
7.43
5.49
1.01
-3.52
-5.55
-3.95
0.30
4.73
6.75
5.20
1.01
-3.42
-5.54
-4.26
-0.56
3.08
4.24
2.03
-2.34
-6.25
-7.26
-4.62
0.35
4.87
6.45
4.18
-0.73
-5.59
-7.77
-6.06
-1.40
3.63
6.36
5.48
1.80
-2.31
-4.30
-3.01
0.68
4.40
5.75
3.76
-0.52
-4.62
-6.16
-4.24
-0.01
3.91
5.09
2.60
-2.27
-6.79
-8.32
-5.87
-0.74
4.18
6.02
3.70
-1.39
-6.20
-7.85
-5.34
-0.13
4.80
6.75
4.86
0.46
-3.80
-5.49
-3.73
0.43
4.72
6.90
6.02
2.97
-0.11
-1.02
1.11
5.32
9.17
10.30
7.73
2.59
-2.50
-4.88
-3.41
0.90
5.46
7.48
5.60
0.56
-5.18
-8.82
-8.73
-5.38
-1.01
1.70
1.24
-1.89
-5.55
-7.40
-6.32
-3.12
0.22
1.78
1.05
-0.96
-2.37
-1.73
1.13
4.97
7.85
8.23
5.75
1.60
-2.20
-3.75
-2.37
0.94
4.05
4.92
2.87
-0.94
-4.14
-4.61
-1.85
2.67
6.28
6.74
3.57
-1.59
-5.92
-7.01
-4.19
0.95
5.55
6.98
4.40
-0.77
-5.63
-7.55
-5.62
-1.23
2.78
3.85
1.19
-3.77
-8.31
-9.93
-7.79
-3.03
1.85
4.48
3.86
0.86
-2.33
-3.50
-1.68
2.22
5.93
7.16
5.05
0.75
-3.15
-4.28
-1.89
2.60
6.47
7.37
4.72
-0.03
-4.28
-5.86
-4.18
-0.53
2.77
3.67
1.61
-2.30
-5.81
-6.94
-5.15
-1.63
1.38
1.89
-0.52
-4.53
-7.75
-8.23
-5.62
-1.44
1.85
2.32
-0.28
-4.25
-6.92
-6.21
-1.82
4.45
9.60
11.12
8.36
2.99
-1.95
-3.73
-1.47
3.36
7.82
9.19
6.57
1.30
-3.81
-5.98
-4.16
0.51
5.29
7.39
5.59
0.97
-3.67
-5.53
-3.44
1.24
5.49
6.42
3.17
-2.51
-7.27
-8.27
-5.01
0.40
4.52
4.78
1.03
-4.41
-8.25
-8.23
-4.45
0.82
4.56
4.76
1.51
-3.17
-6.65
-7.07
-4.30
0.14
4.11
5.84
4.89
2.18
-0.48
-1.41
0.09
3.29
6.39
7.50
5.75
2.01
-1.48
-2.42
0.04
4.58
8.30
8.53
4.49
-1.95
-7.42
-9.00
-6.10
-0.69
3.96
5.35
3.18
-0.62
-3.26
-2.97
0.05
3.90
6.22
5.66
2.55
-1.44
-4.28
-4.55
-2.20
1.55
4.79
5.78
3.92
0.03
-3.90
-5.77
-4.51
-0.85
3.03
4.62
2.67
-1.92
-6.54
-8.38
-6.27
-1.47
3.08
4.61
2.32
-2.13
-5.64
-5.71
-2.02
3.42
7.49
7.89
4.51
-0.58
-4.43
-4.98
-2.25
1.73
4.28
3.60
-0.06
-4.62
-7.34
-6.54
-2.53
2.52
5.88
5.86
2.65
-1.79
-4.99
-5.35
-2.91
0.74
3.47
3.76
1.54
-1.89
-4.44
-4.46
-1.63
2.70
6.21
6.90
4.30
-0.07
-3.60
-4.14
-1.37
2.89
5.91
5.73
2.40
-2.01
-4.83
-4.47
-1.31
2.57
4.78
4.02
0.67
-3.47
-6.26
-6.41
-4.05
-0.59
2.03
2.29
-0.06
-3.78
-6.74
-7.03
-4.18
0.46
4.29
5.07
2.27
-2.45
-6.22
-6.74
-3.70
1.07
4.74
5.22
2.43
-1.79
-4.77
-4.65
-1.32
3.54
7.45
8.45
6.13
1.79
-2.20
-3.70
-1.96
1.85
5.31
6.17
3.77
-0.43
-3.68
-3.80
-0.55
4.02
6.80
5.63
0.73
-5.37
-9.37
-9.12
-4.94
0.71
4.72
5.12
2.12
-2.19
-5.08
-4.76
-1.28
3.54
7.11
7.50
4.50
-0.28
-4.26
-5.38
-3.22
0.71
3.87
4.25
1.67
-2.20
-4.82
-4.41
-1.07
3.33
6.27
6.12
3.10
-0.85
-3.24
-2.53
1.02
5.37
7.97
7.17
3.29
-1.55
-4.65
-4.36
-0.98
3.33
5.88
5.01
1.04
-3.92
-7.29
-7.48
-4.77
-1.07
1.28
0.85
-1.95
-5.21
-6.62
-4.91
-0.75
3.55
5.39
3.44
-1.41
-6.51
-8.96
-7.35
-2.55
2.87
6.19
6.01
2.93
-0.95
-3.27
-2.65
0.72
5.31
8.97
10.01
7.99
3.92
-0.25
-2.54
-2.13
0.19
2.45
2.72
0.44
-3.13
-5.71
-5.50
-2.46
1.49
3.78
2.77
-1.06
-5.37
-7.36
-5.49
-0.42
5.32
8.75
8.10
3.77
-1.90
-6.00
-6.51
-3.52
0.96
4.10
3.98
0.64
-3.86
-6.80
-6.41
-2.95
1.49
4.24
3.74
0.35
-3.93
-6.73
-6.66
-4.01
-0.46
2.02
2.27
0.48
-1.96
-3.28
-2.39
0.50
3.87
5.68
4.58
0.85
-3.61
-6.31
-5.59
-1.79
2.92
5.76
4.96
0.96
-3.89
-6.73
-5.87
-1.82
3.06
5.96
5.30
1.61
-2.83
-5.32
-4.32
-0.32
4.36
6.94
5.78
1.37
-3.88
-7.05
-6.38
-2.41
2.40
5.18
4.29
0.39
-4.11
-6.44
-5.13
-0.76
4.43
7.80
7.72
4.53
0.18
-2.78
-2.68
0.33
4.38
6.93
6.33
2.85
-1.37
-3.69
-2.62
1.09
4.90
6.08
3.47
-1.72
-6.63
-8.42
-5.92
-0.23
6.06
10.28
10.99
8.51
4.49
0.92
-0.77
-0.28
1.63
3.55
4.15
2.95
0.59
-1.53
-2.18
-1.26
-0.00
-0.26
-3.16
-8.12
-12.80
-14.39
-11.37
-4.65
2.73
7.25
6.95
2.56
-3.00
-6.40
-5.85
-2.05
2.43
4.82
3.80
0.23
-3.52
-5.11
-3.67
-0.29
2.75
3.47
1.40
-2.12
-4.83
-4.93
-2.15
2.19
5.85
6.98
5.04
0.97
-3.26
-5.68
-5.20
-2.05
2.30
5.89
7.11
5.58
2.35
-0.60
-1.47
0.31
3.55
5.98
5.70
2.39
-2.31
-5.78
-6.07
-3.21
0.81
3.26
2.43
-1.24
-5.45
-7.47
-5.84
-1.17
4.21
7.71
7.82
4.91
0.78
-2.27
-2.76
-0.65
2.53
4.64
4.03
0.61
-4.07
-7.59
-8.08
-5.32
-0.99
2.30
2.67
0.13
-3.30
-5.00
-3.45
0.69
4.78
6.03
3.31
-2.04
-6.90
-8.29
-5.28
0.49
5.75
7.61
5.29
0.43
-3.94
-5.29
-3.07
1.08
4.47
4.99
2.23
-2.36
-6.38
-7.90
-6.32
-2.65
1.16
3.18
2.51
-0.31
-3.58
-5.29
-4.16
-0.37
4.35
7.54
7.38
3.73
-1.59
-5.66
-6.16
-2.78
2.55
6.64
7.06
3.64
-1.38
-4.75
-4.28
-0.30
4.60
7.15
5.59
0.82
-4.18
-6.29
-4.13
1.07
6.40
9.08
8.00
4.28
0.30
-1.76
-1.14
1.26
3.58
4.12
2.25
-1.35
-5.00
-6.93
-6.11
-2.95
0.96
3.46
3.00
-0.36
-4.79
-7.57
-6.64
-2.00
4.18
8.59
8.84
4.91
-0.78
-4.80
-4.82
-1.05
4.00
7.12
6.36
2.17
-3.04
-6.41
-6.29
-3.01
1.44
4.67
5.12
2.82
-0.78
-3.63
-4.13
-2.11
1.12
3.36
2.92
-0.29
-4.47
-6.87
-5.60
-1.00
4.36
7.15
5.43
-0.03
-6.12
-9.29
-7.70
-2.33
3.79
7.41
7.01
3.39
-1.04
-3.89
-4.14
-2.43
-0.49
0.12
-1.14
-3.52
-5.43
-5.41
-2.96
1.00
4.52
5.57
3.26
-1.50
-6.31
-8.52
-6.71
-1.67
4.06
7.57
7.23
3.60
-0.98
-3.89
-3.69
-0.92
2.38
3.96
2.68
-0.86
-4.69
-6.60
-5.35
-1.43
3.16
5.97
5.44
1.90
-2.61
-5.45
-4.90
-1.23
3.42
6.33
5.76
2.00
-2.80
-5.96
-5.73
-2.26
2.55
6.10
6.55
3.80
-0.51
-3.94
-4.64
-2.38
1.31
4.07
4.14
1.50
-2.14
-4.35
-3.54
0.16
4.86
8.10
8.27
5.52
1.64
-1.08
-1.13
1.32
4.48
6.15
4.93
1.23
-2.91
-5.04
-3.80
0.07
4.16
5.76
3.62
-1.28
-6.25
-8.53
-6.93
-2.53
2.11
4.39
3.25
-0.37
-4.10
-5.49
-3.40
1.39
6.52
9.35
8.41
4.32
-0.51
-3.20
-2.14
2.01
6.62
8.67
6.61
1.22
-4.77
-8.32
-7.86
-4.12
0.32
2.56
1.09
-3.34
-8.17
-10.52
-8.85
-3.91
1.72
5.06
4.53
0.85
-3.48
-5.74
-4.72
-1.40
1.78
2.53
0.20
-3.85
-7.14
-7.60
-4.74
0.09
4.52
6.39
4.96
1.25
-2.46
-3.91
-2.14
1.93
5.91
7.34
5.20
0.54
-3.96
-5.63
-3.41
1.48
6.29
8.20
6.07
0.99
-4.39
-7.28
-6.37
-2.41
2.16
4.63
3.53
-0.50
-5.10
-7.49
-6.13
-1.62
3.67
6.91
6.53
3.09
-1.10
-3.39
-2.32
1.51
5.87
8.16
6.92
2.63
-2.52
-5.88
-5.83
-2.68
1.48
4.05
3.47
0.16
-3.74
-5.68
-4.25
-0.05
4.71
7.46
6.75
3.00
-1.72
-4.91
-4.96
-2.09
1.78
4.14
3.26
-0.68
-5.56
-8.51
-7.53
-2.80
3.26
7.38
7.34
3.37
-1.99
-5.49
-5.14
-1.37
3.24
5.69
4.40
0.20
-4.30
-6.43
-5.01
-1.11
2.75
4.16
2.31
-1.65
-5.30
-6.40
-4.12
0.59
5.44
8.10
7.32
3.60
-1.06
-4.21
-4.25
-1.32
2.76
5.49
5.26
2.27
-1.45
-3.42
-2.25
1.46
5.36
6.90
4.89
0.25
-4.46
-6.60
-5.00
-0.66
3.90
5.97
4.37
-0.06
-4.89
-7.49
-6.52
-2.58
2.17
5.24
5.23
2.56
-0.81
-2.58
-1.53
1.87
5.61
7.43
6.09
2.17
-2.21
-4.62
-3.68
0.12
4.64
7.30
6.51
2.65
-2.22
-5.42
-5.26
-1.95
2.50
5.42
5.05
1.50
-3.28
-6.68
-7.00
-4.37
-0.66
1.64
0.98
-2.34
-6.33
-8.51
-7.45
-3.66
0.62
2.81
1.46
-2.81
-7.59
-10.09
-8.68
-3.82
2.17
6.36
6.88
3.90
-0.55
-3.73
-3.77
-0.65
3.79
7.06
7.40
4.85
1.10
-1.42
-1.09
1.94
5.80
7.92
6.70
2.44
-2.71
-5.98
-5.63
-1.97
2.77
5.85
5.59
2.39
-1.64
-3.99
-3.34
-0.41
2.60
3.34
0.84
-3.88
-8.35
-10.08
-8.02
-3.20
1.85
4.51
3.44
-0.56
-5.16
-7.68
-6.64
-2.53
2.48
5.76
5.77
2.91
-0.66
-2.42
-0.88
3.36
8.02
10.40
9.08
4.72
-0.36
-3.50
-3.31
-0.43
2.90
4.22
2.31
-2.09
-6.74
-9.15
-8.04
-4.06
0.53
3.16
2.39
-1.29
-5.72
-8.31
-7.49
-3.60
1.34
4.80
5.25
2.98
-0.17
-1.99
-1.29
1.50
4.72
6.43
5.67
2.88
-0.33
-2.15
-1.58
0.97
3.82
4.98
3.33
-0.65
-5.10
-7.75
-7.32
-4.28
-0.58
1.51
0.74
-2.40
-5.89
-7.47
-5.96
-2.05
2.08
3.96
2.33
-2.05
-6.79
-9.19
-7.79
-3.33
1.70
4.52
3.62
-0.36
-5.05
-7.75
-7.00
-3.24
1.47
4.69
4.93
2.27
-1.67
-4.67
-4.92
-1.95
3.03
7.77
10.11
9.26
6.32
3.74
3.74
6.83
11.34
14.43
14.13
10.68
6.38
4.06
5.05
8.31
11.17
11.23
8.01
3.26
-0.23
-0.47
2.51
6.72
9.41
8.65
4.36
-1.79
-7.20
-9.73
-8.74
-5.27
-1.51
0.34
-0.71
-3.86
-7.10
-8.29
-6.46
-2.47
1.50
3.08
1.14
-3.64
-8.93
-12.13
-11.68
-8.06
-3.50
-0.84
-1.81
-6.05
-11.21
-14.43
-13.99
-10.40
-6.04
-3.57
-4.30
-7.46
-10.74
-12.02
-10.61
-7.69
-5.44
-5.69
-8.82
-13.67
-18.29
-21.06
-21.52
-20.55
-19.86
-21.13
-25.05
-31.00
-37.25
-41.82
-43.66
-43.34
-43.05
-45.45
-52.17
-62.74
-74.61
-84.57
-90.58
-93.13
-94.90
-99.31
-108.25
-121.12
-134.96
-146.31
-153.21
-156.28
-158.29
-162.48
-170.42
-180.68
-188.79
-188.81
-175.58
-147.16
-105.48
-55.91
-4.97
41.91
81.84
114.17
138.77
154.76
160.82
157.14
146.79
135.16
126.64
120.95
111.91
90.25
49.37
-9.58
-76.58
-136.96
-177.88
-193.63
-186.71
-164.77
-136.39
-108.10
-83.80
-65.87
-56.04
-54.63
-59.50
-66.01
-68.36
-62.49
-47.46
-25.74
-1.35
22.05
43.00
61.73
79.06
95.22
108.63
117.06
118.84
114.14
105.33
96.40
91.40
93.10
102.79
119.88
143.60
173.60
210.01
253.04
302.76
358.89
418.24
477.46
532.31
578.64
611.93
627.57
621.47
591.22
536.77
460.42
372.61
280.12
188.04
100.53
21.57
-45.13
-96.38
-130.24
-146.34
-148.91
-142.43
-130.84
-117.66
-105.92
-98.15
-96.45
-102.46
-114.47
-132.14
-155.59
-184.16
-216.15
-248.93
-279.37
-304.48
-321.66
-329.28
-326.42
-312.57
-287.42
-251.10
-204.84
-151.29
-94.58
-39.59
8.98
47.46
74.36
90.52
98.58
101.62
102.05
100.76
97.48
91.29
81.53
68.82
55.33
43.96
37.13
35.58
37.82
40.93
41.67
37.12
25.59
6.95
-16.99
-42.49
-62.90
-72.11
-65.06
-40.69
-3.86
35.01
63.71
73.33
61.83
35.06
3.74
-21.18
-33.19
-30.62
-17.05
2.11
23.07
43.88
63.64
80.62
92.00
94.75
87.59
72.60
53.31
34.28
18.57
6.67
-3.66
-16.17
-34.75
-61.96
-98.07
-140.27
-180.17
-209.45
-220.80
-210.59
-180.73
-138.47
-93.96
-56.42
-30.86
-16.85
-10.61
-7.45
-4.43
-1.26
0.80
0.74
-0.98
-2.62
-2.19
0.93
5.97
11.16
14.50
14.99
12.96
9.81
7.21
6.39
7.45
9.61
11.52
11.96
10.42
7.19
3.19
-0.54
-3.31
-5.10
-6.35
-7.86
-10.36
-14.15
-19.09
-24.72
-30.55
-36.22
-42.13
-48.38
-55.29
-63.11
-71.97
-81.80
-92.36
-103.32
-114.34
-124.97
-134.66
-142.90
-149.01
-152.16
-151.51
-146.35
-136.24
-121.55
-102.70
-80.52
-56.41
-32.15
-9.72
9.01
22.49
29.58
29.82
23.42
11.18
-5.65
-25.48
-46.56
-67.14
-85.65
-100.82
-111.78
-118.05
-119.55
-116.62
-109.77
-99.74
-87.26
-73.09
-57.88
-42.21
-26.50
-11.11
3.69
17.76
31.04
43.58
55.58
67.34
79.26
91.80
105.47
120.74
137.92
157.03
177.73
199.16
220.06
238.73
253.26
261.60
261.80
252.15
231.51
199.42
156.38
103.83
44.25
-19.14
-82.71
-142.91
-196.67
-241.72
-276.69
-301.10
-315.12
-319.40
-315.05
-303.32
-285.63
-263.51
-238.63
-212.64
-187.07
-162.96
-140.74
-120.17
-100.42
-80.52
-59.71
-37.71
-14.71
8.79
32.29
55.58
78.77
102.36
127.14
154.16
184.51
218.78
256.29
294.40
328.59
353.49
364.73
360.66
342.99
316.08
285.11
254.20
225.58
199.96
177.51
158.76
144.47
134.80
128.47
122.80
114.64
101.93
84.70
64.98
45.81
29.81
18.28
11.03
7.06
5.25
4.66
4.55
4.15
2.67
-0.45
-5.02
-10.02
-13.84
-15.10
-13.53
-10.38
-8.14
-9.37
-15.48
-25.88
-38.04
-48.47
-54.26
-54.40
-50.03
-43.83
-38.45
-35.22
-33.52
-31.44
-27.04
-19.82
-11.20
-4.06
-1.35
-4.45
-12.32
-21.69
-28.65
-30.47
-27.05
-20.94
-15.82
-14.46
-17.11
-21.45
-23.90
-21.69
-14.35
-3.90
6.14
12.18
11.63
3.47
-11.62
-31.17
-51.10
-66.45
-72.64
-67.24
-50.98
-27.68
-2.92
17.72
30.29
33.16
26.90
13.84
-2.50
-18.05
-29.00
-32.75
-28.84
-19.00
-6.37
5.87
15.84
23.20
28.72
33.28
37.01
39.23
38.78
34.78
27.16
16.72
4.94
-6.61
-16.70
-24.85
-31.30
-36.66
-41.31
-44.92
-46.55
-45.23
-40.77
-34.18
-27.34
-21.89
-18.32
-15.63
-12.14
-6.81
-0.25
5.36
7.45
4.71
-1.82
-9.09
-13.49
-12.73
-6.95
1.32
8.58
12.00
10.76
6.13
0.71
-3.07
-4.01
-2.56
-0.25
1.25
1.14
-0.24
-1.71
-2.27
-1.76
-1.12
-1.84
-4.91
-9.96
-15.15
-17.98
-16.67
-11.34
-3.97
2.54
5.98
5.98
3.98
2.22
2.35
4.52
7.49
9.51
9.33
6.79
2.69
-1.53
-4.54
-5.45
-4.15
-1.25
2.08
4.63
5.68
5.27
4.09
2.96
2.23
1.63
0.49
-1.54
-4.06
-5.93
-5.91
-3.49
0.58
4.54
6.46
5.38
1.93
-1.86
-3.68
-2.38
1.29
4.90
5.78
2.72
-3.06
-8.35
-9.69
-5.44
3.04
12.04
17.34
16.50
10.06
1.17
-6.18
-9.15
-7.29
-2.20
3.71
8.69
12.12
13.96
13.61
9.22
-1.64
-20.29
-45.02
-70.51
-89.29
-94.59
-83.60
-58.95
-27.79
1.20
21.33
30.17
29.64
24.06
17.70
12.86
9.57
6.74
3.63
0.80
-0.12
2.39
8.48
16.29
22.44
23.58
18.14
7.53
-3.99
-10.93
-8.87
3.48
23.73
47.23
69.49
88.21
103.79
117.83
130.70
139.85
140.38
128.06
102.86
70.93
43.10
30.75
40.92
73.17
119.76
168.85
208.85
231.64
233.89
216.52
183.47
140.71
95.44
54.96
25.18
8.85
4.03
4.89
3.45
-7.61
-32.72
-72.30
-123.44
-181.44
-241.18
-298.11
-348.27
-388.70
-417.64
-435.23
-442.61
-441.38
-432.85
-417.53
-395.11
-365.01
-327.27
-283.11
-234.90
-185.57
-137.79
-93.15
-51.73
-12.22
27.58
69.79
115.28
162.69
208.23
246.46
272.14
282.47
278.31
263.75
244.14
223.77
204.53
185.98
166.59
144.84
119.90
91.65
60.73
28.82
-0.98
-24.48
-38.09
-41.13
-36.94
-31.97
-32.40
-40.43
-52.66
-61.81
-60.98
-47.96
-26.58
-4.36
11.84
19.38
20.42
19.36
19.35
20.44
20.42
17.68
13.44
11.79
17.25
31.52
51.75
71.48
83.64
83.95
72.79
54.44
34.82
18.83
8.78
4.12
2.65
1.96
0.41
-2.25
-5.31
-7.77
-8.91
-8.72
-7.90
-7.41
-8.00
-9.71
-11.83
-13.18
-12.82
-10.64
-7.66
-5.56
-5.72
-8.33
-12.14
-14.96
-14.90
-11.54
-6.22
-1.42
0.64
-0.76
-4.42
-7.85
-8.70
-6.08
-1.14
3.47
5.03
2.36
-3.43
-9.49
-12.80
-11.88
-7.64
-2.81
-0.29
-1.45
-5.41
-9.61
-11.38
-9.56
-5.15
-0.57
1.66
0.51
-3.04
-6.53
-7.50
-4.90
0.22
5.35
7.85
6.48
2.09
-2.82
-5.72
-5.41
-2.60
0.60
2.02
0.78
-2.24
-4.98
-5.52
-3.23
0.74
4.11
4.80
2.14
-2.62
-7.03
-8.82
-7.19
-3.39
0.09
1.00
-1.35
-5.69
-9.48
-10.41
-7.71
-2.64
2.29
4.59
3.26
-0.77
-5.02
-6.96
-5.39
-1.19
3.19
5.15
3.53
-0.69
-4.90
-6.42
-4.14
0.76
5.45
7.14
4.72
-0.54
-5.70
-7.83
-5.63
-0.20
5.52
8.45
7.12
2.52
-2.49
-4.89
-3.28
1.25
5.88
7.72
5.61
0.74
-4.15
-6.44
-5.12
-1.30
2.58
4.17
2.58
-1.27
-5.23
-7.19
-6.25
-3.12
0.24
1.77
0.61
-2.47
-5.35
-5.97
-3.52
0.95
5.17
6.98
5.66
2.30
-0.81
-1.60
0.58
4.58
8.10
8.98
6.38
1.30
-3.87
-6.67
-5.89
-2.29
1.88
4.06
2.96
-0.75
-4.83
-6.78
-5.43
-1.59
2.41
4.09
2.28
-2.25
-7.23
-10.24
-9.94
-6.72
-2.47
0.54
0.82
-1.53
-4.90
-7.02
-6.32
-2.85
1.63
4.74
4.88
2.24
-1.29
-3.30
-2.33
1.20
5.32
7.68
7.12
4.19
0.86
-0.79
0.19
3.09
5.92
6.65
4.35
-0.15
-4.71
-7.02
-5.91
-2.08
2.27
4.65
3.71
-0.00
-4.35
-6.83
-6.03
-2.39
2.01
4.65
4.10
0.82
-3.09
-5.14
-4.00
-0.39
3.38
4.75
2.60
-2.03
-6.45
-7.92
-5.33
0.04
5.27
7.46
5.44
0.46
-4.61
-6.85
-4.95
0.03
5.31
7.90
6.35
1.62
-3.48
-5.90
-4.19
0.69
5.95
8.53
7.07
2.52
-2.38
-4.81
-3.49
0.66
5.03
6.94
5.06
0.25
-5.01
-7.96
-7.10
-3.01
1.96
4.96
4.46
1.04
-2.85
-4.54
-2.77
1.52
5.82
7.57
5.69
1.24
-3.36
-5.60
-4.43
-0.67
3.37
5.16
3.35
-1.39
-6.71
-9.77
-8.81
-4.33
1.03
3.98
2.46
-2.85
-8.90
-11.95
-10.00
-3.93
2.92
6.89
6.17
1.77
-3.19
-5.54
-3.98
0.29
4.52
6.09
4.13
-0.02
-3.66
-4.26
-0.99
4.77
10.06
11.90
8.92
2.33
-4.63
-8.42
-7.08
-1.55
4.84
8.23
6.55
0.82
-5.48
-8.47
-6.35
-0.32
6.08
9.24
7.62
2.45
-3.15
-6.12
-5.20
-1.54
2.30
3.74
1.79
-2.60
-7.05
-9.05
-7.27
-2.35
3.37
6.98
6.55
2.39
-3.07
-6.49
-5.65
-0.90
4.95
8.28
6.93
1.65
-4.30
-7.20
-5.16
0.72
7.07
10.25
8.44
2.53
-4.49
-9.23
-9.71
-6.17
-0.76
3.56
4.63
2.14
-2.18
-5.61
-5.93
-2.89
1.56
4.37
3.33
-1.34
-6.90
-9.68
-7.47
-0.98
6.32
10.35
8.91
3.00
-3.85
-7.77
-6.81
-2.01
3.50
6.47
5.43
1.37
-3.08
-5.31
-4.16
-0.49
3.56
5.71
4.77
1.18
-3.25
-6.28
-6.46
-3.94
-0.49
1.55
0.69
-2.67
-6.16
-6.85
-3.17
3.90
11.11
14.73
12.83
6.52
-0.72
-5.04
-4.45
0.09
5.46
8.25
6.75
1.71
-4.17
-7.89
-7.67
-3.85
1.47
5.50
6.21
3.37
-1.27
-4.90
-5.30
-2.21
2.31
5.10
3.84
-1.27
-7.39
-10.64
-8.60
-1.97
5.72
10.08
8.58
2.05
-5.82
-10.64
-9.84
-4.09
3.26
8.04
7.68
2.47
-4.62
-9.61
-9.65
-4.59
2.83
8.49
9.20
4.46
-3.06
-9.04
-10.17
-6.22
-0.18
3.59
2.25
-3.58
-10.10
-12.71
-9.02
-0.51
8.29
12.49
9.95
2.53
-5.13
-8.44
-5.53
1.78
9.33
13.15
11.70
6.63
1.43
-0.66
1.36
5.90
9.82
10.44
7.07
1.31
-3.92
-6.11
-4.52
-0.45
3.57
5.27
3.84
0.26
-3.33
-5.01
-3.99
-1.00
2.21
3.79
2.70
-0.74
-5.06
-8.27
-8.85
-6.53
-2.58
0.76
1.32
-1.60
-6.79
-11.45
-12.70
-9.29
-2.54
4.18
7.41
5.61
0.32
-4.85
-6.39
-3.13
2.98
8.15
9.28
5.96
0.76
-2.53
-1.44
3.61
9.55
12.60
10.64
4.44
-2.89
-7.68
-7.78
-3.65
2.02
5.92
5.75
1.51
-4.53
-9.07
-9.50
-5.40
1.10
6.39
7.51
3.79
-2.53
-7.77
-8.90
-5.39
0.47
5.10
5.86
2.59
-2.31
-5.49
-4.65
0.06
6.22
10.49
10.58
6.50
0.46
-4.37
-5.71
-3.34
0.76
3.81
3.78
0.68
-3.48
-5.88
-4.75
-0.37
4.94
8.07
7.01
1.95
-4.66
-9.55
-10.44
-7.34
-2.51
0.92
0.83
-2.57
-6.84
-8.88
-6.82
-1.29
4.99
8.82
8.37
4.21
-1.12
-4.58
-4.37
-0.82
3.88
7.00
6.77
3.39
-1.15
-4.13
-3.76
-0.18
4.46
7.32
6.55
2.44
-2.68
-5.84
-5.16
-1.06
3.94
6.77
5.49
0.52
-5.59
-9.63
-9.44
-5.19
0.72
4.97
5.21
1.42
-4.08
-7.92
-7.64
-3.12
3.27
8.03
8.50
4.42
-1.88
-6.80
-7.49
-3.38
3.28
8.74
9.85
5.88
-0.84
-6.31
-7.14
-2.65
4.64
10.47
11.48
7.24
0.49
-4.60
-5.00
-0.63
5.73
10.25
10.33
6.01
-0.28
-5.19
-6.45
-3.98
0.17
3.01
2.31
-2.14
-8.33
-13.01
-13.64
-9.75
-3.44
1.95
3.68
1.24
-3.36
-6.81
-6.57
-2.51
3.14
6.97
6.64
2.31
-3.42
-6.93
-5.87
-0.51
6.22
10.57
10.07
5.03
-1.66
-6.23
-6.29
-2.11
3.67
7.61
7.60
3.93
-1.04
-4.33
-4.06
-0.40
4.53
7.81
7.31
2.92
-3.32
-8.10
-8.75
-4.85
1.43
6.33
6.85
2.59
-3.88
-8.52
-8.40
-3.51
3.15
7.50
6.90
1.75
-4.84
-8.89
-8.04
-2.82
3.73
7.78
6.91
1.34
-6.06
-11.47
-12.09
-7.73
-0.83
4.90
6.67
4.12
-0.49
-3.76
-3.33
0.70
5.84
8.87
7.80
3.08
-2.75
-6.64
-6.75
-3.40
1.37
4.97
5.66
3.29
-0.87
-4.73
-6.54
-5.61
-2.70
0.39
1.73
0.45
-2.66
-5.50
-5.73
-2.41
3.28
8.38
9.87
6.59
0.19
-5.67
-7.48
-4.10
2.39
7.98
9.18
5.26
-1.34
-6.55
-7.22
-3.11
3.10
7.50
7.43
3.05
-2.90
-6.80
-6.36
-1.86
3.97
7.66
6.77
1.38
-6.00
-11.64
-12.57
-8.18
-0.61
6.23
8.86
6.08
-0.29
-6.51
-9.17
-7.16
-2.22
2.36
3.93
2.31
-0.30
-0.84
2.34
8.24
13.79
15.71
12.57
5.69
-1.65
-6.00
-5.61
-1.11
4.86
9.17
9.56
5.70
-0.80
-7.08
-10.47
-9.68
-5.42
-0.26
2.89
2.30
-1.43
-5.69
-7.45
-5.23
-0.20
4.54
5.82
2.69
-2.95
-7.44
-7.74
-3.43
2.98
7.58
7.58
3.01
-3.33
-7.68
-7.53
-3.04
3.12
7.42
7.49
3.30
-2.94
-7.96
-9.25
-6.29
-0.65
4.71
7.13
5.57
1.25
-3.09
-4.72
-2.60
1.92
5.93
6.71
3.49
-1.88
-6.11
-6.47
-2.52
3.58
8.34
9.06
5.41
-0.49
-5.35
-6.63
-3.89
1.05
5.25
6.20
3.19
-2.33
-7.53
-9.73
-7.98
-3.52
0.78
2.16
-0.22
-4.80
-8.32
-7.97
-3.20
3.79
9.37
10.70
7.40
1.78
-2.66
-3.35
-0.14
4.82
8.42
8.41
4.67
-0.77
-4.96
-5.63
-2.54
2.42
6.30
6.69
3.18
-2.43
-7.08
-8.26
-5.46
-0.40
3.84
4.68
1.61
-3.58
-7.62
-7.78
-3.47
3.31
8.97
10.35
6.55
-0.49
-7.05
-9.69
-7.24
-1.41
4.25
6.46
4.06
-1.40
-6.61
-8.54
-6.13
-0.94
3.90
5.55
3.10
-1.89
-6.27
-7.27
-4.18
1.25
5.75
6.63
3.36
-2.03
-6.16
-6.35
-2.15
4.24
9.35
10.27
6.45
-0.01
-5.47
-6.82
-3.17
3.53
9.44
11.18
7.64
0.71
-5.79
-8.37
-5.84
0.08
5.83
8.13
5.92
0.66
-4.48
-6.67
-4.95
-0.77
3.02
3.86
0.97
-4.10
-8.47
-9.52
-6.45
-0.84
4.32
6.27
4.05
-0.94
-5.70
-7.42
-4.91
0.81
6.88
10.30
9.38
4.72
-1.21
-5.37
-5.88
-2.97
1.20
3.83
3.22
-0.34
-4.68
-7.17
-6.30
-2.55
1.76
4.05
2.86
-1.11
-5.57
-7.94
-6.86
-2.98
1.49
4.09
3.51
0.35
-3.12
-4.38
-2.11
2.97
8.33
11.00
9.28
3.81
-2.62
-6.63
-6.24
-1.98
3.32
6.30
5.13
0.70
-3.95
-5.62
-3.07
2.20
6.83
7.95
4.84
-0.50
-4.70
-5.10
-1.40
4.32
8.74
9.29
5.70
0.05
-4.37
-5.01
-1.58
3.76
7.65
7.44
2.84
-3.99
-9.60
-11.26
-8.41
-2.91
2.06
3.80
1.48
-3.44
-8.17
-10.00
-7.77
-2.46
3.20
6.16
4.81
-0.09
-5.68
-8.54
-6.74
-1.01
5.58
9.39
8.34
3.16
-3.04
-6.63
-5.54
-0.40
5.96
10.06
9.84
5.76
0.44
-2.94
-2.53
1.13
5.46
7.45
5.55
0.76
-3.97
-5.59
-2.86
2.73
7.91
9.51
6.40
0.10
-6.14
-9.17
-7.66
-2.77
2.59
5.39
4.07
-0.57
-5.79
-8.41
-6.68
-1.37
4.53
7.48
5.54
-0.33
-6.79
-10.04
-8.21
-2.44
3.77
6.74
4.84
-0.68
-6.50
-9.33
-7.69
-2.66
2.93
6.20
5.67
1.95
-2.73
-5.77
-5.58
-2.43
1.70
4.31
3.83
0.59
-3.27
-5.18
-3.71
0.49
5.00
7.18
5.77
1.65
-2.62
-4.43
-2.71
1.53
5.85
7.75
6.11
1.71
-3.26
-6.33
-6.07
-2.83
1.44
4.24
3.85
0.45
-3.94
-6.57
-5.63
-1.39
3.73
6.65
5.49
0.78
-4.74
-7.85
-6.82
-2.48
2.36
4.54
2.55
-2.72
-8.53
-11.97
-11.60
-8.24
-4.32
-2.42
-3.79
-7.66
-11.86
-14.03
-13.01
-9.41
-5.27
-2.96
-3.97
-8.17
-13.92
-18.99
-21.71
-21.80
-20.46
-19.61
-20.82
-24.43
-29.40
-33.86
-36.39
-36.83
-36.37
-36.84
-39.56
-44.56
-50.71
-56.54
-61.20
-64.92
-68.58
-72.63
-76.31
-77.60
-74.28
-65.27
-51.61
-36.29
-22.90
-13.84
-9.08
-5.94
-0.32
11.66
32.08
60.78
95.72
134.03
172.92
210.12
243.70
271.82
292.59
304.30
305.92
297.51
280.20
255.90
226.82
194.95
161.80
128.35
95.32
63.43
33.62
7.03
-15.31
-32.63
-44.75
-52.18
-56.10
-58.01
-59.39
-61.36
-64.38
-68.58
-73.64
-78.99
-83.80
-87.15
-88.13
-85.80
-79.46
-68.83
-54.13
-36.02
-15.79
5.02
24.73
41.62
54.32
61.97
64.01
60.09
50.27
34.94
14.95
-8.53
-34.10
-60.07
-84.76
-106.73
-125.06
-139.41
-150.00
-157.49
-162.67
-166.39
-168.82
-169.58
-167.84
-162.54
-152.65
-137.36
-116.29
-88.04
-53.15
-12.98
30.30
74.00
115.01
150.22
176.95
193.88
201.06
199.80
192.96
183.90
175.64
169.99
167.15
165.97
164.69
161.90
157.04
151.06
145.12
139.56
133.31
124.04
108.83
85.23
52.30
10.72
-35.83
-83.63
-128.96
-168.36
-198.74
-218.49
-228.91
-234.05
-239.32
-247.97
-259.77
-269.82
-270.54
-255.48
-223.70
-182.17
-143.06
-118.50
-113.85
-126.79
-148.13
-166.62
-173.52
-162.27
-132.79
-90.10
-47.56
-13.90
6.79
16.99
21.77
28.73
46.16
79.41
128.24
185.51
239.86
278.00
289.43
269.33
219.85
148.90
67.57
-11.19
-74.23
-109.66
-111.07
-80.43
-28.90
26.33
67.74
83.11
70.03
36.07
-4.37
-36.24
-48.82
-38.84
-10.68
25.34
55.86
68.49
55.69
17.81
-36.76
-93.59
-136.63
-153.44
-139.27
-98.59
-43.12
12.34
54.88
77.11
78.51
64.33
42.82
21.78
5.90
-4.32
-11.87
-21.05
-35.01
-53.98
-75.15
-94.06
-106.58
-110.23
-104.36
-89.50
-66.55
-36.79
-2.47
32.59
63.30
84.72
93.89
91.16
79.94
65.45
52.92
46.10
46.62
53.79
64.55
73.50
73.87
59.58
28.37
-15.74
-62.22
-97.02
-108.08
-90.88
-50.91
-1.59
41.44
66.81
71.29
59.29
39.13
18.49
1.68
-10.37
-18.47
-23.89
-28.12
-33.51
-43.62
-61.89
-89.59
-124.33
-159.71
-187.40
-200.18
-194.37
-170.79
-134.45
-92.90
-54.34
-26.08
-12.64
-14.82
-29.48
-50.37
-68.28
-74.63
-63.74
-34.30
10.18
63.34
118.08
168.33
210.03
241.17
260.85
268.82
267.12
256.83
239.19
215.85
188.74
159.95
131.42
104.56
79.98
57.94
38.23
20.67
5.45
-7.79
-19.96
-32.64
-47.75
-67.48
-93.06
-124.35
-159.19
-193.83
-224.03
-245.57
-255.31
-248.13
-221.56
-176.18
-115.92
-46.92
24.07
90.97
149.78
198.26
235.26
260.02
272.66
274.45
268.03
258.71
249.35
241.63
235.83
231.01
225.35
217.64
208.29
199.51
194.69
196.56
206.47
223.38
243.80
262.94
275.57
277.11
264.27
235.56
192.17
138.96
83.68
34.65
-2.52
-27.47
-45.22
-63.26
-87.46
-118.92
-153.27
-183.46
-203.74
-212.55
-212.49
-207.81
-201.34
-192.92
-180.28
-161.12
-135.29
-105.63
-76.84
-53.66
-39.02
-33.11
-33.90
-38.63
-45.47
-54.63
-68.70
-92.11
-129.76
-185.18
-258.52
-345.31
-436.12
-518.23
-579.02
-609.75
-608.24
-579.04
-531.69
-477.31
-425.33
-381.47
-346.93
-318.77
-290.98
-256.33
-209.14
-148.39
-79.92
-15.85
29.34
44.80
28.62
-10.80
-57.53
-93.94
-106.65
-89.62
-44.55
20.84
94.57
162.30
210.09
227.80
213.17
173.70
124.79
83.98
64.46
70.88
98.67
136.96
172.87
195.03
195.85
173.01
130.41
78.72
33.42
9.56
15.43
48.52
96.55
143.21
175.72
189.22
187.55
178.80
169.16
159.18
144.10
118.23
78.93
31.75
-13.89
-47.39
-61.01
-53.14
-28.39
4.57
36.56
60.92
75.09
79.95
76.69
68.38
59.64
54.88
56.00
61.95
70.17
78.84
87.28
95.49
102.94
107.91
107.81
100.78
87.26
70.12
53.60
41.24
34.55
32.79
33.54
33.79
31.27
25.40
17.36
9.32
3.24
0.02
-0.52
0.52
1.59
1.46
-0.29
-3.28
-6.54
-9.13
-10.57
-10.79
-10.17
-9.32
-8.82
-8.99
-9.82
-11.05
-12.32
-13.31
-13.85
-13.88
-13.46
-12.83
-12.28
-12.06
-12.35
-13.11
-14.19
-15.25
-15.99
-16.16
-15.79
-15.21
-14.85
-15.15
-16.23
-17.91
-19.60
-20.84
-21.36
-21.15
-20.53
-20.02
-20.03
-20.82
-22.58
-25.34
-28.81
-32.18
-34.01
-32.64
-26.96
-16.96
-4.12
9.17
20.45
28.31
32.64
34.51
35.22
35.64
35.76
35.01
32.83
29.04
24.11
18.87
14.16
10.47
7.88
6.17
4.92
3.92
3.25
3.10
3.70
5.01
6.62
7.91
8.35
7.71
6.17
4.26
2.53
1.34
0.76
0.66
0.83
1.07
1.28
1.43
1.44
1.33
1.15
1.11
1.37
1.95
2.47
2.48
1.69
0.32
-0.80
-0.76
0.52
2.06
2.29
0.13
-4.23
-9.41
-13.80
-16.58
-18.05
-19.07
-19.98
-20.08
-18.21
-13.83
-7.98
-3.10
-1.69
-4.71
-10.87
-17.41
-21.50
-21.95
-19.46
-15.79
-12.69
-11.29
-12.11
-15.00
-19.24
-23.34
-25.17
-22.48
-14.10
-0.70
15.14
29.89
40.71
46.39
47.88
47.10
45.90
45.05
44.32
43.18
41.54
40.09
39.66
40.84
43.44
46.71
49.65
51.48
52.06
51.81
51.53
51.33
51.12
50.26
47.91
43.25
35.94
26.20
14.46
2.23
-9.47
-19.85
-28.49
-35.32
-40.49
-44.18
-46.53
-47.65
-47.53
-46.36
-44.36
-41.84
-39.11
-36.47
-34.07
-31.99
-30.12
-28.35
-26.59
-24.82
-23.03
-21.26
-19.58
-17.99
-16.52
-15.14
-13.82
-12.57
-11.39
-10.29
-9.26
-8.31
-7.42
-6.62
-5.87
-5.18
-4.55
-3.97
-3.44
-2.96
-2.53
-2.13
-1.79
-1.48
-1.20
-0.96
-0.74
-0.56
-0.41
-0.28
-0.18
-0.10
-0.05
-0.01
0.01
0.03
0.03
0.03
0.03
0.02
0.02
0.02
0.02
0.02
0.02
0.02
0.02
0.02
0.02
0.02
0.02
0.02
0.02
0.03
0.03
0.03
0.03
0.03
0.03
0.03
0.03
0.03
0.03
0.03
0.03
0.03
0.03
0.03
0.03
0.04
0.05
0.05
0.04
0.01
-0.02
-0.02
0.03
0.15
0.33
0.54
0.72
0.83
0.85
0.79
0.73
0.73
0.84
1.07
1.38
1.67
1.87
1.94
1.88
1.79
1.78
1.95
2.32
2.83
3.32
3.63
3.69
3.52
3.34
3.45
4.06
5.24
6.78
8.29
9.35
9.70
9.45
9.08
9.23
10.43
12.81
15.97
19.12
21.41
22.30
21.92
21.08
20.91
22.38
25.82
30.74
35.97
40.25
42.58
42.79
41.50
39.90
39.50
41.73
47.63
57.10
68.24
77.01
78.35
68.17
45.61
14.16
-19.01
-45.58
-59.55
-59.62
-49.65
-36.72
-27.91
-27.50
-35.85
-50.08
-65.94
-79.33
-87.10
-87.34
-79.31
-63.68
-42.71
-20.07
-0.24
13.02
18.50
18.18
16.49
17.80
23.73
31.80
36.58
32.42
16.74
-8.30
-36.60
-61.05
-76.75
-82.69
-81.43
-77.05
-72.86
-70.26
-69.30
-69.63
-71.42
-75.22
-81.01
-87.31
-91.25
-89.93
-82.31
-70.44
-59.60
-54.67
-57.86
-66.71
-74.30
-72.23
-54.87
-22.19
19.75
61.31
93.55
111.27
114.02
104.83
88.24
68.71
50.52
37.86
34.45
42.42
60.87
85.36
109.09
125.13
128.67
118.73
97.97
70.92
41.93
13.92
-11.85
-35.14
-55.94
-74.09
-89.13
-100.67
-108.71
-113.88
-117.29
-119.83
-121.90
-123.05
-121.92
-117.36
-107.46
-90.41
-64.79
-29.82
13.63
61.97
108.70
145.86
166.91
169.14
156.07
135.90
118.04
108.71
108.94
115.05
121.60
124.27
121.28
112.92
98.48
76.17
44.19
3.23
-41.94
-82.93
-110.94
-119.79
-110.00
-88.81
-66.70
-53.07
-52.28
-62.85
-78.77
-92.81
-99.79
-97.26
-85.57
-66.23
-40.99
-11.72
18.96
47.35
69.12
80.53
80.52
71.09
57.55
46.22
41.27
43.01
47.94
50.82
47.49
37.84
26.26
19.04
20.35
28.79
37.09
35.57
17.27
-17.39
-59.39
-95.67
-115.11
-114.56
-99.93
-81.94
-68.00
-58.48
-47.29
-26.86
5.68
45.14
80.67
101.50
102.85
89.21
71.85
63.37
71.33
95.14
127.10
156.85
176.31
182.43
177.06
162.83
141.59
114.18
81.92
48.24
18.68
-1.02
-7.17
-0.91
12.03
24.19
29.67
26.36
16.02
2.61
-10.07
-19.79
-26.16
-29.81
-31.22
-30.56
-28.00
-24.10
-19.93
-16.70
-15.38
-16.29
-19.37
-23.65
-28.04
-31.89
-35.19
-38.59
-43.06
-49.49
-58.35
-69.52
-82.40
-96.29
-110.76
-125.81
-141.91
-159.75
-179.95
-202.76
-227.92
-254.63
-281.72
-307.84
-331.61
-351.56
-366.12
-373.99
-373.71
-364.04
-344.31
-314.70
-276.33
-231.16
-181.71
-130.72
-80.81
-34.10
7.84
44.05
74.07
97.96
116.18
129.46
138.62
144.47
147.69
148.70
147.82
145.27
141.27
136.03
129.79
122.75
115.18
107.40
99.64
92.01
84.56
77.30
70.20
63.27
56.52
49.94
43.53
37.27
31.20
25.33
19.76
14.53
9.72
5.49
2.08
-0.30
-1.50
-1.53
-0.57
1.10
3.27
5.82
8.87
12.80
18.14
25.44
34.90
46.19
58.52
70.97
83.10
95.46
109.66
127.48
149.89
175.98
202.76
226.06
242.12
248.71
245.68
234.15
215.68
191.91
164.62
136.19
109.58
87.77
72.52
63.49
58.23
53.06
44.97
32.93
18.46
4.60
-5.77
-11.70
-14.73
-17.82
-23.36
-31.26
-38.84
-42.32
-39.55
-31.71
-23.00
-18.47
-20.84
-28.97
-38.40
-44.10
-43.19
-36.61
-28.46
-23.49
-24.47
-30.59
-38.04
-42.11
-39.88
-31.81
-21.55
-14.15
-13.15
-18.66
-26.95
-32.75
-32.00
-24.67
-14.63
-7.45
-7.10
-13.50
-22.56
-28.38
-26.89
-18.26
-6.86
1.14
1.59
-5.23
-14.78
-21.08
-20.21
-12.74
-3.07
3.05
1.84
-6.22
-16.84
-24.29
-24.73
-18.34
-9.05
-2.18
-1.33
-6.57
-14.42
-20.19
-20.51
-15.15
-6.98
-0.27
1.60
-2.00
-8.66
-14.27
-15.54
-11.78
-5.22
0.30
1.75
-1.44
-6.90
-10.93
-10.66
-6.00
0.11
3.54
1.45
-5.70
-14.23
-19.21
-17.30
-8.77
2.38
10.54
11.53
4.89
-5.57
-13.82
-15.06
-8.54
1.83
9.98
11.20
5.00
-4.76
-12.08
-12.51
-5.92
3.45
9.49
7.84
-1.30
-13.06
-20.77
-19.78
-10.19
2.92
12.52
13.49
5.51
-6.75
-16.25
-17.61
-10.00
2.31
12.53
15.21
9.17
-1.77
-11.16
-13.52
-7.48
3.39
12.99
16.05
11.26
1.90
-6.10
-7.68
-1.96
7.07
12.94
10.71
0.28
-13.12
-21.87
-20.53
-9.05
6.79
18.80
20.83
12.27
-1.87
-13.79
-17.46
-11.87
-1.36
7.14
8.57
2.31
-7.62
-15.24
-15.98
-9.39
0.65
8.31
9.06
2.48
-7.60
-15.35
-16.20
-9.49
1.23
10.30
13.20
8.77
-0.22
-8.89
-12.80
-10.28
-3.38
3.40
5.68
1.74
-6.41
-14.16
-16.99
-12.94
-3.87
5.53
10.48
8.96
2.97
-2.75
-3.67
1.57
9.98
16.09
15.19
6.40
-6.59
-17.59
-21.16
-15.58
-3.94
7.56
12.86
9.38
-0.35
-10.20
-13.96
-9.17
1.29
10.70
12.70
5.25
-7.68
-18.51
-20.51
-11.95
2.69
15.39
19.39
12.94
0.27
-11.15
-14.89
-9.09
2.67
13.69
17.79
12.86
1.92
-8.71
-13.10
-8.92
1.13
11.00
14.82
10.35
0.28
-9.48
-13.25
-8.88
1.10
11.05
15.40
11.77
2.40
-7.31
-11.91
-8.86
-0.20
8.73
12.46
8.60
-0.61
-9.70
-13.38
-9.85
-1.72
5.70
7.74
3.14
-5.08
-11.55
-11.88
-5.42
4.42
12.14
13.34
7.28
-2.79
-11.54
-14.51
-10.58
-2.54
4.85
7.49
4.21
-2.51
-8.14
-8.84
-3.67
4.69
11.36
12.09
5.62
-5.44
-15.59
-19.34
-14.25
-2.53
9.94
16.60
14.04
4.06
-7.35
-13.35
-10.54
-1.07
8.84
12.73
8.17
-1.85
-10.67
-12.28
-5.02
7.32
17.79
20.68
14.67
3.33
-7.11
-11.52
-8.52
-0.85
6.43
8.78
4.66
-3.85
-12.20
-15.63
-11.92
-2.84
6.61
10.59
5.66
-6.66
-20.61
-29.06
-27.72
-17.76
-5.18
2.90
2.65
-4.31
-12.16
-15.02
-10.82
-2.66
3.35
2.12
-6.94
-19.60
-29.32
-31.31
-25.49
-16.73
-11.80
-15.26
-26.38
-38.99
-44.91
-38.57
-20.62
1.81
18.54
21.71
9.94
-10.95
-30.97
-40.83
-36.01
-17.94
7.65
33.94
55.40
68.76
72.88
68.33
56.91
41.72
26.70
15.24
8.63
5.44
2.41
-3.80
-14.36
-28.08
-42.03
-53.08
-59.08
-59.24
-53.88
-43.68
-29.21
-10.92
10.79
35.66
63.58
93.78
123.85
149.23
163.71
161.60
140.59
103.78
59.42
18.71
-7.95
-14.39
-0.11
29.95
67.35
102.22
125.66
131.68
119.15
92.27
59.53
31.07
15.20
15.73
30.75
53.56
74.72
84.86
77.54
52.09
14.75
-22.77
-47.46
-50.67
-32.51
-2.34
25.33
37.70
29.37
3.99
-29.31
-61.48
-88.17
-110.57
-133.09
-159.65
-191.26
-225.64
-258.28
-284.36
-300.05
-302.89
-291.32
-264.53
-222.64
-167.60
-103.90
-38.96
18.18
59.29
79.23
77.41
57.36
24.94
-13.40
-51.22
-81.72
-97.78
-93.63
-68.01
-26.66
18.18
51.95
64.01
52.50
24.80
-6.18
-28.00
-33.80
-23.64
-2.34
24.46
53.24
82.99
113.71
144.46
172.52
193.85
205.17
205.28
195.60
179.74
161.84
145.07
130.70
118.09
105.49
91.28
74.83
56.92
39.33
23.98
12.08
3.73
-2.00
-6.57
-11.23
-16.55
-22.31
-27.70
-31.90
-34.42
-35.34
-35.19
-34.69
-34.41
-34.60
-35.13
-35.66
-35.84
-35.48
-34.57
-33.31
-31.90
-30.51
-29.22
-28.04
-26.91
-25.80
-24.69
-23.60
-22.55
-21.55
-20.58
-19.62
-18.62
-17.59
-16.53
-15.49
-14.44
-13.47
-12.61
-11.86
-11.18
-10.51
-9.84
-9.18
-8.57
-8.11
-7.85
-7.79
-7.84
-7.86
-7.72
-7.38
-6.88
-6.44
-6.28
-6.60
-7.39
-8.47
-9.51
-10.18
-10.33
-10.07
-9.78
-9.93
-10.92
-12.78
-15.18
-17.49
-19.05
-19.57
-19.22
-18.67
-18.83
-20.38
-23.39
-27.26
-30.99
-33.38
-33.99
-33.00
-31.36
-30.37
-31.18
-34.31
-39.44
-45.44
-50.52
-52.47
-49.04
-38.56
-20.56
3.69
31.30
58.46
81.60
98.47
108.56
112.76
112.54
109.37
104.19
97.78
91.11
85.38
81.92
81.84
85.63
92.64
100.45
105.35
102.66
88.83
63.28
29.25
-6.79
-37.59
-58.12
-67.30
-67.86
-64.33
-60.38
-57.40
-54.68
-50.89
-45.61
-39.83
-35.33
-33.34
-33.87
-35.56
-36.64
-35.65
-32.28
-27.42
-22.55
-19.06
-17.60
-17.91
-18.95
-19.50
-18.72
-16.49
-13.38
-10.30
-8.06
-7.02
-6.98
-7.39
-7.55
-7.07
-5.88
-4.29
-2.75
-1.63
-1.08
-0.99
-1.11
-1.17
-1.03
-0.68
-0.23
0.19
0.47
0.63
0.70
0.75
0.81
0.87
0.90
0.90
0.87
0.87
0.95
1.17
1.50
1.91
2.30
2.62
2.84
2.99
3.19
3.50
4.01
4.68
5.36
5.86
6.01
5.84
5.57
5.50
5.92
7.05
8.82
10.92
12.90
14.34
15.12
15.52
15.84
16.30
17.03
17.76
17.94
16.94
14.49
10.81
6.51
2.40
-1.03
-3.49
-5.27
-6.94
-9.20
-12.79
-18.73
-28.20
-41.65
-58.26
-74.65
-85.50
-85.38
-71.41
-45.25
-12.94
17.26
38.51
47.81
46.84
40.05
32.40
27.26
25.71
27.73
32.62
39.06
44.38
44.51
34.79
12.27
-21.93
-61.84
-97.58
-118.99
-119.62
-99.50
-65.01
-26.27
6.96
28.82
38.57
39.57
36.61
33.49
31.63
30.52
28.91
26.20
23.02
20.46
19.27
19.14
19.11
18.31
16.67
15.14
14.53
14.41
12.60
6.00
-7.50
-27.14
-48.89
-66.80
-75.17
-72.03
-59.02
-40.41
-20.79
-3.31
10.87
21.90
30.19
35.73
38.21
37.90
35.82
33.45
32.27
33.20
36.09
40.04
43.82
46.35
47.50
47.92
48.61
50.67
54.62
60.09
66.00
70.79
73.02
71.87
67.24
59.61
49.80
38.53
26.25
13.36
-0.04
-13.64
-26.68
-38.18
-47.08
-52.65
-54.86
-54.61
-52.82
-50.87
-49.71
-49.58
-50.01
-50.02
-48.74
-45.88
-41.94
-37.91
-35.13
-34.49
-35.90
-38.37
-40.47
-40.74
-38.52
-34.05
-28.50
-23.72
-21.66
-23.71
-30.08
-38.91
-46.12
-46.56
-35.73
-11.90
22.65
61.86
97.55
121.80
129.40
119.21
94.25
60.51
24.97
-6.24
-29.58
-44.02
-50.72
-51.65
-48.67
-42.92
-35.22
-26.63
-19.10
-14.84
-15.28
-20.23
-27.66
-34.71
-39.23
-40.39
-39.36
-38.40
-39.67
-44.35
-52.46
-63.16
-74.97
-85.80
-92.70
-92.35
-82.05
-61.33
-32.80
-1.90
24.97
43.17
51.35
51.53
47.40
42.17
37.23
32.26
26.39
19.72
13.42
9.21
8.39
11.00
15.97
21.68
26.65
30.31
32.92
35.04
37.16
39.17
40.25
39.25
35.13
27.46
16.61
3.73
-9.74
-22.38
-33.27
-42.13
-49.20
-55.06
-60.41
-65.75
-71.39
-77.45
-83.75
-90.01
-96.03
-101.48
-105.94
-109.17
-110.88
-110.80
-108.74
-103.80
-94.87
-80.91
-61.19
-35.80
-6.16
25.43
55.93
82.37
102.07
114.76
121.58
124.73
126.25
127.24
127.48
125.94
121.30
113.16
102.96
92.46
84.47
81.66
85.43
95.17
107.48
116.64
116.30
101.73
71.43
29.11
-17.84
-60.08
-89.01
-99.07
-89.46
-64.40
-32.32
-2.93
16.55
23.88
22.42
18.94
19.74
27.36
39.59
51.69
59.56
62.99
64.81
68.69
76.22
85.78
94.21
98.94
99.22
95.87
89.77
80.33
66.40
47.50
24.50
0.21
-22.16
-40.39
-54.16
-63.79
-69.69
-71.80
-70.43
-67.47
-66.38
-71.72
-86.59
-110.87
-140.24
-167.22
-183.47
-182.51
-162.74
-128.07
-86.77
-48.44
-20.30
-4.61
1.40
3.20
5.66
10.39
15.59
17.96
15.71
9.89
4.04
1.95
5.16
12.06
18.98
22.57
21.67
17.81
14.32
14.68
21.28
34.05
50.89
68.70
84.58
97.22
106.45
113.24
119.07
125.73
134.71
146.55
160.13
172.32
178.47
173.22
153.22
119.45
78.08
38.23
8.23
-7.65
-10.34
-4.91
1.25
2.95
-3.22
-17.93
-40.53
-70.49
-108.29
-154.79
-203.59
-246.56
-277.40
-294.87
-301.78
-301.74
-296.19
-283.63
-260.43
-223.78
-175.10
-120.34
-68.24
-26.56
0.43
13.07
14.77
10.22
2.76
-6.49
-17.45
-29.62
-40.92
-49.03
-52.36
-51.80
-48.03
-42.23
-35.61
-28.08
-18.62
-5.92
9.49
25.78
39.86
49.44
53.10
51.07
45.59
40.38
39.50
45.21
59.51
79.45
102.50
123.40
134.64
134.96
123.62
104.39
83.68
69.69
67.47
76.87
92.28
105.52
101.44
74.93
38.18
-1.40
-38.48
-70.23
-96.91
-116.62
-126.53
-123.15
-102.98
-67.27
-22.55
22.81
60.71
86.76
100.29
102.94
97.74
88.57
78.18
66.93
54.95
41.67
27.52
13.49
0.38
-11.06
-19.85
-25.90
-30.46
-31.36
-31.36
-31.89
-33.48
-36.44
-41.09
-47.71
-56.89
-69.67
-86.57
-108.24
-133.95
-162.25
-191.30
-219.28
-244.33
-264.79
-279.49
-287.13
-286.85
-279.14
-263.87
-241.00
-211.31
-176.49
-138.80
-100.88
-64.84
-32.55
-4.48
20.01
42.71
65.33
88.60
112.28
135.49
157.61
178.36
198.31
218.77
242.38
270.87
304.16
340.99
379.66
418.78
456.62
490.49
517.19
535.82
545.89
546.79
538.29
520.60
494.54
461.01
420.91
375.93
331.63
292.86
261.52
236.36
214.30
192.16
167.28
137.63
82.92
-2.74
-109.07
-214.53
-299.61
-355.62
-384.02
-391.72
-386.76
-375.47
-358.50
-335.68
-308.34
-279.90
-254.29
-234.04
-219.63
-209.93
-202.89
-194.00
-180.54
-162.71
-143.17
-125.15
-110.70
-100.37
-93.40
-88.39
-82.43
-73.66
-62.01
-48.92
-36.08
-24.40
-14.00
-4.30
5.49
16.60
29.48
43.46
56.78
67.42
73.65
74.46
69.56
59.43
45.35
28.98
12.11
-4.09
-18.92
-32.04
-43.36
-52.86
-60.43
-65.94
-69.05
-69.76
-68.39
-65.73
-62.82
-60.66
-59.89
-60.47
-61.92
-63.19
-63.67
-63.02
-61.49
-59.55
-57.62
-56.13
-55.60
-56.92
-60.78
-66.70
-72.06
-72.54
-63.40
-42.05
-10.37
26.25
59.87
83.44
93.66
91.74
81.93
69.38
57.88
49.30
44.49
44.59
51.00
64.11
81.80
98.77
108.61
106.38
90.85
65.49
36.53
9.89
-11.41
-27.83
-42.28
-57.09
-72.57
-86.61
-95.83
-97.36
-90.00
-74.42
-51.08
-23.14
6.97
37.16
65.22
89.71
108.57
120.05
123.09
117.85
105.31
87.41
66.38
44.17
22.37
1.58
-17.85
-35.51
-50.83
-63.05
-71.21
-74.46
-72.25
-64.61
-52.62
-37.59
-20.98
-4.05
12.45
27.53
40.95
53.10
65.15
77.98
92.75
110.32
131.22
155.21
179.80
202.01
219.17
229.43
231.13
223.55
206.78
181.29
147.68
103.93
47.94
-22.13
-101.45
-184.06
-262.58
-329.57
-378.90
-406.80
-415.91
-411.26
-398.32
-381.93
-366.69
-356.94
-356.83
-369.36
-376.27
-364.27
-325.92
-262.42
-181.63
-94.90
-13.70
52.75
99.81
128.67
141.77
143.63
139.00
131.64
123.78
116.96
112.72
112.69
118.04
126.24
133.75
137.37
135.23
127.17
114.54
99.55
84.63
71.76
60.52
49.70
38.18
25.46
11.87
-1.68
-14.16
-24.66
-32.73
-39.25
-45.63
-53.17
-62.64
-73.97
-86.33
-98.57
-109.06
-116.80
-120.29
-118.52
-110.90
-97.11
-77.28
-52.02
-22.62
9.18
41.12
71.16
97.50
118.75
134.32
144.10
148.60
148.44
144.80
138.98
132.33
125.87
120.12
115.36
111.28
108.56
105.34
100.16
92.09
80.76
66.31
49.39
31.21
12.98
-4.05
-18.98
-30.73
-38.31
-40.90
-38.00
-30.53
-18.77
-4.12
11.34
25.23
35.85
42.40
45.31
45.90
45.85
46.72
48.92
51.83
54.20
55.03
53.87
51.17
48.04
45.69
45.21
47.12
51.61
58.25
65.56
70.55
69.15
58.15
36.03
5.29
-28.32
-57.91
-78.27
-87.85
-88.71
-84.75
-79.21
-73.49
-67.09
-59.36
-50.74
-43.04
-38.42
-37.93
-40.59
-43.69
-44.38
-40.60
-32.66
-22.89
-14.61
-10.47
-11.13
-14.80
-17.85
-16.87
-9.65
3.37
19.51
34.76
45.55
49.45
45.61
35.09
20.38
5.37
-5.31
-7.48
0.42
15.41
30.11
35.08
23.52
-5.87
-47.37
-90.49
-124.29
-141.82
-142.33
-129.08
-109.11
-87.41
-65.97
-44.74
-23.50
-3.39
13.22
23.58
26.59
23.23
16.78
10.93
8.51
10.31
15.13
20.41
23.53
23.06
19.03
13.44
9.09
8.27
12.00
19.69
29.30
38.25
44.36
46.24
43.49
36.06
24.17
8.66
-8.37
-23.46
-32.54
-32.70
-24.04
-9.68
5.21
15.81
19.73
17.70
12.54
7.21
3.27
0.53
-1.97
-4.90
-7.95
-10.10
-10.48
-9.12
-6.88
-5.12
-5.04
-6.95
-10.23
-13.73
-16.26
-17.16
-16.63
-15.46
-14.73
-15.28
-17.44
-20.96
-25.35
-30.12
-34.95
-39.98
-45.50
-51.68
-58.28
-64.59
-69.36
-71.23
-69.14
-62.42
-51.08
-35.65
-17.13
3.19
24.00
44.27
63.28
80.28
94.82
107.19
116.84
123.38
126.58
126.38
122.78
115.86
105.79
92.95
77.03
59.51
41.40
23.52
6.80
-8.06
-20.59
-30.63
-38.23
-43.80
-47.91
-51.26
-54.65
-58.57
-63.36
-69.09
-75.45
-81.72
-87.06
-90.54
-91.13
-88.10
-81.05
-70.05
-55.59
-38.64
-20.42
-2.29
14.41
28.57
39.31
46.24
49.37
49.11
46.10
41.12
34.96
28.36
21.90
15.90
10.55
5.85
1.73
-1.97
-5.51
-9.14
-13.07
-17.27
-21.76
-26.46
-31.23
-35.91
-40.31
-44.26
-47.63
-50.44
-52.40
-53.52
-53.98
-54.00
-53.86
-53.84
-54.31
-55.65
-58.29
-61.89
-66.17
-70.78
-75.07
-78.24
-79.45
-78.13
-74.21
-68.30
-60.70
-52.30
-44.03
-36.54
-29.90
-23.51
-16.15
-5.83
4.02
12.82
20.58
27.77
35.20
43.87
54.82
69.02
87.23
109.75
136.99
167.98
200.19
229.78
252.48
264.72
264.88
253.70
233.93
209.89
185.44
163.24
144.69
130.34
120.21
113.87
110.34
108.09
105.71
102.02
96.54
89.91
83.59
78.97
76.39
74.84
72.15
65.99
54.74
38.22
18.21
-2.00
-18.92
-30.15
-35.17
-35.61
-34.32
-34.38
-38.27
-47.67
-63.49
-85.87
-113.56
-143.53
-171.57
-193.48
-206.79
-211.75
-210.97
-207.46
-202.72
-195.62
-183.38
-163.61
-136.14
-103.46
-69.79
-39.11
-13.64
6.47
22.40
35.17
44.93
51.16
53.43
52.03
48.33
44.14
41.06
39.72
39.65
39.53
37.95
34.04
27.94
20.88
14.74
11.32
11.86
16.45
24.09
32.94
40.70
45.51
46.51
44.10
39.80
35.83
34.13
35.86
40.95
47.97
55.10
60.96
64.86
66.93
67.90
68.70
70.05
71.73
71.75
67.69
57.38
40.07
17.03
-8.70
-33.28
-53.71
-69.19
-82.18
-95.86
-113.40
-137.18
-168.62
-207.54
-251.58
-295.37
-331.42
-353.00
-354.83
-335.47
-297.84
-248.25
-193.93
-141.10
-93.94
-49.18
-9.12
21.88
41.11
50.59
55.67
61.50
70.33
81.57
93.11
102.11
107.65
110.61
112.35
113.60
115.27
116.41
116.33
114.70
110.72
104.36
96.05
86.60
76.65
66.71
57.23
48.81
41.94
36.34
31.94
27.88
24.16
20.97
18.55
16.95
16.18
15.99
15.65
14.58
12.60
10.04
7.31
4.76
2.48
0.50
-1.21
-2.71
-3.99
-4.92
-5.32
-5.21
-4.68
-3.89
-2.82
-1.34
0.69
3.27
6.24
9.35
12.25
14.59
16.18
16.91
16.84
16.04
14.56
12.44
9.75
6.61
3.23
-0.09
-3.02
-5.28
-6.65
-7.07
-6.60
-5.38
-3.68
-1.89
-0.41
0.46
0.58
-0.05
-1.32
-3.13
-5.37
-8.02
-11.03
-14.28
-17.59
-20.63
-23.00
-24.26
-24.00
-21.99
-18.43
-13.93
-9.47
-5.96
-3.88
-2.99
-2.54
-1.63
0.25
3.01
6.02
8.58
10.26
11.08
11.37
11.45
11.39
11.05
10.33
9.39
8.64
8.54
9.29
10.63
11.96
12.64
12.30
10.99
9.11
7.11
5.29
3.69
2.15
0.48
-1.49
-3.91
-6.91
-10.59
-14.97
-19.91
-25.15
-30.37
-35.33
-40.00
-44.44
-48.80
-53.11
-57.34
-61.41
-65.30
-68.98
-72.46
-75.68
-78.39
-80.02
-79.65
-76.14
-68.37
-55.58
-37.68
-15.38
9.85
36.03
61.12
83.24
100.85
112.98
119.17
119.84
116.08
109.43
101.27
92.37
82.88
72.73
62.24
52.21
44.00
38.85
37.29
39.03
43.36
49.95
59.37
72.67
90.17
110.46
130.06
144.09
148.12
139.71
119.42
90.53
57.86
26.22
-0.62
-20.59
-33.29
-39.39
-40.22
-37.49
-33.18
-29.45
-28.44
-31.81
-40.74
-56.12
-78.12
-106.06
-138.40
-172.78
-206.56
-237.13
-261.99
-279.22
-287.90
-287.78
-279.04
-262.14
-237.47
-205.46
-166.62
-121.47
-70.82
-16.22
40.19
95.98
148.24
194.45
231.91
254.28
256.20
237.81
204.25
163.78
119.25
71.05
19.76
-33.88
-85.26
-130.01
-165.31
-190.84
-208.29
-210.61
-194.96
-163.63
-123.29
-80.85
-40.65
-4.25
27.77
54.69
75.46
88.24
92.44
89.29
81.88
73.94
68.63
67.43
70.06
75.05
79.90
83.00
83.99
83.99
83.56
82.76
80.99
77.41
71.50
62.96
52.35
40.79
29.66
19.91
12.12
6.45
2.76
0.85
0.31
0.58
1.13
1.61
1.99
2.36
2.86
4.01
5.67
7.32
8.10
7.40
5.31
3.07
2.16
3.94
8.41
14.66
21.00
25.17
25.23
20.21
10.86
-1.58
-15.46
-30.04
-44.54
-57.92
-69.11
-76.98
-81.07
-81.73
-81.95
-81.02
-80.62
-81.80
-83.28
-82.22
-76.35
-70.14
-64.59
-61.19
-60.45
-61.80
-63.38
-61.08
-54.21
-45.09
-37.98
-35.94
-40.14
-48.42
-56.72
-60.75
-58.13
-49.79
-38.04
-24.59
-8.44
12.66
40.55
74.01
108.10
135.25
147.78
141.56
117.15
79.40
34.45
-11.95
-55.41
-92.24
-118.53
-130.46
-125.40
-103.79
-70.15
-32.88
-1.77
15.19
14.28
-3.15
-31.73
-63.74
-91.41
-108.47
-110.85
-96.70
-66.25
-22.09
30.51
83.93
130.28
163.07
178.83
177.86
164.30
144.47
124.52
108.64
98.56
95.75
100.86
113.27
130.88
150.95
170.71
187.47
198.90
203.29
201.85
196.27
186.89
172.22
150.69
122.28
88.58
52.39
17.08
-10.81
-24.95
-21.71
-1.30
33.67
79.64
131.98
184.98
214.84
204.09
154.01
83.94
14.31
-44.42
-90.63
-127.03
-156.90
-182.22
-200.36
-209.46
-208.93
-201.45
-191.21
-181.15
-172.52
-165.30
-158.76
-149.79
-135.77
-116.37
-92.25
-66.36
-40.91
-16.99
5.03
25.16
44.77
64.82
84.81
102.42
114.77
120.16
118.27
109.86
96.28
79.74
62.31
45.26
28.98
13.49
-0.72
-12.85
-22.31
-29.00
-33.09
-34.86
-34.66
-32.83
-29.68
-25.40
-20.29
-15.03
-10.62
-8.16
-8.58
-12.45
-19.95
-30.95
-44.91
-60.91
-77.73
-94.09
-108.75
-120.73
-129.35
-134.25
-135.42
-133.04
-127.33
-118.55
-107.00
-93.07
-77.40
-60.89
-44.65
-29.80
-17.24
-7.35
0.14
6.04
11.33
16.82
22.86
29.33
35.85
42.03
47.58
52.42
56.41
59.24
60.36
59.04
54.74
47.32
37.21
25.35
12.94
1.24
-8.67
-16.03
-20.45
-21.85
-20.36
-16.34
-10.40
-3.35
3.89
10.45
15.71
19.39
21.56
22.52
22.61
22.13
21.30
20.30
19.33
18.68
18.59
19.18
20.20
21.16
21.32
20.02
16.94
12.22
6.45
0.41
-5.29
-10.42
-15.19
-20.00
-25.11
-30.53
-35.96
-41.01
-45.45
-49.28
-52.67
-55.72
-58.22
-59.68
-59.45
-57.03
-52.28
-45.53
-37.51
-29.10
-21.11
-14.17
-8.54
-4.25
-1.06
1.41
3.62
6.06
9.11
13.01
17.74
22.99
28.18
32.56
35.51
36.67
36.08
34.04
31.05
27.56
23.78
19.82
15.71
11.54
7.44
3.61
0.18
-2.79
-5.33
-7.59
-9.74
-12.09
-14.94
-18.76
-23.99
-30.96
-39.78
-50.21
-61.53
-72.61
-82.11
-88.66
-91.22
-89.02
-81.72
-69.35
-52.31
-31.24
-7.11
18.78
44.90
69.63
91.41
108.82
120.71
126.34
125.57
118.91
107.44
92.70
76.35
59.91
44.50
30.78
19.01
9.18
1.28
-4.64
-8.41
-9.96
-9.39
-7.03
-3.34
1.14
5.92
10.79
15.86
21.58
28.49
37.04
47.39
59.33
72.14
84.69
95.63
103.58
107.34
106.05
99.36
87.58
71.67
53.03
33.24
13.78
-4.22
-20.05
-33.39
-44.20
-52.50
-58.37
-61.78
-62.72
-61.16
-57.23
-51.26
-43.81
-35.65
-27.67
-20.68
-15.23
-11.59
-9.73
-9.34
-10.04
-11.46
-13.25
-15.19
-17.07
-18.67
-19.82
-20.40
-20.38
-19.70
-18.37
-16.40
-13.88
-10.98
-7.90
-4.97
-2.51
-0.72
0.34
0.86
1.13
1.45
1.94
2.54
3.04
3.26
3.19
3.02
3.08
3.76
5.20
7.28
9.64
11.82
13.49
14.55
15.09
15.26
15.18
14.80
13.93
12.38
10.02
6.96
3.45
-0.21
-3.82
-7.36
-10.94
-14.68
-18.54
-22.34
-25.65
-28.09
-29.41
-29.67
-29.21
-28.48
-27.94
-27.88
-28.47
-29.81
-31.89
-34.62
-37.75
-40.98
-43.89
-46.09
-47.18
-46.78
-44.57
-40.32
-34.02
-25.89
-16.46
-6.41
3.58
13.12
22.10
30.57
38.56
45.90
52.21
56.97
59.78
60.48
59.40
57.35
55.28
54.00
53.93
54.98
56.71
58.54
59.98
60.94
61.76
62.87
64.42
66.08
67.13
66.77
64.42
59.94
53.90
47.34
41.29
36.19
31.71
26.97
20.88
12.62
1.82
-11.05
-24.84
-38.06
-49.43
-58.18
-64.21
-68.02
-70.44
-73.84
-81.30
-94.30
-110.95
-126.37
-134.66
-131.35
-115.33
-89.33
-58.97
-30.36
-7.93
6.49
13.39
14.74
12.82
9.47
5.98
3.06
1.50
2.06
5.20
10.74
17.84
25.31
32.02
37.77
42.03
44.94
46.84
47.80
47.48
45.32
40.91
34.34
26.14
17.07
8.19
0.28
-6.66
-13.51
-21.72
-32.59
-46.40
-61.83
-75.90
-84.36
-83.47
-71.65
-50.31
-23.41
4.14
28.22
46.82
58.43
63.11
62.18
57.38
50.28
42.08
33.66
25.63
18.35
11.73
5.56
-0.45
-6.64
-13.15
-19.82
-26.00
-30.87
-33.70
-34.25
-32.61
-29.30
-25.27
-21.73
-19.91
-20.33
-22.84
-26.89
-31.89
-37.18
-42.15
-46.33
-49.51
-51.74
-52.72
-51.88
-48.81
-43.40
-35.91
-26.58
-15.53
-3.10
10.17
23.74
37.71
52.19
67.41
83.18
99.78
118.25
139.97
159.80
172.12
175.06
169.90
157.80
136.91
105.00
62.39
12.47
-38.86
-86.71
-128.45
-162.85
-189.65
-210.51
-226.91
-239.37
-248.28
-242.72
-220.28
-182.64
-140.29
-93.98
-44.12
7.24
56.76
98.08
124.04
129.32
114.43
84.48
48.11
13.89
-14.29
-32.32
-39.36
-37.75
-30.19
-15.87
6.63
38.15
78.05
122.91
167.80
207.43
238.88
261.15
276.00
285.68
279.68
254.42
214.20
167.59
120.35
74.72
30.68
-9.45
-47.87
-85.31
-120.40
-152.70
-183.00
-213.26
-238.86
-256.02
-261.38
-253.49
-232.27
-198.29
-154.63
-106.27
-58.81
-16.39
18.23
44.35
62.43
74.11
82.01
87.85
92.05
94.08
93.48
89.47
81.74
70.23
55.53
39.02
22.05
5.72
-9.21
-22.16
-33.22
-42.68
-51.01
-58.57
-65.45
-71.68
-77.18
-81.76
-85.03
-86.84
-87.23
-86.52
-85.13
-83.46
-81.39
-78.30
-73.17
-65.08
-53.64
-39.13
-22.22
-3.74
15.55
34.87
53.34
69.80
83.11
92.44
97.46
98.32
95.39
88.99
79.37
66.79
51.74
34.93
17.43
0.54
-14.57
-27.00
-36.32
-42.67
-46.57
-48.88
-50.54
-52.21
-54.03
-55.70
-56.65
-56.51
-55.04
-52.01
-47.45
-41.93
-36.24
-31.26
-27.73
-25.92
-25.40
-25.04
-22.89
-16.88
-5.94
10.72
33.73
63.05
97.65
135.10
171.80
204.38
229.80
244.76
247.81
239.73
222.14
196.70
164.13
125.10
81.95
37.16
-8.69
-54.19
-96.48
-132.60
-159.77
-176.60
-181.73
-172.06
-146.38
-108.36
-62.32
-11.72
39.80
88.86
130.86
155.91
157.04
144.20
121.74
86.54
39.47
-16.30
-76.01
-136.45
-193.83
-241.11
-273.87
-293.15
-300.39
-296.05
-281.20
-246.56
-193.75
-145.01
-104.71
-66.80
-30.12
5.75
42.19
81.02
123.70
168.27
211.92
252.82
285.57
301.00
291.43
254.51
194.26
118.99
36.65
-44.73
-117.05
-171.12
-196.32
-189.28
-157.45
-112.86
-65.72
-24.84
9.29
37.50
59.73
75.25
84.04
85.37
82.64
81.67
88.17
106.48
137.37
176.83
216.71
247.37
261.56
257.00
235.69
201.75
159.86
113.55
65.57
18.37
-25.75
-64.34
-95.92
-120.09
-137.27
-147.89
-152.55
-151.37
-144.33
-131.54
-113.53
-92.72
-71.60
-51.96
-35.24
-23.44
-18.61
-21.39
-29.55
-38.96
-47.93
-55.39
-60.53
-63.32
-65.57
-70.54
-81.25
-98.04
-119.86
-148.55
-184.27
-223.89
-262.18
-295.03
-321.35
-342.19
-357.22
-342.96
-288.96
-205.43
-115.89
-38.55
20.99
64.99
98.06
126.38
154.74
181.17
203.48
223.00
244.70
274.39
316.05
354.93
379.11
379.14
350.97
298.34
230.34
157.86
90.12
31.53
-17.14
-56.06
-89.97
-123.40
-157.99
-192.20
-222.52
-245.49
-260.95
-271.00
-261.05
-229.16
-181.56
-127.89
-76.57
-34.51
2.75
39.32
78.27
122.69
171.51
217.91
254.63
275.08
275.35
255.78
219.59
173.07
124.08
76.90
34.10
-2.56
-31.97
-53.28
-65.77
-70.37
-68.92
-63.90
-59.94
-60.70
-66.79
-75.83
-83.73
-86.39
-81.83
-70.27
-53.93
-37.75
-26.22
-20.78
-19.39
-18.05
-12.83
-1.59
15.67
37.22
58.59
74.56
81.10
75.72
56.57
22.61
-25.23
-82.14
-132.03
-157.12
-151.02
-121.15
-80.23
-38.91
-2.66
27.90
55.63
83.21
108.25
125.90
132.30
127.68
116.07
103.60
96.43
94.94
99.07
104.73
105.79
96.45
74.61
42.50
5.49
-30.22
-59.97
-81.33
-95.98
-106.84
-116.76
-125.56
-130.53
-128.37
-117.26
-97.83
-71.60
-40.91
-2.32
42.24
85.87
119.93
137.94
137.08
118.40
90.37
58.09
27.08
0.84
-19.29
-34.11
-46.21
-55.27
-61.77
-65.09
-64.63
-59.66
-51.42
-41.94
-32.79
-24.16
-14.74
-2.75
13.71
34.93
59.97
86.10
110.45
131.01
146.91
158.12
164.67
166.42
162.53
152.00
133.62
107.05
73.33
34.54
-6.81
-48.79
-89.90
-129.00
-164.44
-194.06
-215.31
-226.15
-226.14
-216.95
-202.08
-185.47
-170.07
-157.03
-145.88
-135.41
-124.63
-113.14
-101.06
-88.50
-75.09
-59.88
-41.80
-20.71
1.99
23.19
38.94
45.87
42.65
30.48
12.65
-7.03
-25.73
-42.41
-57.54
-71.83
-84.94
-94.86
-98.25
-91.44
-71.78
-38.55
6.51
59.18
113.44
162.52
200.33
222.81
228.64
219.15
197.37
166.80
130.62
91.71
53.04
18.04
-9.56
-26.56
-31.33
-24.60
-9.50
9.17
26.33
37.81
41.36
36.87
25.92
10.92
-5.76
-22.42
-37.89
-51.13
-60.98
-66.17
-65.66
-59.32
-48.14
-34.08
-19.44
-6.15
4.77
13.28
20.06
26.07
31.98
37.88
43.40
47.97
51.26
53.30
54.57
55.72
57.21
59.07
60.82
61.70
60.88
57.76
52.08
44.00
33.96
22.56
10.47
-1.73
-13.59
-24.92
-35.72
-46.14
-56.23
-65.74
-74.06
-80.24
-83.23
-82.26
-77.18
-68.65
-57.80
-45.79
-33.29
-20.67
-8.09
4.23
15.81
26.01
34.19
40.24
44.87
49.56
55.91
65.02
76.96
90.89
105.28
118.15
127.69
132.80
133.40
130.12
124.57
119.26
116.95
119.30
124.83
128.94
125.33
108.65
75.52
26.60
-33.30
-96.37
-154.48
-202.74
-238.83
-261.71
-269.63
-262.62
-242.14
-211.20
-173.48
-132.93
-95.36
-65.17
-43.50
-26.77
-12.45
0.00
8.40
9.79
1.53
-20.44
-57.53
-106.58
-158.54
-205.77
-244.03
-273.73
-296.85
-296.99
-264.12
-202.75
-143.47
-87.45
-27.08
46.12
128.66
212.83
291.01
355.74
403.63
435.97
440.82
411.32
353.67
282.95
214.82
158.50
114.41
79.03
48.48
22.07
0.24
-17.28
-33.90
-53.21
-77.19
-106.78
-140.27
-173.33
-199.28
-212.26
-202.54
-173.18
-132.37
-88.96
-49.78
-18.00
6.31
25.18
42.02
57.99
70.26
75.91
73.08
61.69
43.65
21.80
-1.02
-22.42
-41.39
-57.19
-66.38
-66.32
-56.70
-39.39
-17.40
6.09
28.96
50.94
70.45
84.74
90.47
85.67
71.11
50.70
30.62
17.92
17.45
32.88
62.64
98.27
126.66
137.36
128.08
103.74
72.39
41.21
14.51
-6.46
-23.05
-36.12
-44.89
-48.02
-45.14
-37.07
-25.41
-11.99
1.34
12.95
24.08
35.34
47.19
59.67
72.42
84.68
95.56
104.06
109.62
112.76
114.70
116.82
119.59
122.16
122.73
119.54
111.75
99.80
85.26
69.64
53.69
36.99
18.41
-2.86
-26.61
-51.48
-75.39
-96.27
-112.82
-124.58
-131.90
-135.72
-137.19
-137.46
-137.33
-137.25
-137.29
-137.49
-137.88
-138.55
-139.57
-140.85
-141.86
-141.79
-139.81
-135.53
-129.25
-121.77
-114.04
-106.83
-100.66
-95.81
-92.43
-90.81
-91.29
-94.22
-99.34
-105.69
-112.10
-117.72
-122.14
-125.30
-127.44
-128.61
-128.80
-127.14
-122.38
-114.05
-103.70
-94.26
-88.51
-87.77
-90.24
-91.79
-86.17
-67.45
-33.36
12.45
62.22
107.27
140.72
160.15
166.62
164.99
161.98
163.59
172.86
191.30
219.98
258.60
305.51
346.43
361.60
339.04
283.95
211.51
137.35
74.40
21.31
-25.08
-69.16
-114.11
-161.28
-205.26
-241.92
-267.18
-277.34
-270.92
-248.80
-216.08
-179.77
-146.42
-120.60
-105.02
-98.88
-98.09
-96.99
-89.09
-69.76
-36.68
9.66
65.42
122.98
173.79
211.06
231.64
237.23
232.73
224.41
217.81
215.75
217.12
218.14
213.93
200.38
175.68
140.63
98.46
53.80
11.24
-26.06
-56.78
-81.17
-100.01
-114.00
-123.82
-130.18
-133.94
-136.14
-137.48
-138.07
-137.35
-133.14
-122.91
-104.93
-79.07
-46.93
-11.62
23.70
55.90
82.35
102.85
117.66
126.11
126.37
116.52
95.73
66.67
33.22
-0.80
-29.90
-50.33
-61.20
-64.06
-61.43
-55.37
-44.74
-28.86
-8.54
17.99
52.08
93.63
140.77
190.33
239.41
289.10
339.80
367.94
354.06
295.83
209.65
114.65
30.01
-49.19
-124.71
-195.96
-263.06
-319.22
-358.47
-378.07
-368.47
-329.11
-270.41
-205.84
-147.01
-99.55
-61.22
-28.51
1.66
28.72
48.21
56.64
56.23
51.70
47.93
50.52
59.08
72.22
86.04
95.08
95.81
89.06
77.42
63.54
50.06
38.19
28.26
19.10
8.48
-4.61
-19.47
-34.99
-49.91
-62.15
-69.69
-70.54
-64.46
-53.02
-37.85
-20.73
-3.84
11.01
23.27
33.03
41.11
47.74
52.98
58.38
65.80
76.47
90.91
108.94
128.88
148.52
165.16
168.63
155.24
130.92
105.19
82.02
58.46
28.90
-7.36
-49.85
-94.18
-133.96
-165.16
-188.65
-209.97
-229.48
-248.33
-264.83
-275.22
-274.78
-259.76
-229.08
-184.90
-131.65
-73.58
-14.19
45.14
103.59
160.28
207.78
235.79
238.94
221.05
191.46
158.60
128.09
102.45
81.71
64.06
47.51
30.32
11.68
-7.85
-26.38
-41.03
-50.42
-53.54
-51.64
-47.46
-44.08
-43.55
-46.15
-50.54
-54.87
-57.38
-57.00
-54.29
-50.93
-49.08
-50.24
-55.39
-63.54
-74.89
-89.68
-107.35
-127.10
-143.39
-150.80
-145.82
-129.12
-104.83
-77.97
-50.99
-23.83
8.58
49.29
97.57
150.12
203.19
254.58
297.58
318.92
312.20
280.53
233.98
183.33
135.81
94.94
61.21
33.78
11.75
-5.17
-18.02
-28.95
-40.29
-53.95
-70.29
-89.03
-108.75
-126.94
-140.23
-146.51
-146.12
-141.86
-137.47
-131.51
-125.90
-120.83
-113.68
-100.33
-78.26
-48.46
-15.36
15.50
39.28
52.85
56.43
52.83
46.06
39.65
36.07
37.05
42.93
53.55
67.77
84.32
101.51
117.08
128.32
132.95
126.28
109.62
86.02
59.03
32.68
10.41
-5.60
-15.72
-20.60
-21.37
-18.81
-13.98
-8.00
-1.63
4.51
9.80
13.67
15.95
16.70
16.57
15.98
15.15
14.05
12.90
11.57
9.84
7.66
5.10
2.55
0.24
-1.69
-3.21
-4.44
-5.52
-6.58
-7.75
-9.35
-11.62
-14.86
-19.33
-25.25
-32.84
-42.06
-52.77
-64.89
-78.50
-93.51
-109.53
-125.84
-141.62
-156.06
-167.92
-175.85
-178.89
-176.72
-169.28
-156.63
-138.84
-116.14
-89.04
-57.63
-22.11
16.56
56.49
95.56
131.95
164.48
192.53
211.10
215.24
203.71
180.23
150.63
119.86
90.88
65.08
42.84
23.64
7.35
-5.98
-16.55
-25.94
-34.61
-42.60
-49.61
-55.22
-59.31
-61.21
-60.31
-56.56
-50.74
-43.89
-37.14
-31.41
-26.06
-21.25
-16.75
-12.21
-7.39
-2.37
2.78
7.97
13.17
18.42
23.44
28.21
32.76
37.02
40.76
43.64
45.25
45.22
43.34
39.54
34.15
27.63
20.32
12.33
3.64
-5.64
-15.01
-23.49
-29.88
-32.97
-31.98
-26.87
-18.35
-7.76
3.22
12.85
19.65
22.54
21.09
15.56
6.84
-3.71
-14.58
-24.36
-31.97
-36.81
-38.78
-38.11
-35.31
-30.92
-25.45
-19.36
-12.95
-6.50
-0.32
5.18
9.49
12.12
12.73
11.25
8.06
3.85
-0.43
-3.86
-5.71
-5.71
-4.01
-1.15
2.17
5.30
7.82
9.55
10.53
10.97
11.14
11.36
11.88
12.84
14.22
15.83
17.29
18.08
17.70
15.76
12.09
6.85
0.42
-6.61
-13.59
-19.89
-25.04
-28.74
-30.85
-31.34
-30.29
-27.86
-24.38
-20.25
-15.90
-11.65
-7.66
-3.85
-0.00
4.09
8.53
13.25
18.08
22.81
27.28
31.34
34.92
38.01
40.61
42.77
44.55
46.12
47.69
49.33
50.98
52.49
53.75
54.65
55.11
55.14
54.80
54.24
53.33
51.76
49.18
45.42
40.53
34.73
28.24
21.13
13.30
4.22
-6.69
-19.61
-34.00
-48.84
-63.11
-76.31
-88.59
-98.50
-104.20
-104.50
-99.57
-90.91
-80.39
-69.70
-59.87
-51.09
-42.70
-33.89
-24.65
-15.79
-8.66
-4.47
-3.60
-5.11
-7.30
-8.46
-7.65
-5.47
-2.94
-0.65
1.55
4.20
8.13
13.93
22.09
33.65
48.60
66.49
86.09
104.89
119.37
126.12
122.82
107.24
82.87
53.78
23.78
-4.35
-29.28
-51.51
-71.19
-88.04
-101.36
-109.83
-112.94
-110.68
-103.37
-91.98
-77.94
-62.63
-47.36
-33.15
-20.27
-9.21
-0.22
6.96
12.72
17.73
22.87
29.00
36.68
46.32
57.77
68.74
77.64
83.37
85.66
84.99
82.38
79.01
75.97
73.69
71.91
70.21
67.87
64.33
59.34
53.05
45.90
38.39
30.80
23.08
15.27
7.36
-0.53
-8.15
-15.21
-21.40
-26.48
-30.29
-32.79
-33.83
-33.45
-31.80
-29.20
-26.02
-22.57
-18.92
-14.68
-9.10
-1.23
9.48
22.65
36.64
48.77
56.06
56.26
48.70
34.52
16.18
-3.40
-21.83
-37.80
-50.97
-61.51
-69.42
-74.53
-76.65
-76.00
-73.21
-69.24
-65.15
-61.81
-59.77
-59.13
-60.22
-63.77
-70.64
-80.68
-92.34
-102.99
-109.86
-111.06
-105.97
-96.08
-84.62
-75.69
-71.90
-73.93
-80.58
-89.39
-97.24
-100.35
-95.83
-82.50
-61.41
-33.87
-1.59
33.31
68.40
101.25
130.73
155.99
176.28
190.45
199.37
204.85
208.84
212.45
209.84
197.56
176.56
155.49
134.39
112.17
87.30
60.69
33.83
8.20
-14.21
-32.15
-45.44
-55.31
-61.82
-64.76
-64.20
-61.16
-57.29
-53.65
-51.09
-50.18
-51.61
-54.49
-57.42
-59.07
-58.89
-56.95
-53.38
-48.69
-43.78
-40.11
-38.21
-38.07
-39.13
-40.75
-42.27
-42.97
-42.46
-40.79
-38.44
-35.59
-32.23
-28.27
-23.73
-18.78
-13.70
-8.79
-4.38
-0.79
1.92
3.81
5.00
5.64
5.87
5.91
6.03
6.53
7.66
9.52
12.03
14.87
17.64
19.96
21.60
22.54
22.94
23.00
22.84
22.44
21.72
20.58
19.04
17.25
15.42
13.80
12.48
11.42
10.44
9.32
7.85
5.97
3.72
1.28
-1.12
-3.33
-5.28
-7.01
-8.63
-10.30
-12.08
-14.00
-15.95
-17.76
-19.25
-20.20
-20.52
-20.17
-19.29
-18.11
-16.93
-16.05
-15.68
-15.93
-16.70
-17.74
-18.68
-19.11
-18.74
-17.53
-15.75
-13.88
-12.40
-11.55
-11.18
-10.78
-9.66
-7.17
-3.02
2.72
9.61
16.93
23.87
29.57
33.35
34.77
33.88
31.17
27.60
24.31
22.35
22.38
24.52
28.36
33.05
37.59
40.99
42.55
41.97
39.36
35.24
30.32
25.29
20.67
16.63
13.08
9.70
6.15
2.18
-2.25
-7.05
-11.99
-16.81
-21.29
-25.33
-28.89
-32.05
-34.85
-37.34
-39.41
-40.84
-41.35
-40.68
-38.71
-35.46
-31.17
-26.17
-20.80
-15.32
-9.90
-4.65
0.35
4.98
9.11
12.60
15.39
17.46
18.91
19.86
20.46
20.82
21.04
21.19
21.30
21.37
21.39
21.31
21.03
20.46
19.49
18.00
15.85
12.97
9.35
5.12
0.58
-3.91
-7.95
-11.26
-13.74
-15.43
-16.46
-16.98
-17.11
-16.92
-16.50
-15.99
-15.54
-15.34
-15.43
-15.77
-16.22
-16.61
-16.83
-16.85
-16.61
-15.97
-14.77
-12.81
-10.02
-6.49
-2.45
1.87
6.32
10.86
15.52
20.21
24.64
28.36
30.89
31.89
31.36
29.57
27.00
24.13
21.35
18.84
16.68
14.85
13.37
12.26
11.51
11.06
10.75
10.44
10.07
9.64
9.23
8.87
8.57
8.22
7.74
7.08
6.27
5.37
4.35
3.14
1.58
-0.42
-2.88
-5.70
-8.71
-11.77
-14.77
-17.63
-20.25
-22.53
-24.33
-25.55
-26.14
-26.03
-25.16
-23.46
-20.89
-17.52
-13.56
-9.30
-5.08
-1.11
2.51
5.74
8.53
10.76
12.31
13.06
13.03
12.32
11.13
9.66
8.04
6.45
5.06
4.02
3.43
3.29
3.40
3.52
3.38
2.81
1.81
0.48
-1.00
-2.49
-3.87
-5.09
-6.16
-7.10
-7.95
-8.70
-9.35
-9.90
-10.37
-10.75
-11.01
-11.04
-10.68
-9.83
-8.48
-6.79
-5.05
-3.51
-2.29
-1.26
-0.09
1.54
3.79
6.54
9.39
11.87
13.55
14.29
14.15
13.42
12.45
11.56
10.96
10.73
10.90
11.37
12.06
12.82
13.47
13.86
13.86
13.42
12.61
11.55
10.40
9.29
8.27
7.30
6.29
5.05
3.47
1.47
-0.88
-3.43
-5.90
-7.98
-9.49
-10.35
-10.63
-10.49
-10.06
-9.45
-8.71
-7.87
-7.05
-6.43
-6.20
-6.56
-7.62
-9.34
-11.53
-13.89
-16.02
-17.45
-17.74
-16.56
-13.80
-9.60
-4.43
1.04
6.06
10.02
12.59
13.79
13.99
13.63
13.12
12.70
12.39
12.11
11.73
11.21
10.55
9.78
8.94
7.96
6.79
5.38
3.75
2.09
0.69
-0.09
0.05
1.26
3.50
6.54
10.07
13.77
17.37
20.62
23.29
25.12
25.83
25.18
23.05
19.48
14.76
9.40
4.16
-0.11
-2.64
-2.91
-0.77
3.48
9.23
15.66
21.91
27.32
31.50
34.34
35.96
36.51
36.17
35.12
33.54
31.69
29.86
28.26
26.83
25.19
22.71
18.69
12.68
4.65
-5.03
-15.43
-25.52
-34.39
-41.59
-47.12
-51.43
-54.90
-57.93
-60.83
-63.31
-65.04
-65.76
-65.55
-64.94
-64.68
-64.94
-65.56
-66.16
-65.49
-62.29
-55.61
-45.16
-31.85
-17.36
-2.71
11.31
24.23
36.93
50.42
65.62
82.84
101.07
118.74
135.31
150.62
159.39
157.03
141.62
115.78
84.27
52.69
19.33
-17.53
-58.44
-103.41
-149.22
-192.85
-232.22
-259.87
-270.49
-262.32
-236.92
-198.63
-153.05
-105.31
-60.36
-21.86
8.47
29.97
43.31
50.44
53.37
53.17
51.70
49.21
46.34
44.00
42.00
39.57
36.20
31.95
27.29
23.18
20.74
21.44
26.77
37.22
52.77
70.89
89.38
105.90
118.01
123.69
122.31
114.88
103.01
88.24
71.49
52.95
32.27
8.90
-16.88
-43.46
-68.13
-88.72
-104.42
-115.83
-124.21
-127.84
-125.10
-115.91
-102.04
-85.51
-68.09
-51.36
-35.13
-19.24
-3.44
12.51
29.28
45.29
59.41
70.39
77.01
78.73
75.84
69.44
60.68
50.44
39.17
27.38
15.37
3.48
-7.81
-18.07
-26.93
-34.37
-40.34
-44.48
-45.81
-43.35
-36.56
-25.64
-11.52
4.65
22.09
40.87
61.79
85.73
112.42
139.84
164.37
181.78
188.70
183.65
167.40
142.61
112.99
82.34
53.93
30.03
11.67
-1.31
-10.14
-16.52
-21.82
-26.25
-28.82
-27.83
-21.93
-11.10
3.04
17.51
28.76
33.74
30.66
19.43
1.53
-20.58
-44.23
-66.84
-86.30
-101.08
-110.31
-113.81
-112.19
-106.95
-100.57
-96.26
-96.67
-102.95
-114.27
-128.33
-142.10
-152.82
-158.50
-158.35
-153.00
-143.33
-130.01
-113.44
-94.06
-72.43
-49.35
-25.34
-0.81
23.38
46.65
68.67
89.01
106.83
120.55
126.67
123.35
114.07
101.48
87.18
71.93
56.96
43.20
31.27
21.27
13.50
8.38
5.68
5.08
6.11
8.01
9.54
9.69
7.62
3.57
-1.40
-6.31
-10.19
-12.40
-12.65
-11.41
-6.61
1.87
12.28
21.78
27.80
29.27
26.39
20.20
10.94
-0.25
-12.59
-25.13
-36.79
-46.87
-55.10
-61.88
-65.52
-65.75
-62.62
-56.73
-48.81
-39.51
-29.57
-19.97
-11.82
-6.20
-4.28
-6.50
-12.82
-22.39
-33.65
-44.62
-53.30
-58.05
-57.68
-51.98
-41.22
-26.37
-8.78
9.99
28.30
44.66
57.87
67.21
72.32
73.47
71.41
67.28
62.39
57.92
54.72
53.19
53.26
54.32
55.57
56.18
55.41
52.85
48.36
42.13
34.55
26.09
17.16
8.10
-0.91
-9.74
-18.29
-26.31
-33.48
-39.44
-43.95
-46.95
-48.60
-49.27
-49.34
-49.08
-48.46
-47.13
-44.50
-39.79
-32.30
-21.72
-8.41
6.45
21.20
34.03
43.57
49.09
50.66
48.97
44.91
39.19
32.36
24.93
17.54
10.98
6.05
3.47
3.81
7.29
13.67
22.34
32.50
43.19
53.29
61.54
66.76
68.04
64.86
57.01
44.69
28.64
10.01
-9.89
-30.01
-49.57
-67.80
-82.62
-91.77
-94.19
-90.16
-80.66
-67.12
-51.47
-35.84
-22.24
-12.06
-5.80
-3.16
-3.02
-3.83
-4.22
-3.36
-0.93
3.00
8.08
13.89
19.81
25.45
30.61
35.76
40.23
43.66
45.98
47.43
48.49
49.32
49.87
49.94
49.25
47.49
44.77
41.53
37.05
32.49
28.45
24.95
21.63
17.89
13.09
6.90
-0.55
-8.95
-17.52
-25.72
-33.22
-39.88
-45.83
-51.43
-57.53
-63.88
-70.00
-74.94
-77.76
-77.59
-73.82
-66.47
-56.30
-44.59
-32.87
-22.61
-14.63
-9.12
-5.51
-2.67
0.54
4.96
10.78
17.54
24.25
29.74
32.51
31.38
26.17
17.84
8.43
0.67
-2.94
-1.04
6.08
16.38
26.99
35.08
38.83
37.84
33.30
26.35
18.10
9.47
0.96
-6.90
-13.45
-18.02
-20.07
-19.25
-15.75
-10.01
-2.70
5.51
14.10
22.58
30.28
36.31
40.07
40.42
36.69
28.84
17.56
4.01
-10.64
-25.76
-41.37
-56.98
-72.16
-86.51
-99.68
-111.07
-119.80
-125.16
-127.11
-126.40
-122.92
-116.81
-108.75
-99.86
-90.82
-81.20
-69.71
-55.02
-36.44
-12.36
17.68
52.34
88.94
125.24
160.62
196.15
233.47
262.41
274.44
267.49
245.97
214.83
176.50
132.31
84.65
36.92
-7.32
-43.84
-70.60
-88.75
-101.71
-112.88
-125.35
-138.85
-152.35
-164.68
-173.60
-177.42
-175.78
-169.54
-159.62
-146.34
-129.32
-108.38
-83.77
-55.35
-23.30
11.28
45.74
77.51
104.85
126.98
143.35
153.50
157.62
156.24
150.18
140.55
128.85
116.53
104.63
93.19
81.46
68.52
53.66
36.62
17.79
-1.66
-20.15
-36.08
-48.38
-56.72
-61.46
-63.43
-63.51
-62.26
-59.64
-55.22
-48.48
-39.33
-28.31
-16.50
-5.41
3.34
8.44
9.16
5.62
-1.21
-9.76
-18.26
-25.21
-29.58
-30.77
-28.36
-21.93
-11.13
3.98
22.68
43.56
64.82
84.86
102.68
117.87
130.31
139.64
145.08
145.49
139.99
128.46
111.93
92.64
73.53
57.60
47.20
43.57
46.81
56.11
69.80
85.47
99.87
109.26
110.14
100.25
79.52
50.25
16.63
-16.57
-45.29
-67.21
-81.96
-90.72
-95.33
-97.42
-97.76
-96.05
-91.15
-81.66
-66.87
-47.31
-24.85
-2.15
18.15
34.19
45.04
50.66
52.03
51.13
50.88
54.33
63.15
76.03
88.34
93.42
85.39
61.98
25.80
-16.63
-57.75
-91.77
-116.12
-130.91
-137.21
-135.59
-125.90
-108.29
-84.34
-57.49
-32.28
-12.73
-1.10
2.65
0.48
-4.91
-11.14
-16.78
-21.37
-25.20
-28.65
-31.89
-34.81
-37.18
-38.87
-40.03
-40.96
-42.08
-43.78
-46.30
-49.78
-54.22
-59.50
-65.33
-71.39
-77.40
-83.18
-88.76
-94.23
-99.68
-105.04
-110.07
-114.43
-117.75
-119.83
-120.56
-119.87
-117.60
-113.52
-107.33
-98.81
-87.87
-74.63
-59.33
-42.26
-23.75
-4.14
16.11
36.34
55.72
73.32
88.25
99.87
107.92
112.56
114.27
113.66
111.23
107.20
101.50
94.04
84.87
74.44
63.59
53.42
45.12
39.69
37.87
40.00
45.95
54.89
65.25
74.87
81.44
83.12
78.98
69.28
55.14
38.12
19.72
1.12
-16.86
-33.53
-48.25
-60.39
-69.45
-75.28
-78.20
-78.97
-78.63
-78.31
-78.96
-81.14
-84.84
-89.49
-94.04
-97.26
-98.12
-96.17
-91.72
-85.73
-79.38
-73.68
-69.16
-65.68
-62.43
-57.88
-49.77
-35.51
-12.94
18.47
56.64
96.75
132.34
157.44
168.63
166.03
152.82
133.49
111.97
90.55
69.91
50.02
31.00
13.53
-1.44
-13.12
-21.30
-26.30
-28.65
-28.81
-27.04
-23.43
-18.05
-11.15
-3.24
4.97
12.63
18.84
22.87
24.33
23.13
19.44
13.46
5.40
-4.45
-15.64
-27.65
-39.74
-51.04
-60.62
-67.71
-71.89
-73.31
-72.41
-69.82
-66.41
-62.91
-59.62
-56.54
-53.49
-50.30
-47.29
-44.41
-41.51
-39.20
-38.17
-38.87
-41.36
-45.28
-50.02
-55.61
-61.34
-66.28
-71.08
-76.60
-83.21
-90.69
-98.36
-105.46
-112.56
-118.94
-123.34
-126.71
-130.20
-134.41
-139.33
-144.47
-148.84
-152.30
-151.66
-142.32
-122.72
-92.81
-53.55
-7.07
43.50
102.62
159.90
200.04
224.69
234.65
229.06
208.33
175.23
134.86
93.51
56.04
29.51
19.56
25.53
43.26
67.69
94.17
119.03
139.71
153.87
164.21
175.04
187.54
201.25
215.75
231.30
248.50
267.68
274.00
258.79
224.29
179.35
132.11
86.93
45.86
10.34
-18.47
-40.38
-53.95
-58.56
-55.92
-49.35
-42.09
-36.25
-32.73
-31.60
-32.88
-35.08
-36.07
-36.30
-37.69
-41.95
-49.65
-60.17
-72.25
-84.59
-95.01
-101.73
-104.17
-102.84
-98.85
-93.55
-88.31
-84.16
-81.56
-79.64
-77.01
-72.65
-66.30
-58.35
-49.46
-40.06
-30.49
-21.22
-12.96
-6.88
-4.25
-5.72
-10.94
-18.29
-25.15
-29.04
-28.67
-24.28
-17.38
-9.37
-1.21
6.72
14.58
23.21
33.31
44.70
56.19
65.84
72.60
76.12
76.59
74.74
72.32
71.37
73.31
78.63
86.68
97.32
110.08
123.96
133.35
133.21
122.71
105.47
88.53
71.73
54.58
37.28
20.93
7.57
-0.56
-2.38
1.15
7.08
11.24
10.75
3.89
-9.86
-29.87
-54.17
-80.04
-104.82
-126.27
-142.83
-152.74
-155.03
-149.70
-137.53
-119.58
-97.31
-72.77
-48.62
-27.90
-12.92
-5.38
-6.04
-14.54
-29.44
-48.59
-69.51
-89.65
-106.46
-117.19
-119.70
-112.78
-96.37
-71.64
-41.05
-7.95
23.89
51.04
71.09
82.57
85.49
81.51
73.46
64.27
56.08
49.80
45.23
41.64
37.44
31.89
25.96
21.91
21.97
27.19
37.28
51.05
67.24
83.32
97.48
109.37
119.59
128.01
132.80
130.91
119.36
96.53
60.83
13.22
-42.06
-98.59
-150.53
-194.64
-230.51
-259.59
-271.08
-258.25
-224.48
-181.76
-140.33
-102.95
-67.07
-29.15
12.24
55.14
92.54
116.78
123.53
114.13
94.67
73.29
57.20
50.34
52.94
59.83
65.81
68.23
67.73
66.38
65.68
65.64
65.06
62.58
56.79
47.83
37.64
29.26
25.06
25.67
30.04
36.08
40.80
41.57
36.95
26.99
13.32
-1.68
-15.60
-26.62
-33.86
-37.35
-37.89
-36.59
-34.71
-33.57
-34.55
-38.83
-46.86
-57.93
-70.24
-81.59
-90.53
-97.25
-103.43
-111.33
-122.41
-136.21
-150.21
-160.68
-163.95
-157.80
-141.92
-117.71
-87.56
-54.13
-19.76
13.66
44.80
73.01
98.35
121.63
144.08
166.49
188.49
208.26
222.87
229.30
225.45
210.64
185.44
151.29
109.93
63.34
14.01
-34.89
-79.69
-116.79
-143.39
-157.84
-159.43
-148.33
-125.61
-93.52
-55.80
-17.42
16.54
42.13
57.66
63.83
62.81
56.73
46.65
32.35
13.13
-10.95
-38.40
-66.34
-91.31
-110.28
-121.39
-123.85
-117.59
-102.77
-79.55
-48.48
-11.11
29.71
70.02
105.64
133.44
152.09
162.31
166.36
166.87
165.89
164.41
162.20
158.33
151.71
141.39
126.87
108.32
86.64
63.49
41.12
21.60
6.13
-5.32
-13.93
-21.41
-29.17
-37.95
-47.78
-58.31
-69.32
-80.78
-92.64
-104.56
-115.70
-124.88
-131.17
-134.34
-134.98
-134.21
-132.90
-131.22
-128.58
-123.93
-116.42
-105.81
-92.58
-77.49
-61.12
-43.44
-24.43
-4.72
13.90
28.77
37.47
39.29
36.26
32.75
33.99
43.50
61.05
82.41
100.87
110.09
106.55
90.61
65.65
36.55
7.38
-19.53
-43.34
-63.57
-79.22
-88.90
-91.63
-87.61
-77.73
-64.12
-49.69
-37.09
-27.59
-20.91
-15.97
-11.90
-8.55
-4.86
-0.51
3.87
7.18
8.84
8.96
7.51
3.91
-2.67
-9.86
-15.22
-17.64
-17.71
-16.26
-13.01
-6.57
5.40
25.16
57.51
104.23
161.87
222.63
278.57
325.05
361.26
389.28
389.80
353.04
285.20
204.74
127.73
61.11
5.89
-39.04
-74.92
-103.55
-123.35
-133.61
-135.91
-134.02
-132.23
-132.03
-133.67
-137.02
-142.77
-148.59
-152.25
-152.79
-151.63
-150.88
-151.98
-155.76
-158.15
-157.64
-151.74
-138.51
-117.00
-89.00
-57.55
-25.44
5.15
32.75
56.81
77.39
94.57
109.22
121.15
129.95
135.60
138.53
139.60
139.01
137.74
129.97
116.38
99.18
80.48
61.26
41.37
20.54
-1.28
-25.79
-53.18
-81.05
-107.03
-128.75
-143.87
-150.63
-144.25
-123.76
-91.32
-51.44
-8.94
30.79
63.33
86.32
99.05
102.23
95.75
79.74
55.41
26.31
-3.38
-29.56
-49.17
-61.69
-68.37
-72.86
-78.71
-88.01
-100.47
-115.19
-131.44
-148.52
-166.27
-178.08
-177.47
-160.97
-130.62
-91.52
-49.05
-8.55
31.13
70.66
109.85
147.23
182.02
210.27
230.04
240.50
241.44
233.14
215.31
188.00
151.73
108.39
61.05
14.00
-28.91
-65.34
-92.95
-110.14
-118.09
-121.07
-123.29
-126.12
-127.37
-123.64
-112.66
-94.44
-71.77
-48.67
-28.60
-13.18
-2.40
4.95
10.07
13.60
15.86
16.75
16.42
15.59
15.42
16.75
19.79
23.93
28.10
31.38
33.36
34.17
34.43
35.29
36.92
39.19
41.60
43.43
43.93
42.60
39.16
33.70
26.73
19.05
11.73
5.80
2.01
0.40
0.61
1.82
3.06
3.51
2.83
1.22
-0.90
-3.14
-5.79
-8.99
-13.05
-18.36
-25.10
-32.99
-41.56
-50.77
-59.67
-68.45
-76.72
-84.04
-89.99
-93.99
-95.15
-92.60
-86.21
-77.09
-67.58
-58.73
-51.25
-45.78
-42.70
-41.64
-41.46
-40.76
-38.09
-32.09
-19.27
3.19
35.59
75.35
118.39
160.81
200.35
236.93
260.19
263.99
249.65
223.31
189.64
150.74
108.86
67.92
32.26
4.46
-13.77
-23.80
-29.45
-34.93
-42.80
-53.37
-65.54
-77.98
-91.17
-103.13
-112.44
-118.63
-121.54
-120.31
-113.27
-98.99
-77.63
-51.50
-23.60
2.11
21.92
33.58
36.81
32.94
23.65
9.95
-7.80
-28.32
-50.07
-71.38
-90.67
-106.74
-119.12
-127.96
-133.65
-136.12
-134.14
-125.64
-108.50
-81.53
-45.45
-3.38
39.58
77.70
106.33
123.16
128.50
124.71
115.14
102.98
90.62
79.63
70.96
65.23
62.73
63.23
65.84
69.23
71.92
72.79
71.37
67.91
63.06
57.48
51.40
44.62
36.79
27.86
18.31
9.13
1.45
-3.90
-6.70
-7.39
-6.85
-6.13
-6.21
-7.84
-11.36
-16.75
-23.49
-30.58
-36.72
-40.60
-41.30
-38.50
-32.72
-25.07
-17.06
-10.00
-4.66
-1.01
1.62
4.22
7.71
12.54
18.62
25.37
32.01
37.79
42.09
44.42
44.30
41.31
35.07
25.53
13.12
-1.14
-15.88
-29.67
-41.40
-50.51
-56.91
-60.93
-62.97
-63.34
-62.20
-59.59
-55.56
-50.24
-43.93
-37.08
-30.19
-23.68
-17.75
-12.41
-7.58
-3.20
0.66
3.69
5.60
6.12
5.22
3.12
0.21
-3.13
-6.57
-9.95
-13.17
-16.18
-18.87
-21.04
-22.49
-23.05
-22.64
-21.27
-19.03
-16.06
-12.53
-8.64
-4.71
-1.14
1.67
3.35
3.78
3.06
1.52
-0.44
-2.46
-4.41
-6.27
-8.08
-9.89
-11.56
-12.81
-13.33
-12.88
-11.44
-9.24
-6.69
-4.28
-2.51
-1.69
-1.87
-2.83
-4.13
-5.24
-5.73
-5.34
-4.08
-2.18
0.09
2.63
5.54
9.13
13.71
19.45
26.36
34.22
42.34
49.92
56.21
60.69
63.07
63.26
61.33
57.63
52.64
46.39
38.92
30.56
22.03
14.25
8.05
3.96
2.31
3.09
5.15
7.16
8.11
7.51
5.23
1.12
-4.96
-12.85
-22.06
-33.16
-46.58
-62.10
-78.83
-95.58
-111.49
-126.27
-139.85
-146.53
-142.51
-127.41
-104.85
-79.53
-54.46
-30.79
-8.82
10.84
29.62
47.31
63.37
77.56
90.16
101.60
112.22
119.86
123.40
122.57
116.99
107.24
94.81
81.44
68.40
55.90
43.22
29.49
13.93
-4.49
-25.67
-48.15
-69.74
-88.15
-101.45
-108.36
-108.18
-101.10
-88.65
-72.40
-53.40
-32.45
-10.07
13.72
39.40
67.91
97.77
124.33
142.69
150.42
147.41
134.65
113.51
85.83
54.07
21.03
-10.81
-41.16
-68.99
-93.47
-114.23
-131.35
-145.29
-156.76
-160.86
-156.14
-142.87
-122.05
-95.73
-66.52
-37.13
-9.95
13.25
32.09
46.86
57.97
66.42
72.85
77.72
81.40
84.27
86.72
89.42
92.86
95.21
96.04
95.53
94.74
95.43
99.19
106.45
116.09
125.07
128.82
122.87
103.82
70.63
24.61
-31.60
-94.99
-162.58
-226.27
-274.32
-296.33
-289.11
-256.76
-207.11
-148.79
-90.01
-37.82
2.80
29.09
41.02
41.05
33.46
23.05
13.54
7.13
4.75
6.53
11.40
17.31
21.91
23.67
22.49
19.46
16.54
15.78
18.62
24.98
33.27
41.30
47.27
50.86
51.95
51.12
49.22
47.07
44.97
42.62
39.34
34.46
27.60
18.76
8.51
-2.06
-11.54
-18.69
-22.80
-23.82
-22.30
-19.18
-15.51
-12.07
-9.16
-6.63
-4.29
-2.06
-0.12
1.28
2.04
2.56
3.84
6.52
11.57
19.08
27.78
35.51
40.09
40.07
35.11
25.84
13.51
-0.36
-14.32
-26.79
-36.05
-40.43
-38.84
-31.29
-19.25
-5.58
6.24
12.94
12.59
5.35
-6.71
-20.47
-33.06
-42.61
-48.27
-50.15
-48.94
-45.44
-40.33
-34.15
-27.38
-20.47
-13.78
-7.57
-2.03
2.71
6.64
9.77
12.10
13.62
14.25
13.98
12.77
10.73
8.07
5.16
2.33
-0.26
-2.71
-5.50
-8.84
-12.64
-16.59
-20.16
-22.82
-24.25
-24.43
-23.62
-22.23
-20.45
-18.55
-16.86
-15.68
-15.13
-15.13
-15.36
-15.46
-15.15
-13.92
-11.59
-8.14
-3.64
1.98
8.85
17.00
26.22
36.13
46.63
57.29
67.31
75.80
82.11
85.97
87.40
86.63
84.11
80.91
77.71
74.46
70.51
65.10
57.59
47.68
35.48
18.21
-3.36
-25.42
-43.52
-55.28
-60.78
-61.32
-58.29
-52.85
-45.92
-37.83
-29.17
-20.97
-14.32
-9.81
-7.40
-6.58
-6.57
-6.46
-4.95
-1.25
4.43
10.98
16.89
20.80
21.89
20.14
16.72
12.83
9.72
8.00
7.41
7.11
6.07
3.52
-0.70
-6.05
-11.34
-15.31
-17.23
-17.07
-15.24
-12.27
-8.58
-4.36
0.40
5.95
12.69
20.91
30.58
41.24
51.82
60.80
66.68
67.19
61.19
49.01
32.32
13.48
-5.16
-21.84
-35.50
-45.66
-52.06
-54.43
-52.74
-47.44
-39.59
-30.63
-21.94
-14.46
-8.48
-3.82
0.07
3.59
6.81
9.47
11.27
12.04
11.91
11.15
10.09
9.06
8.28
7.87
7.86
8.26
9.07
10.32
12.01
14.14
16.67
19.47
22.31
24.92
27.05
28.55
29.33
29.30
28.31
26.22
22.89
18.40
13.08
7.55
2.57
-1.16
-3.22
-3.65
-2.92
-1.82
-1.17
-1.53
-3.01
-5.24
-7.46
-8.85
-8.77
-7.06
-4.18
-1.00
1.40
2.21
1.20
-1.17
-3.89
-5.78
-5.88
-3.77
0.36
5.87
11.80
17.17
21.07
22.82
22.07
18.89
13.71
7.30
0.62
-5.43
-10.12
-13.06
-14.33
-14.32
-13.67
-13.04
-12.90
-13.37
-14.29
-15.31
-16.10
-16.53
-16.74
-17.04
-17.80
-19.29
-21.60
-24.64
-28.22
-32.04
-35.75
-39.07
-41.76
-43.74
-45.05
-45.80
-46.13
-46.10
-45.70
-44.90
-43.67
-42.04
-40.02
-37.65
-34.94
-31.96
-28.88
-26.03
-23.76
-22.31
-21.64
-21.39
-21.10
-20.43
-19.36
-18.21
-17.52
-17.73
-19.01
-21.12
-23.57
-25.78
-27.32
-28.02
-27.95
-27.24
-25.98
-24.09
-21.36
-17.56
-12.57
-6.52
0.25
7.24
13.97
20.03
25.16
29.19
32.01
33.64
34.22
33.97
33.18
32.12
30.94
29.68
28.33
26.85
25.27
23.65
22.05
20.48
18.92
17.31
15.56
13.64
11.49
9.13
6.55
3.72
0.61
-2.75
-6.24
-9.62
-12.57
-14.81
-16.11
-16.49
-16.07
-15.09
-13.79
-12.27
-10.58
-8.69
-6.64
-4.56
-2.67
-1.15
-0.09
0.58
1.03
1.47
2.04
2.74
3.51
4.23
4.80
5.18
5.39
5.50
5.60
5.76
6.02
6.36
6.69
6.95
7.14
7.34
7.67
8.21
8.94
9.69
10.22
10.29
9.84
8.98
7.95
7.00
6.23
5.61
4.98
4.22
3.32
2.43
1.78
1.51
1.63
2.00
2.42
2.74
2.92
3.03
3.14
3.25
3.28
3.07
2.54
1.66
0.48
-0.89
-2.42
-4.08
-5.88
-7.80
-9.75
-11.54
-12.99
-13.92
-14.26
-14.02
-13.30
-12.21
-10.85
-9.23
-7.34
-5.21
-2.93
-0.65
1.44
3.21
4.60
5.64
6.36
6.77
6.82
6.52
5.93
5.17
4.41
3.75
3.24
2.83
2.48
2.16
1.87
1.62
1.36
1.00
0.46
-0.30
-1.24
-2.26
-3.21
-4.03
-4.73
-5.39
-6.15
-7.05
-8.05
-8.99
-9.67
-9.95
-9.82
-9.37
-8.76
-8.13
-7.54
-6.93
-6.24
-5.38
-4.31
-3.10
-1.81
-0.57
0.56
1.52
2.33
3.00
3.52
3.88
4.01
3.91
3.59
3.17
2.73
2.35
2.00
1.62
1.15
0.60
0.05
-0.42
-0.74
-0.97
-1.23
-1.61
-2.15
-2.77
-3.36
-3.83
-4.16
-4.37
-4.58
-4.86
-5.26
-5.77
-6.35
-6.96
-7.56
-8.16
-8.79
-9.48
-10.23
-10.92
-11.41
-11.52
-11.20
-10.45
-9.45
-8.32
-7.19
-6.11
-5.10
-4.17
-3.35
-2.68
-2.09
-1.56
-0.98
-0.35
0.33
0.98
1.53
1.97
2.30
2.56
2.81
3.06
3.34
3.66
4.01
4.32
4.56
4.67
4.65
4.53
4.34
4.04
3.57
2.87
1.93
0.80
-0.44
-1.72
-3.04
-4.43
-5.91
-7.48
-9.07
-10.61
-12.04
-13.36
-14.58
-15.65
-16.46
-16.84
-16.63
-15.79
-14.39
-12.56
-10.41
-7.96
-5.21
-2.08
1.37
4.99
8.52
11.63
14.10
15.82
16.85
17.36
17.53
17.49
17.34
17.11
16.83
16.54
16.27
16.03
15.79
15.52
15.17
14.71
14.14
13.41
12.46
11.26
9.80
8.16
6.47
4.84
3.31
1.84
0.30
-1.39
-3.26
-5.31
-7.48
-9.69
-11.87
-13.85
-15.43
-16.36
-16.49
-15.78
-14.34
-12.36
-9.97
-7.22
-4.08
-0.59
3.07
6.56
9.54
11.77
13.25
14.22
14.97
15.72
16.49
17.14
17.52
17.54
17.25
16.78
16.23
15.63
14.91
13.95
12.70
11.20
9.55
7.90
6.31
4.80
3.30
1.75
0.12
-1.57
-3.25
-4.89
-6.50
-8.13
-9.85
-11.65
-13.44
-15.02
-16.15
-16.66
-16.46
-15.59
-14.14
-12.20
-9.81
-7.00
-3.80
-0.36
3.10
6.30
8.95
10.89
12.08
12.61
12.68
12.46
12.11
11.67
11.13
10.41
9.51
8.48
7.43
6.51
5.73
5.01
4.19
3.13
1.79
0.24
-1.36
-2.88
-4.28
-5.59
-6.90
-8.28
-9.77
-11.41
-13.21
-15.15
-17.17
-19.09
-20.66
-21.62
-21.74
-20.87
-18.94
-15.91
-11.82
-6.81
-1.17
4.70
10.32
15.29
19.39
22.57
24.89
26.48
27.41
27.73
27.46
26.71
25.64
24.44
23.26
22.14
21.04
19.90
18.68
17.46
16.36
15.50
14.86
14.32
13.69
12.87
11.87
10.86
10.02
9.42
8.94
8.29
7.19
5.47
3.13
0.36
-2.60
-5.51
-8.25
-10.72
-12.94
-14.88
-16.52
-17.79
-18.55
-18.68
-18.04
-16.65
-14.61
-12.16
-9.53
-6.95
-4.50
-2.25
-0.19
1.63
3.12
4.26
5.07
5.70
6.34
7.13
8.10
9.11
9.92
10.29
10.08
9.29
8.03
6.51
4.87
3.21
1.53
-0.16
-1.80
-3.27
-4.47
-5.35
-5.97
-6.48
-7.04
-7.69
-8.38
-8.97
-9.36
-9.61
-9.84
-10.25
-10.90
-11.75
-12.62
-13.36
-13.96
-14.55
-15.38
-16.65
-18.35
-20.27
-22.03
-23.25
-23.67
-23.19
-21.87
-19.84
-17.19
-14.00
-10.37
-6.44
-2.47
1.27
4.51
7.07
8.91
10.12
10.80
11.12
11.23
11.24
11.26
11.33
11.47
11.64
11.82
11.99
12.15
12.30
12.41
12.39
12.15
11.61
10.80
9.79
8.72
7.70
6.77
5.92
5.09
4.26
3.43
2.63
1.89
1.21
0.52
-0.25
-1.17
-2.23
-3.38
-4.52
-5.58
-6.53
-7.47
-8.52
-9.85
-11.53
-13.49
-15.56
-17.44
-18.81
-19.40
-19.05
-17.72
-15.53
-12.66
-9.41
-6.04
-2.77
0.23
2.93
5.28
7.27
8.87
10.03
10.64
10.67
10.13
9.07
7.71
6.24
4.86
3.72
2.87
2.31
2.04
2.06
2.37
2.98
3.84
4.87
6.00
7.17
8.32
9.37
10.21
10.69
10.76
10.40
9.69
8.74
7.63
6.36
4.92
3.29
1.52
-0.28
-1.95
-3.39
-4.61
-5.73
-6.97
-8.50
-10.39
-12.52
-14.60
-16.22
-17.03
-16.80
-15.52
-13.41
-10.76
-7.87
-4.92
-2.00
0.94
3.91
6.89
9.72
12.20
14.11
15.36
16.03
16.26
16.25
16.13
15.96
15.70
15.33
14.86
14.35
13.86
13.42
12.98
12.47
11.79
10.92
9.87
8.77
7.69
6.74
5.90
5.15
4.35
3.40
2.18
0.64
-1.20
-3.29
-5.49
-7.67
-9.68
-11.41
-12.80
-13.86
-14.69
-15.49
-16.47
-17.78
-19.46
-21.33
-23.03
-24.15
-24.35
-23.46
-21.55
-18.84
-15.62
-12.17
-8.69
-5.31
-2.12
0.82
3.47
5.77
7.71
9.26
10.42
11.21
11.69
11.91
11.97
11.96
11.97
12.12
12.47
13.00
13.63
14.16
14.37
14.13
13.42
12.36
11.17
10.02
8.97
7.97
6.89
5.64
4.21
2.67
1.13
-0.36
-1.80
-3.28
-4.84
-6.51
-8.24
-10.01
-11.72
-13.35
-14.82
-16.05
-16.92
-17.30
-17.03
-16.01
-14.24
-11.87
-9.17
-6.43
-3.85
-1.49
0.75
3.02
5.35
7.63
9.67
11.24
12.25
12.74
12.86
12.74
12.46
12.01
11.40
10.66
9.88
9.15
8.51
7.94
7.36
6.73
6.04
5.31
4.56
3.73
2.73
1.53
0.12
-1.38
-2.82
-4.12
-5.26
-6.30
-7.35
-8.45
-9.61
-10.83
-12.12
-13.56
-15.15
-16.87
-18.54
-19.90
-20.67
-20.61
-19.66
-17.87
-15.43
-12.57
-9.49
-6.34
-3.18
-0.06
3.03
6.04
8.90
11.47
13.63
15.24
16.24
16.63
16.51
16.02
15.31
14.50
13.63
12.78
11.97
11.22
10.49
9.66
8.63
7.30
5.66
3.83
1.96
0.22
-1.32
-2.67
-3.91
-5.21
-6.68
-8.36
-10.23
-12.16
-13.99
-15.63
-17.03
-18.32
-19.58
-20.87
-22.03
-22.80
-22.84
-21.85
-19.79
-16.76
-13.08
-9.11
-5.18
-1.46
1.95
5.05
7.82
10.21
12.18
13.69
14.77
15.52
15.99
16.21
16.17
15.84
15.22
14.38
13.44
12.57
11.87
11.37
11.02
10.72
10.36
9.83
9.05
8.00
6.69
5.20
3.58
1.86
0.05
-1.89
-3.95
-6.11
-8.28
-10.39
-12.41
-14.33
-16.10
-17.54
-18.40
-18.40
-17.39
-15.41
-12.70
-9.63
-6.50
-3.50
-0.71
1.87
4.23
6.26
7.91
9.12
9.94
10.47
10.84
11.09
11.20
11.12
10.83
10.35
9.77
9.19
8.68
8.22
7.69
6.93
5.84
4.41
2.72
0.95
-0.76
-2.32
-3.72
-5.03
-6.34
-7.70
-9.20
-10.90
-12.85
-15.07
-17.46
-19.77
-21.64
-22.67
-22.58
-21.22
-18.64
-15.08
-10.86
-6.34
-1.83
2.43
6.26
9.60
12.37
14.57
16.20
17.28
17.91
18.19
18.21
18.04
17.67
17.09
16.24
15.12
13.77
12.27
10.73
9.30
8.10
7.19
6.56
6.07
5.58
4.97
4.23
3.38
2.49
1.59
0.60
-0.60
-2.12
-4.02
-6.32
-8.94
-11.76
-14.59
-17.15
-19.10
-20.11
-19.99
-18.78
-16.68
-14.02
-11.04
-7.92
-4.72
-1.51
1.61
4.46
6.88
8.81
10.31
11.51
12.55
13.45
14.14
14.50
14.47
14.05
13.36
12.53
11.68
10.89
10.17
9.50
8.83
8.10
7.21
6.11
4.76
3.20
1.50
-0.24
-1.96
-3.58
-5.09
-6.47
-7.78
-9.08
-10.50
-12.14
-14.05
-16.12
-18.09
-19.58
-20.27
-19.99
-18.79
-16.91
-14.60
-12.05
-9.30
-6.33
-3.16
0.10
3.22
5.96
8.22
10.00
11.43
12.56
13.36
13.75
13.66
13.15
12.37
11.56
10.92
10.52
10.35
10.31
10.28
10.13
9.69
8.86
7.59
5.98
4.22
2.57
1.17
0.01
-1.07
-2.30
-3.78
-5.54
-7.42
-9.28
-11.02
-12.64
-14.24
-15.90
-17.69
-19.56
-21.38
-22.98
-24.15
-24.65
-24.33
-23.12
-21.07
-18.33
-15.11
-11.54
-7.78
-3.89
-0.00
3.77
7.26
10.29
12.72
14.49
15.60
16.13
16.22
16.05
15.81
15.58
15.42
15.26
15.05
14.74
14.33
13.86
13.33
12.72
11.98
11.04
9.88
8.54
7.10
5.64
4.21
2.79
1.35
-0.14
-1.67
-3.21
-4.72
-6.14
-7.49
-8.78
-10.08
-11.45
-12.95
-14.56
-16.17
-17.56
-18.46
-18.66
-18.02
-16.55
-14.39
-11.76
-8.84
-5.83
-2.82
0.13
2.95
5.60
8.02
10.16
12.02
13.61
14.92
15.94
16.60
16.87
16.75
16.30
15.63
14.86
14.08
13.32
12.51
11.57
10.45
9.10
7.57
5.96
4.42
3.06
1.93
0.96
-0.03
-1.21
-2.67
-4.37
-6.12
-7.76
-9.22
-10.51
-11.69
-12.84
-13.93
-14.92
-15.80
-16.67
-17.66
-18.85
-20.19
-21.41
-22.12
-21.96
-20.73
-18.44
-15.27
-11.56
-7.64
-3.77
-0.17
3.06
5.88
8.29
10.34
12.09
13.54
14.71
15.55
16.01
16.06
15.75
15.14
14.37
13.57
12.81
12.16
11.59
11.11
10.68
10.27
9.81
9.23
8.46
7.49
6.35
5.14
3.94
2.80
1.70
0.52
-0.77
-2.23
-3.81
-5.44
-7.05
-8.60
-10.09
-11.55
-13.04
-14.62
-16.32
-18.13
-19.95
-21.58
-22.74
-23.13
-22.55
-20.95
-18.45
-15.32
-11.84
-8.27
-4.78
-1.47
1.60
4.35
6.74
8.72
10.30
11.52
12.43
13.06
13.41
13.47
13.31
13.00
12.68
12.44
12.30
12.20
12.02
11.64
11.02
10.20
9.28
8.38
7.55
6.81
6.11
5.40
4.63
3.80
2.94
2.04
1.05
-0.11
-1.50
-3.07
-4.71
-6.27
-7.61
-8.69
-9.57
-10.40
-11.33
-12.48
-13.90
-15.59
-17.50
-19.48
-21.28
-22.54
-22.93
-22.21
-20.37
-17.58
-14.17
-10.47
-6.80
-3.33
-0.18
2.61
5.01
7.00
8.58
9.80
10.73
11.49
12.13
12.72
13.22
13.59
13.74
13.65
13.35
12.93
12.52
12.22
12.03
11.84
11.49
10.82
9.77
8.38
6.80
5.17
3.65
2.32
1.23
0.36
-0.36
-1.06
-1.91
-3.04
-4.47
-6.09
-7.67
-9.01
-10.02
-10.81
-11.63
-12.77
-14.35
-16.31
-18.43
-20.36
-21.77
-22.41
-22.10
-20.78
-18.51
-15.49
-11.98
-8.30
-4.71
-1.43
1.46
3.94
6.04
7.81
9.33
10.66
11.83
12.85
13.65
14.17
14.32
14.11
13.62
13.01
12.48
12.15
12.08
12.18
12.31
12.29
11.98
11.31
10.29
8.98
7.52
6.03
4.60
3.29
2.07
0.86
-0.45
-1.95
-3.65
-5.44
-7.17
-8.70
-9.97
-11.01
-11.97
-13.01
-14.25
-15.76
-17.49
-19.34
-21.21
-22.91
-24.25
-24.98
-24.87
-23.77
-21.67
-18.73
-15.25
-11.55
-7.93
-4.57
-1.56
1.10
3.40
5.39
7.11
8.63
10.02
11.28
12.36
13.15
13.58
13.68
13.58
13.50
13.64
14.06
14.66
15.24
15.61
15.66
15.39
14.87
14.15
13.28
12.32
11.32
10.33
9.39
8.44
7.32
5.89
4.08
2.02
-0.08
-1.97
-3.62
-5.14
-6.80
-8.82
-11.22
-13.87
-16.55
-19.11
-21.55
-23.94
-26.33
-28.60
-30.45
-31.54
-31.62
-30.66
-28.80
-26.23
-23.14
-19.60
-15.65
-11.37
-6.96
-2.71
1.10
4.27
6.79
8.77
10.35
11.67
12.83
13.86
14.81
15.74
16.71
17.74
18.82
19.87
20.82
21.58
22.09
22.29
22.12
21.55
20.60
19.37
17.97
16.51
15.05
13.58
12.02
10.33
8.47
6.49
4.45
2.42
0.40
-1.64
-3.73
-5.88
-8.04
-10.15
-12.14
-14.03
-15.92
-17.90
-20.01
-22.12
-23.99
-25.28
-25.71
-25.14
-23.54
-21.02
-17.71
-13.78
-9.39
-4.79
-0.25
3.94
7.58
10.59
13.04
15.02
16.61
17.81
18.59
18.92
18.84
18.53
18.15
17.89
17.79
17.79
17.74
17.49
16.96
16.14
15.12
13.98
12.80
11.59
10.33
9.01
7.63
6.21
4.79
3.37
1.89
0.30
-1.47
-3.43
-5.53
-7.67
-9.74
-11.67
-13.45
-15.19
-17.00
-19.05
-21.39
-23.96
-26.55
-28.83
-30.47
-31.22
-30.99
-29.79
-27.76
-25.02
-21.68
-17.87
-13.68
-9.26
-4.77
-0.44
3.54
7.04
9.99
12.39
14.32
15.87
17.08
17.94
18.40
18.44
18.13
17.63
17.17
16.89
16.87
16.98
17.10
17.02
16.65
15.94
14.90
13.61
12.12
10.52
8.89
7.28
5.73
4.23
2.79
1.34
-0.15
-1.77
-3.60
-5.66
-7.89
-10.17
-12.37
-14.45
-16.47
-18.59
-20.95
-23.56
-26.26
-28.74
-30.68
-31.80
-31.91
-30.93
-28.82
-25.63
-21.48
-16.57
-11.19
-5.65
-0.26
4.73
9.15
12.84
15.72
17.77
19.07
19.81
20.23
20.63
21.18
21.93
22.79
23.54
24.01
24.10
23.84
23.35
22.73
22.01
21.13
20.00
18.58
16.93
15.21
13.57
12.08
10.67
9.20
7.50
5.51
3.26
0.86
-1.58
-3.96
-6.26
-8.53
-10.76
-13.00
-15.24
-17.52
-19.88
-22.38
-25.09
-27.96
-30.81
-33.26
-34.85
-35.15
-33.87
-31.03
-26.88
-21.87
-16.45
-10.97
-5.65
-0.55
4.26
8.68
12.55
15.69
17.99
19.48
20.34
20.83
21.18
21.51
21.83
22.02
22.00
21.74
21.33
20.90
20.56
20.35
20.16
19.84
19.30
18.48
17.43
16.28
15.07
13.85
12.55
11.10
9.48
7.65
5.62
3.39
0.97
-1.61
-4.25
-6.84
-9.26
-11.44
-13.43
-15.37
-17.40
-19.65
-22.13
-24.69
-27.05
-28.90
-29.89
-29.79
-28.48
-26.01
-22.51
-18.19
-13.32
-8.17
-3.03
1.81
6.13
9.84
12.92
15.48
17.61
19.37
20.76
21.77
22.39
22.63
22.57
22.26
21.74
21.03
20.18
19.25
18.34
17.51
16.78
16.09
15.31
14.32
13.07
11.55
9.80
7.89
5.90
3.90
1.93
0.01
-1.85
-3.67
-5.44
-7.15
-8.79
-10.35
-11.81
-13.21
-14.61
-16.05
-17.62
-19.38
-21.38
-23.61
-25.94
-28.09
-29.67
-30.29
-29.63
-27.57
-24.19
-19.76
-14.64
-9.22
-3.86
1.16
5.62
9.36
12.30
14.41
15.80
16.63
17.09
17.37
17.62
17.92
18.29
18.70
19.09
19.38
19.49
19.36
18.97
18.35
17.56
16.61
15.46
14.05
12.39
10.54
8.72
7.10
5.76
4.61
3.43
1.98
0.14
-2.04
-4.43
-6.88
-9.36
-11.93
-14.64
-17.52
-20.46
-23.30
-25.90
-28.13
-29.92
-31.15
-31.66
-31.24
-29.69
-26.97
-23.20
-18.69
-13.80
-8.88
-4.14
0.26
4.28
7.84
10.84
13.17
14.77
15.67
16.02
16.00
15.81
15.57
15.26
14.81
14.15
13.27
12.23
11.13
10.06
8.99
7.83
6.48
4.84
2.96
0.95
-1.06
-2.98
-4.78
-6.49
-8.15
-9.86
-11.70
-13.76
-16.06
-18.56
-21.11
-23.53
-25.73
-27.70
-29.62
-31.69
-34.06
-36.68
-39.25
-41.28
-42.13
-41.29
-38.36
-33.30
-26.35
-18.02
-9.00
0.00
8.31
15.38
20.84
24.50
26.33
26.47
25.19
22.85
19.83
16.52
13.28
10.39
8.09
6.48
5.65
5.59
6.27
7.60
9.42
11.53
13.67
15.59
17.09
18.10
18.59
18.62
18.26
17.55
16.56
15.33
13.91
12.33
10.58
8.59
6.30
3.65
0.64
-2.67
-6.22
-9.95
-13.82
-17.77
-21.57
-24.83
-26.99
-27.54
-26.14
-22.80
-17.91
-12.08
-5.94
0.04
5.59
10.57
14.88
18.40
21.03
22.74
23.64
23.94
23.89
23.64
23.29
22.85
22.32
21.73
21.12
20.56
20.07
19.63
19.18
18.64
17.92
16.89
15.47
13.65
11.52
9.22
6.96
4.85
2.94
1.19
-0.51
-2.30
-4.27
-6.49
-8.97
-11.65
-14.43
-17.23
-20.01
-22.79
-25.65
-28.67
-31.88
-35.22
-38.48
-41.34
-43.38
-44.19
-43.43
-41.00
-36.98
-31.69
-25.57
-19.02
-12.38
-5.87
0.39
6.27
11.65
16.40
20.39
23.56
25.90
27.45
28.32
28.64
28.54
28.18
27.70
27.21
26.80
26.47
26.20
25.92
25.59
25.18
24.66
24.02
23.21
22.18
20.89
19.30
17.47
15.43
13.27
11.04
8.76
6.44
4.04
1.50
-1.18
-4.00
-6.86
-9.68
-12.38
-14.94
-17.43
-20.01
-22.86
-26.09
-29.71
-33.49
-37.04
-39.79
-41.16
-40.72
-38.33
-34.17
-28.64
-22.31
-15.69
-9.18
-3.07
2.45
7.26
11.30
14.64
17.39
19.67
21.54
22.98
23.93
24.35
24.29
23.90
23.34
22.80
22.36
22.02
21.76
21.50
21.19
20.73
20.05
19.05
17.72
16.09
14.29
12.44
10.60
8.77
6.88
4.87
2.72
0.45
-1.85
-4.14
-6.39
-8.66
-10.99
-13.44
-15.99
-18.64
-21.38
-24.24
-27.23
-30.27
-33.17
-35.59
-37.08
-37.18
-35.64
-32.39
-27.64
-21.76
-15.20
-8.38
-1.66
4.63
10.23
14.90
18.52
21.09
22.71
23.60
23.96
24.01
23.88
23.66
23.40
23.11
22.74
22.26
21.63
20.83
19.88
18.79
17.57
16.20
14.68
13.00
11.16
9.20
7.18
5.15
3.19
1.35
-0.42
-2.19
-4.12
-6.36
-8.94
-11.76
-14.62
-17.32
-19.77
-22.06
-24.41
-27.03
-30.03
-33.32
-36.60
-39.51
-41.65
-42.63
-42.18
-40.13
-36.46
-31.36
-25.21
-18.45
-11.49
-4.68
1.75
7.65
12.87
17.26
20.72
23.21
24.80
25.62
25.87
25.74
25.42
25.09
24.86
24.74
24.67
24.56
24.31
23.89
23.31
22.56
21.61
20.44
19.00
17.34
15.60
13.89
12.27
10.67
8.97
7.04
4.81
2.34
-0.29
-2.97
-5.60
-8.15
-10.58
-12.90
-15.19
-17.52
-20.00
-22.70
-25.61
-28.64
-31.69
-34.67
-37.51
-40.08
-42.13
-43.33
-43.30
-41.76
-38.63
-34.04
-28.28
-21.72
-14.74
-7.69
-0.86
5.48
11.12
15.91
19.77
22.71
24.80
26.16
26.95
27.36
27.49
27.44
27.20
26.76
26.12
25.32
24.46
23.64
22.95
22.36
21.78
21.05
20.04
18.73
17.18
15.53
13.87
12.21
10.46
8.48
6.23
3.77
1.33
-0.86
-2.69
-4.24
-5.74
-7.45
-9.50
-11.88
-14.42
-16.97
-19.41
-21.76
-24.12
-26.63
-29.42
-32.51
-35.80
-39.04
-41.81
-43.61
-43.98
-42.63
-39.54
-34.94
-29.19
-22.72
-15.85
-8.84
-1.92
4.65
10.59
15.60
19.53
22.36
24.22
25.36
26.02
26.37
26.53
26.54
26.41
26.17
25.82
25.37
24.86
24.31
23.70
23.04
22.28
21.38
20.30
19.02
17.54
15.86
14.01
12.03
9.97
7.88
5.81
3.77
1.76
-0.30
-2.46
-4.77
-7.23
-9.79
-12.37
-14.90
-17.33
-19.71
-22.14
-24.72
-27.53
-30.50
-33.41
-35.97
-37.81
-38.66
-38.30
-36.65
-33.72
-29.59
-24.45
-18.53
-12.19
-5.75
0.49
6.29
11.48
15.93
19.53
22.22
23.99
24.94
25.30
25.31
25.15
24.96
24.74
24.49
24.21
23.90
23.59
23.25
22.80
22.16
21.28
20.14
18.78
17.26
15.62
13.91
12.14
10.31
8.43
6.49
4.49
2.45
0.39
-1.70
-3.84
-6.06
-8.40
-10.84
-13.28
-15.63
-17.83
-19.88
-21.89
-24.02
-26.41
-29.17
-32.30
-35.71
-39.21
-42.43
-44.90
-46.14
-45.77
-43.61
-39.79
-34.62
-28.55
-22.03
-15.39
-8.84
-2.50
3.53
9.15
14.22
18.58
22.09
24.65
26.24
26.98
27.05
26.75
26.29
25.83
25.42
25.04
24.66
24.23
23.77
23.24
22.62
21.86
20.90
19.74
18.38
16.87
15.25
13.52
11.68
9.74
7.73
5.70
3.67
1.67
-0.33
-2.37
-4.47
-6.67
-8.94
-11.30
-13.71
-16.16
-18.62
-21.02
-23.35
-25.66
-28.06
-30.70
-33.65
-36.84
-39.98
-42.63
-44.25
-44.45
-43.03
-40.03
-35.65
-30.20
-23.95
-17.10
-9.86
-2.51
4.62
11.14
16.70
21.06
24.15
26.06
27.01
27.26
27.14
26.94
26.93
27.23
27.86
28.65
29.36
29.78
29.79
29.38
28.60
27.54
26.22
24.63
22.79
20.74
18.61
16.48
14.38
12.27
10.03
7.58
4.95
2.21
-0.49
-3.10
-5.60
-8.05
-10.45
-12.77
-14.94
-16.90
-18.69
-20.42
-22.31
-24.55
-27.25
-30.33
-33.55
-36.50
-38.66
-39.55
-38.85
-36.50
-32.66
-27.71
-22.03
-15.93
-9.61
-3.24
3.02
8.91
14.16
18.55
21.98
24.50
26.22
27.30
27.86
27.99
27.79
27.35
26.81
26.27
25.80
25.41
25.05
24.67
24.19
23.58
22.83
21.93
20.84
19.52
17.96
16.20
14.31
12.38
10.45
8.52
6.52
4.43
2.25
0.03
-2.17
-4.36
-6.56
-8.88
-11.35
-13.93
-16.48
-18.86
-21.01
-23.00
-25.02
-27.29
-29.98
-33.10
-36.45
-39.68
-42.29
-43.87
-44.05
-42.66
-39.70
-35.31
-29.73
-23.26
-16.20
-8.93
-1.81
4.81
10.61
15.44
19.27
22.19
24.34
25.82
26.70
27.01
26.82
26.24
25.49
24.79
24.30
24.09
24.09
24.16
24.09
23.70
22.83
21.43
19.55
17.35
15.03
12.79
10.76
8.94
7.27
5.63
4.00
2.36
0.71
-0.99
-2.85
-4.95
-7.33
-9.90
-12.50
-14.92
-17.07
-19.04
-21.02
-23.24
-25.85
-28.83
-32.05
-35.21
-37.98
-39.97
-40.82
-40.23
-38.07
-34.40
-29.49
-23.71
-17.44
-11.00
-4.58
1.68
7.69
13.27
18.21
22.29
25.37
27.46
28.71
29.33
29.58
29.64
29.56
29.28
28.72
27.83
26.66
25.39
24.20
23.16
22.22
21.16
19.72
17.76
15.29
12.49
9.63
6.95
4.55
2.38
0.28
-1.86
-4.14
-6.53
-8.93
-11.23
-13.40
-15.47
-17.51
-19.64
-21.93
-24.43
-27.13
-29.89
-32.51
-34.69
-36.03
-36.19
-34.91
-32.15
-28.08
-23.03
-17.35
-11.39
-5.42
0.33
5.71
10.54
14.70
18.09
20.67
22.45
23.52
24.02
24.14
24.03
23.75
23.35
22.82
22.17
21.44
20.70
20.01
19.34
18.60
17.63
16.33
14.66
12.73
10.65
8.58
6.61
4.74
2.98
1.29
-0.39
-2.16
-4.10
-6.31
-8.81
-11.53
-14.34
-17.07
-19.62
-21.94
-24.10
-26.23
-28.47
-30.99
-33.78
-36.74
-39.53
-41.67
-42.64
-41.97
-39.49
-35.27
-29.69
-23.23
-16.41
-9.59
-3.00
3.26
9.13
14.47
19.11
22.91
25.77
27.68
28.78
29.20
29.12
28.67
27.98
27.20
26.46
25.85
25.39
25.02
24.62
24.08
23.37
22.51
21.52
20.36
18.93
17.10
14.82
12.14
9.23
6.30
3.51
0.92
-1.47
-3.76
-6.01
-8.26
-10.52
-12.76
-14.99
-17.17
-19.32
-21.44
-23.62
-25.98
-28.66
-31.74
-35.10
-38.38
-41.05
-42.48
-42.17
-39.92
-35.86
-30.40
-24.06
-17.32
-10.48
-3.72
2.84
9.03
14.63
19.41
23.19
25.89
27.54
28.30
28.34
27.87
27.10
26.19
25.28
24.45
23.68
22.92
22.12
21.20
20.15
18.98
17.70
16.28
14.71
12.97
11.07
9.04
6.93
4.76
2.50
0.13
-2.40
-5.02
-7.65
-10.16
-12.47
-14.58
-16.57
-18.62
-20.92
-23.62
-26.79
-30.35
-34.03
-37.39
-39.86
-40.87
-40.05
-37.29
-32.83
-27.13
-20.75
-14.12
-7.54
-1.18
4.87
10.50
15.58
19.98
23.61
26.39
28.32
29.41
29.71
29.33
28.47
27.35
26.17
25.08
24.12
23.28
22.50
21.72
20.87
19.88
18.69
17.26
15.59
13.73
11.74
9.70
7.64
5.53
3.31
0.92
-1.68
-4.47
-7.41
-10.35
-13.17
-15.79
-18.16
-20.39
-22.65
-25.14
-27.98
-31.09
-34.24
-36.99
-38.88
-39.51
-38.62
-36.11
-32.08
-26.72
-20.36
-13.42
-6.32
0.54
6.87
12.52
17.43
21.58
24.94
27.45
29.12
30.01
30.29
30.18
29.84
29.41
28.93
28.43
27.89
27.30
26.61
25.73
24.55
23.04
21.22
19.22
17.23
15.35
13.64
12.07
10.53
8.93
7.18
5.23
3.06
0.67
-1.88
-4.49
-7.05
-9.45
-11.68
-13.79
-15.87
-18.04
-20.35
-22.81
-25.42
-28.19
-31.09
-34.01
-36.70
-38.78
-39.82
-39.43
-37.44
-33.90
-29.05
-23.26
-16.91
-10.35
-3.87
2.28
7.92
12.88
17.02
20.26
22.53
23.85
24.33
24.19
23.71
23.13
22.63
22.22
21.87
21.51
21.13
20.75
20.39
20.06
19.69
19.19
18.42
17.36
16.03
14.56
13.08
11.68
10.35
8.97
7.41
5.54
3.33
0.82
-1.89
-4.72
-7.62
-10.54
-13.42
-16.16
-18.69
-21.01
-23.22
-25.51
-28.07
-30.93
-33.97
-36.88
-39.27
-40.73
-40.98
-39.84
-37.27
-33.37
-28.38
-22.65
-16.60
-10.62
-5.00
0.10
4.64
8.62
12.02
14.79
16.88
18.25
18.98
19.19
19.07
18.77
18.40
18.05
17.76
17.52
17.33
17.15
16.89
16.52
16.00
15.36
14.62
13.79
12.81
11.59
10.04
8.11
5.84
3.34
0.77
-1.78
-4.23
-6.62
-8.96
-11.28
-13.59
-15.89
-18.17
-20.50
-22.97
-25.65
-28.53
-31.40
-33.86
-35.42
-35.62
-34.20
-31.20
-26.89
-21.67
-16.00
-10.22
-4.57
0.78
5.73
10.21
14.13
17.43
20.08
22.10
23.56
24.56
25.23
25.66
25.88
25.87
25.52
24.76
23.60
22.13
20.50
18.84
17.20
15.49
13.55
11.27
8.63
5.82
3.12
0.81
-0.95
-2.18
-3.03
-3.68
-4.32
-5.03
-5.91
-7.08
-8.69
-10.88
-13.72
-17.14
-20.97
-24.91
-28.64
-31.84
-34.24
-35.64
-35.93
-35.11
-33.34
-30.81
-27.73
-24.27
-20.54
-16.64
-12.65
-8.70
-4.92
-1.46
1.54
3.98
5.76
6.79
7.11
6.86
6.24
5.50
4.75
3.94
2.89
1.45
-0.40
-2.46
-4.31
-5.54
-5.87
-5.23
-3.74
-1.63
0.93
3.77
6.71
9.48
11.79
13.31
13.85
13.42
12.19
10.42
8.32
6.00
3.52
0.97
-1.42
-3.27
-4.13
-3.62
-1.60
1.80
6.16
10.96
15.67
19.89
23.39
26.07
27.93
28.96
29.20
28.67
27.46
25.74
23.77
21.86
20.22
18.96
18.00
17.17
16.29
15.25
14.09
12.91
11.79
10.73
9.64
8.39
6.93
5.25
3.45
1.62
-0.19
-2.01
-3.92
-5.97
-8.14
-10.27
-12.19
-13.77
-15.00
-16.04
-17.15
-18.59
-20.53
-22.96
-25.72
-28.53
-31.01
-32.77
-33.41
-32.57
-30.07
-25.97
-20.62
-14.57
-8.44
-2.72
2.30
6.56
10.15
13.17
15.65
17.58
18.92
19.67
19.93
19.87
19.66
19.43
19.21
18.98
18.67
18.28
17.83
17.41
17.04
16.65
16.15
15.36
14.19
12.65
10.84
8.92
7.01
5.18
3.46
1.80
0.17
-1.49
-3.21
-5.01
-6.87
-8.78
-10.74
-12.79
-14.97
-17.35
-19.88
-22.45
-24.80
-26.59
-27.47
-27.20
-25.61
-22.78
-18.89
-14.28
-9.31
-4.37
0.24
4.27
7.55
10.02
11.62
12.38
12.39
11.85
10.97
9.97
9.05
8.32
7.79
7.41
7.08
6.66
6.05
5.25
4.30
3.33
2.42
1.58
0.72
-0.34
-1.71
-3.36
-5.13
-6.78
-8.17
-9.31
-10.34
-11.44
-12.72
-14.19
-15.85
-17.67
-19.65
-21.70
-23.54
-24.70
-24.69
-23.15
-20.06
-15.80
-11.00
-6.33
-2.27
0.96
3.38
5.13
6.32
7.06
7.40
7.43
7.24
6.98
6.74
6.66
6.89
7.69
9.37
12.15
16.02
20.57
25.06
28.58
30.38
30.06
27.65
23.57
18.36
12.61
6.78
1.27
-3.67
-7.82
-11.08
-13.47
-15.14
-16.33
-17.28
-18.22
-19.23
-20.24
-21.02
-21.23
-20.57
-18.88
-16.23
-12.94
-9.45
-6.10
-3.07
-0.30
2.40
5.18
8.05
10.80
13.14
14.81
15.72
15.97
15.78
15.37
14.87
14.32
13.66
12.86
11.94
10.96
9.99
9.00
7.91
6.64
5.17
3.57
1.95
0.42
-1.01
-2.43
-3.95
-5.65
-7.53
-9.51
-11.56
-13.64
-15.77
-18.03
-20.43
-22.91
-25.27
-27.20
-28.27
-28.14
-26.57
-23.60
-19.52
-14.75
-9.73
-4.83
-0.22
3.96
7.61
10.61
12.84
14.26
14.94
15.09
14.91
14.61
14.26
13.89
13.50
13.11
12.74
12.37
11.98
11.48
10.82
9.96
8.94
7.78
6.48
5.01
3.35
1.56
-0.26
-1.99
-3.58
-5.06
-6.61
-8.39
-10.54
-13.09
-15.94
-18.95
-21.90
-24.54
-26.55
-27.58
-27.32
-25.57
-22.36
-17.93
-12.71
-7.17
-1.73
3.33
7.86
11.79
15.06
17.55
19.19
19.96
20.03
19.63
19.07
18.54
18.11
17.67
17.07
16.17
14.93
13.43
11.84
10.31
8.98
7.85
6.83
5.74
4.41
2.76
0.86
-1.14
-3.01
-4.62
-5.93
-7.07
-8.28
-9.76
-11.68
-14.07
-16.83
-19.74
-22.49
-24.71
-26.00
-26.07
-24.73
-22.00
-18.07
-13.33
-8.21
-3.13
1.57
5.69
9.14
11.96
14.17
15.84
17.04
17.79
18.16
18.23
18.12
17.92
17.67
17.33
16.81
16.04
15.03
13.85
12.66
11.59
10.67
9.80
8.85
7.66
6.21
4.59
2.93
1.36
-0.08
-1.46
-2.94
-4.64
-6.64
-8.91
-11.37
-13.93
-16.54
-19.14
-21.61
-23.70
-25.06
-25.28
-24.02
-21.18
-16.96
-11.83
-6.40
-1.23
3.33
7.19
10.39
13.05
15.13
16.55
17.22
17.15
16.54
15.69
14.88
14.24
13.75
13.23
12.56
11.67
10.62
9.51
8.44
7.41
6.38
5.27
4.00
2.53
0.84
-1.09
-3.24
-5.57
-8.01
-10.44
-12.77
-14.94
-16.97
-18.96
-21.05
-23.39
-26.00
-28.79
-31.52
-33.84
-35.32
-35.53
-34.14
-30.94
-25.99
-19.60
-12.33
-4.80
2.40
8.86
14.39
18.97
22.69
25.64
27.83
29.23
29.80
29.54
28.57
27.07
25.25
23.30
21.32
19.37
17.47
15.66
14.02
12.59
11.37
10.28
9.23
8.09
6.83
5.49
4.10
2.64
1.08
-0.66
-2.59
-4.66
-6.71
-8.60
-10.28
-11.81
-13.40
-15.25
-17.52
-20.14
-22.84
-25.18
-26.64
-26.86
-25.67
-23.19
-19.70
-15.58
-11.16
-6.70
-2.43
1.52
4.97
7.82
9.99
11.50
12.44
12.95
13.16
13.18
13.05
12.75
12.25
11.51
10.54
9.43
8.31
7.29
6.44
5.71
4.94
3.94
2.53
0.64
-1.64
-4.11
-6.54
-8.72
-10.56
-12.11
-13.49
-14.89
-16.44
-18.18
-20.05
-21.87
-23.32
-24.04
-23.71
-22.12
-19.27
-15.38
-10.80
-5.94
-1.14
3.36
7.38
10.74
13.24
14.72
15.16
14.73
13.80
12.81
12.09
11.79
11.80
11.88
11.82
11.53
11.09
10.69
10.48
10.47
10.52
10.40
9.87
8.80
7.18
5.10
2.72
0.16
-2.50
-5.23
-8.06
-11.01
-14.11
-17.40
-20.92
-24.66
-28.50
-32.14
-35.09
-36.78
-36.74
-34.73
-30.87
-25.62
-19.61
-13.47
-7.64
-2.32
2.45
6.70
10.45
13.61
16.11
17.89
18.98
19.51
19.63
19.48
19.10
18.52
17.68
16.60
15.31
13.85
12.23
10.40
8.25
5.72
2.90
-0.02
-2.76
-5.10
-6.93
-8.33
-9.46
-10.60
-12.01
-13.95
-16.70
-20.45
-25.23
-30.84
-36.78
-42.38
-46.95
-49.95
-51.08
-50.27
-47.58
-43.13
-37.10
-29.79
-21.56
-12.88
-4.21
4.06
11.64
18.29
23.85
28.19
31.28
33.24
34.38
35.04
35.52
35.97
36.40
36.74
36.94
36.97
36.82
36.48
35.84
34.79
33.24
31.16
28.59
25.59
22.23
18.60
14.78
10.88
7.06
3.52
0.49
-1.79
-3.15
-3.54
-3.06
-1.96
-0.54
0.99
2.62
4.53
7.03
10.39
14.64
19.51
24.46
28.82
32.02
33.70
33.75
32.33
29.80
26.56
22.97
19.28
15.60
11.98
8.49
5.25
2.47
0.34
-1.04
-1.69
-1.74
-1.33
-0.57
0.45
1.65
2.87
3.90
4.53
4.67
4.31
3.58
2.57
1.34
-0.11
-1.79
-3.69
-5.72
-7.75
-9.64
-11.37
-12.96
-14.53
-16.21
-18.17
-20.52
-23.29
-26.33
-29.32
-31.74
-33.03
-32.74
-30.69
-27.00
-22.05
-16.37
-10.46
-4.69
0.69
5.54
9.70
13.05
15.49
17.00
17.71
17.80
17.54
17.18
16.84
16.59
16.41
16.28
16.18
16.09
16.02
15.92
15.75
15.43
14.88
14.06
12.97
11.65
10.18
8.63
7.03
5.39
3.66
1.76
-0.33
-2.62
-5.04
-7.50
-9.93
-12.31
-14.66
-17.08
-19.65
-22.38
-25.23
-28.03
-30.52
-32.35
-33.18
-32.68
-30.74
-27.40
-22.92
-17.72
-12.24
-6.85
-1.84
2.63
6.45
9.49
11.68
13.02
13.58
13.59
13.31
12.99
12.80
12.81
12.96
13.17
13.29
13.22
12.86
12.14
11.07
9.71
8.19
6.70
5.37
4.27
3.34
2.46
1.49
0.38
-0.83
-2.05
-3.24
-4.47
-5.90
-7.72
-9.94
-12.43
-14.99
-17.43
-19.74
-22.03
-24.41
-26.78
-28.79
-29.88
-29.52
-27.40
-23.62
-18.62
-13.01
-7.43
-2.29
2.15
5.88
8.94
11.45
13.48
15.07
16.22
16.91
17.14
16.96
16.51
15.96
15.45
15.06
14.75
14.38
13.87
13.13
12.18
11.09
9.91
8.70
7.44
6.11
4.69
3.18
1.58
-0.12
-1.89
-3.72
-5.57
-7.38
-9.10
-10.73
-12.27
-13.79
-15.41
-17.24
-19.40
-21.95
-24.79
-27.61
-29.92
-31.16
-30.85
-28.80
-25.17
-20.40
-15.12
-9.82
-4.87
-0.40
3.51
6.78
9.29
10.96
11.82
12.11
12.17
12.35
12.81
13.46
14.03
14.24
13.96
13.29
12.55
12.06
12.00
12.33
12.73
12.83
12.26
10.84
8.61
5.75
2.54
-0.72
-3.80
-6.55
-8.91
-10.90
-12.65
-14.36
-16.25
-18.47
-21.06
-23.87
-26.57
-28.75
-29.96
-29.86
-28.30
-25.31
-21.10
-16.06
-10.64
-5.27
-0.28
4.14
8.00
11.34
14.23
16.64
18.52
19.83
20.63
21.04
21.23
21.31
21.30
21.13
20.68
19.87
18.67
17.15
15.45
13.68
11.96
10.30
8.68
7.01
5.23
3.30
1.26
-0.83
-2.91
-4.88
-6.71
-8.37
-9.91
-11.39
-12.90
-14.55
-16.37
-18.35
-20.35
-22.15
-23.47
-24.02
-23.49
-21.66
-18.47
-14.05
-8.72
-2.96
2.75
7.98
12.47
16.14
18.98
21.04
22.35
22.97
22.96
22.49
21.71
20.78
19.83
18.87
17.88
16.79
15.54
14.13
12.60
11.01
9.41
7.79
6.10
4.25
2.20
-0.04
-2.36
-4.63
-6.70
-8.52
-10.14
-11.69
-13.36
-15.27
-17.50
-20.05
-22.85
-25.73
-28.46
-30.71
-32.08
-32.20
-30.81
-27.89
-23.68
-18.58
-13.13
-7.76
-2.85
1.44
5.02
7.81
9.79
10.96
11.39
11.30
10.95
10.57
10.33
10.20
10.06
9.76
9.15
8.16
6.77
5.02
2.97
0.70
-1.69
-4.10
-6.43
-8.62
-10.68
-12.62
-14.51
-16.43
-18.48
-20.70
-23.04
-25.28
-27.07
-27.95
-27.52
-25.55
-22.07
-17.35
-11.81
-5.93
-0.12
5.29
10.07
14.11
17.36
19.83
21.59
22.73
23.39
23.68
23.72
23.56
23.19
22.56
21.62
20.33
18.72
16.87
14.92
12.95
11.02
9.04
6.92
4.53
1.87
-0.98
-3.88
-6.65
-9.19
-11.52
-13.75
-16.05
-18.55
-21.28
-24.18
-27.03
-29.50
-31.18
-31.62
-30.51
-27.71
-23.37
-17.83
-11.56
-4.99
1.53
7.80
13.69
19.05
23.67
27.30
29.75
30.95
31.06
30.37
29.24
27.97
26.69
25.40
24.00
22.44
20.73
18.99
17.31
15.74
14.16
12.37
10.18
7.49
4.38
1.06
-2.25
-5.38
-8.28
-11.01
-13.66
-16.27
-18.87
-21.45
-23.95
-26.32
-28.42
-30.04
-30.87
-30.61
-28.98
-25.90
-21.44
-15.88
-9.57
-2.93
3.64
9.79
15.20
19.62
22.88
24.91
25.81
25.84
25.36
24.67
24.01
23.43
22.93
22.45
21.96
21.46
20.94
20.31
19.44
18.14
16.26
13.75
10.70
7.28
3.76
0.37
-2.71
-5.44
-7.97
-10.53
-13.40
-16.75
-20.54
-24.54
-28.25
-31.10
-32.51
-32.06
-29.61
-25.27
-19.44
-12.64
-5.40
1.83
8.72
15.01
20.50
24.94
28.17
30.11
30.89
30.76
30.03
28.98
27.76
26.43
24.98
23.49
22.06
20.84
19.92
19.24
18.66
17.93
16.90
15.50
13.84
12.07
10.33
8.71
7.27
5.97
4.68
3.23
1.38
-1.04
-4.10
-7.67
-11.50
-15.23
-18.62
-21.57
-24.16
-26.65
-29.29
-32.21
-35.39
-38.53
-41.16
-42.70
-42.61
-40.61
-36.69
-31.15
-24.47
-17.18
-9.73
-2.44
4.46
10.75
16.26
20.80
24.27
26.68
28.14
28.85
29.02
28.81
28.38
27.81
27.19
26.56
25.96
25.36
24.71
23.96
23.05
21.99
20.81
19.52
18.10
16.50
14.66
12.56
10.29
7.97
5.71
3.57
1.52
-0.52
-2.56
-4.56
-6.41
-8.02
-9.43
-10.76
-12.19
-13.92
-16.01
-18.44
-21.15
-24.11
-27.33
-30.79
-34.37
-37.77
-40.54
-42.23
-42.43
-40.97
-37.89
-33.38
-27.79
-21.40
-14.49
-7.23
0.20
7.56
14.48
20.50
25.17
28.14
29.33
28.90
27.27
24.93
22.35
19.90
17.82
16.24
15.18
14.62
14.46
14.60
14.89
15.20
15.41
15.41
15.16
14.65
13.95
13.10
12.17
11.14
9.96
8.56
6.92
5.07
3.09
1.05
-1.00
-3.08
-5.21
-7.43
-9.72
-12.06
-14.45
-16.86
-19.26
-21.59
-23.79
-25.84
-27.76
-29.69
-31.73
-33.87
-35.87
-37.33
-37.76
-36.80
-34.31
-30.43
-25.48
-19.85
-13.91
-7.93
-2.16
3.17
7.84
11.67
14.59
16.60
17.79
18.34
18.42
18.22
17.88
17.51
17.20
16.99
16.88
16.85
16.82
16.73
16.49
16.04
15.39
14.53
13.52
12.39
11.18
9.94
8.71
7.50
6.33
5.16
3.97
2.68
1.25
-0.33
-2.03
-3.82
-5.66
-7.52
-9.39
-11.25
-13.09
-14.86
-16.53
-18.06
-19.48
-20.85
-22.29
-23.96
-25.93
-28.16
-30.38
-32.20
-33.18
-32.94
-31.33
-28.40
-24.40
-19.68
-14.55
-9.29
-4.10
0.87
5.50
9.65
13.21
16.14
18.44
20.18
21.44
22.31
22.83
22.99
22.78
22.26
21.51
20.68
19.90
19.21
18.58
17.90
17.12
16.21
15.17
14.05
12.89
11.70
10.50
9.30
8.11
6.92
5.72
4.49
3.21
1.87
0.51
-0.84
-2.16
-3.47
-4.80
-6.22
-7.79
-9.55
-11.52
-13.66
-15.91
-18.18
-20.45
-22.73
-25.09
-27.61
-30.28
-32.92
-35.18
-36.58
-36.66
-35.14
-32.01
-27.60
-22.39
-16.88
-11.45
-6.27
-1.39
3.17
7.34
10.95
13.85
15.95
17.28
18.03
18.37
18.49
18.48
18.38
18.22
18.03
17.80
17.55
17.28
16.95
16.55
16.08
15.52
14.88
14.13
13.22
12.16
10.97
9.71
8.45
7.24
6.05
4.80
3.35
1.60
-0.48
-2.87
-5.47
-8.15
-10.74
-13.08
-15.07
-16.67
-17.96
-19.13
-20.42
-22.05
-24.09
-26.39
-28.60
-30.21
-30.79
-30.07
-28.01
-24.79
-20.70
-16.04
-11.05
-5.97
-0.97
3.74
7.95
11.42
14.01
15.70
16.59
16.91
16.95
16.98
17.15
17.49
17.90
18.22
18.33
18.18
17.79
17.30
16.82
16.44
16.18
15.96
15.65
15.09
14.16
12.82
11.13
9.26
7.38
5.62
4.02
2.54
1.12
-0.30
-1.74
-3.15
-4.55
-5.98
-7.52
-9.20
-11.02
-12.88
-14.70
-16.48
-18.37
-20.63
-23.44
-26.84
-30.53
-33.97
-36.50
-37.52
-36.72
-34.15
-30.18
-25.34
-20.21
-15.22
-10.66
-6.65
-3.21
-0.26
2.29
4.58
6.72
8.74
10.62
12.25
13.44
14.05
13.99
13.27
12.06
10.53
8.89
7.26
5.62
3.86
1.80
-0.71
-3.77
-7.44
-11.75
-16.70
-22.16
-27.83
-33.21
-37.66
-40.61
-41.72
-40.96
-38.58
-34.97
-30.52
-25.42
-19.77
-13.59
-7.04
-0.41
5.89
11.42
15.92
19.33
21.87
23.90
25.81
27.88
30.21
32.77
35.43
38.02
40.36
42.29
43.64
44.32
44.24
43.45
42.08
40.33
38.49
36.81
35.54
34.82
34.70
35.09
35.81
36.67
37.49
38.22
38.89
39.53
40.09
40.42
40.27
39.33
37.41
34.43
30.50
25.86
20.78
15.55
10.38
5.41
0.67
-3.85
-8.19
-12.36
-16.35
-20.15
-23.77
-27.28
-30.75
-34.23
-37.69
-40.95
-43.82
-46.08
-47.56
-48.13
-47.71
-46.18
-43.50
-39.70
-34.92
-29.42
-23.57
-17.75
-12.32
-7.66
-4.09
-1.88
-1.18
-1.92
-3.82
-6.38
-9.03
-11.24
-12.68
-13.21
-12.89
-11.87
-10.27
-8.19
-5.71
-2.93
-0.06
2.63
4.84
6.33
6.93
6.58
5.32
3.20
0.35
-3.10
-7.00
-11.16
-15.43
-19.72
-23.97
-28.08
-31.87
-34.98
-36.95
-37.31
-35.75
-32.24
-27.09
-20.87
-14.19
-7.59
-1.42
4.16
9.06
13.26
16.72
19.39
21.27
22.37
22.82
22.78
22.46
22.03
21.59
21.15
20.63
19.91
18.88
17.53
15.91
14.21
12.53
10.89
9.16
7.08
4.40
1.01
-3.01
-7.44
-11.99
-16.48
-20.88
-25.26
-29.67
-34.02
-38.07
-41.47
-43.84
-44.84
-44.21
-41.70
-37.16
-30.54
-21.98
-11.89
-0.93
10.12
20.47
29.50
36.87
42.47
46.41
48.86
50.00
49.95
48.81
46.65
43.62
39.96
35.94
31.87
27.95
24.36
21.17
18.43
16.08
14.05
12.25
10.55
8.87
7.14
5.31
3.37
1.31
-0.86
-3.10
-5.39
-7.70
-10.02
-12.36
-14.73
-17.11
-19.51
-21.98
-24.61
-27.49
-30.61
-33.77
-36.54
-38.37
-38.77
-37.49
-34.56
-30.22
-24.83
-18.72
-12.16
-5.39
1.28
7.51
12.98
17.45
20.91
23.46
25.32
26.70
27.70
28.38
28.70
28.63
28.12
27.22
26.01
24.60
23.14
21.70
20.32
18.96
17.56
16.06
14.45
12.70
10.79
8.67
6.28
3.58
0.60
-2.57
-5.77
-8.86
-11.75
-14.39
-16.85
-19.24
-21.68
-24.30
-27.17
-30.29
-33.60
-36.91
-39.94
-42.34
-43.73
-43.79
-42.34
-39.37
-35.09
-29.79
-23.83
-17.53
-11.11
-4.78
1.27
6.84
11.74
15.81
19.00
21.39
23.14
24.40
25.31
25.91
26.21
26.21
26.02
25.75
25.56
25.52
25.61
25.75
25.79
25.63
25.19
24.41
23.30
21.86
20.19
18.40
16.66
15.09
13.67
12.26
10.68
8.80
6.57
4.13
1.63
-0.77
-3.06
-5.32
-7.72
-10.39
-13.44
-16.82
-20.34
-23.63
-26.24
-27.70
-27.67
-26.07
-23.06
-19.03
-14.35
-9.35
-4.24
0.85
5.73
10.12
13.68
16.16
17.50
17.84
17.50
16.82
16.07
15.42
14.95
14.68
14.60
14.63
14.63
14.41
13.81
12.79
11.39
9.76
8.05
6.35
4.68
3.00
1.26
-0.57
-2.48
-4.52
-6.73
-9.13
-11.71
-14.38
-17.01
-19.50
-21.87
-24.19
-26.61
-29.15
-31.70
-33.91
-35.35
-35.59
-34.36
-31.65
-27.59
-22.52
-16.83
-10.92
-5.17
0.16
4.90
8.97
12.33
14.95
16.76
17.72
17.87
17.39
16.50
15.43
14.33
13.19
11.96
10.56
9.05
7.51
6.04
4.67
3.35
2.01
0.55
-1.07
-2.87
-4.85
-6.99
-9.24
-11.46
-13.50
-15.15
-16.27
-16.80
-16.82
-16.50
-16.10
-15.91
-16.17
-16.96
-18.15
-19.38
-20.12
-19.89
-18.34
-15.44
-11.39
-6.52
-1.20
4.32
9.86
15.19
20.06
24.18
27.34
29.49
30.78
31.51
31.98
32.38
32.69
32.72
32.26
31.16
29.49
27.44
25.28
23.23
21.34
19.51
17.55
15.34
12.82
10.11
7.33
4.55
1.73
-1.25
-4.48
-7.92
-11.40
-14.70
-17.67
-20.36
-22.99
-25.83
-29.09
-32.67
-36.24
-39.24
-41.09
-41.34
-39.79
-36.51
-31.77
-25.98
-19.60
-13.07
-6.73
-0.83
4.52
9.24
13.27
16.52
18.87
20.27
20.80
20.71
20.32
19.92
19.62
19.39
19.06
18.52
17.72
16.77
15.76
14.75
13.69
12.46
10.95
9.08
6.88
4.42
1.82
-0.84
-3.48
-6.04
-8.46
-10.62
-12.39
-13.68
-14.56
-15.23
-15.97
-17.00
-18.32
-19.58
-20.28
-19.87
-18.09
-15.01
-11.01
-6.59
-2.14
2.17
6.34
10.43
14.43
18.16
21.40
23.88
25.49
26.26
26.37
26.04
25.51
24.92
24.27
23.51
22.55
21.38
20.07
18.77
17.57
16.47
15.35
14.00
12.25
10.08
7.54
4.83
2.08
-0.63
-3.31
-6.02
-8.79
-11.59
-14.39
-17.11
-19.73
-22.26
-24.75
-27.21
-29.59
-31.74
-33.37
-34.16
-33.80
-32.07
-28.96
-24.59
-19.25
-13.30
-7.15
-1.15
4.35
9.12
12.99
15.90
17.87
18.99
19.43
19.39
19.06
18.62
18.17
17.73
17.28
16.77
16.15
15.40
14.49
13.38
11.99
10.26
8.23
5.98
3.67
1.41
-0.73
-2.78
-4.80
-6.82
-8.86
-10.93
-13.07
-15.37
-17.93
-20.79
-23.88
-26.97
-29.74
-31.79
-32.74
-32.30
-30.32
-26.82
-22.03
-16.33
-10.16
-3.99
1.85
7.15
11.79
15.70
18.83
21.13
22.56
23.20
23.18
22.73
22.08
21.41
20.83
20.33
19.86
19.38
18.79
18.05
17.11
15.92
14.45
12.69
10.65
8.39
5.95
3.42
0.86
-1.66
-4.08
-6.34
-8.42
-10.36
-12.24
-14.20
-16.38
-18.85
-21.64
-24.64
-27.67
-30.35
-32.24
-32.79
-31.59
-28.50
-23.75
-17.91
-11.70
-5.70
-0.20
4.77
9.34
13.58
17.38
20.53
22.79
24.11
24.63
24.64
24.38
24.04
23.66
23.19
22.58
21.80
20.90
19.96
18.98
17.90
16.63
15.03
13.03
10.69
8.18
5.67
3.31
1.11
-1.01
-3.18
-5.49
-7.94
-10.45
-12.92
-15.32
-17.69
-20.14
-22.72
-25.44
-28.21
-30.91
-33.39
-35.43
-36.77
-37.08
-36.04
-33.47
-29.38
-24.09
-18.08
-11.86
-5.82
-0.20
4.91
9.46
13.33
16.35
18.36
19.33
19.42
18.95
18.28
17.72
17.37
17.21
17.14
17.03
16.79
16.39
15.81
15.05
14.09
12.94
11.63
10.21
8.74
7.28
5.88
4.48
3.00
1.29
-0.70
-2.94
-5.28
-7.54
-9.57
-11.40
-13.14
-15.01
-17.18
-19.68
-22.36
-24.93
-27.00
-28.17
-28.07
-26.45
-23.27
-18.76
-13.35
-7.59
-1.98
3.16
7.68
11.50
14.61
16.93
18.44
19.15
19.23
18.88
18.33
17.71
17.07
16.43
15.80
15.22
14.69
14.16
13.52
12.65
11.55
10.28
8.99
7.80
6.71
5.64
4.45
3.00
1.27
-0.73
-2.90
-5.18
-7.51
-9.84
-12.13
-14.33
-16.45
-18.54
-20.74
-23.20
-25.93
-28.75
-31.23
-32.77
-32.82
-31.04
-27.46
-22.45
-16.60
-10.50
-4.64
0.71
5.44
9.52
12.91
15.58
17.50
18.70
19.30
19.46
19.35
19.12
18.82
18.40
17.85
17.20
16.50
15.87
15.33
14.80
14.13
13.16
11.81
10.15
8.34
6.54
4.87
3.31
1.78
0.13
-1.71
-3.76
-5.93
-8.13
-10.32
-12.47
-14.62
-16.81
-19.10
-21.54
-24.16
-27.00
-29.99
-32.95
-35.52
-37.20
-37.52
-36.14
-33.04
-28.48
-22.94
-16.98
-11.05
-5.43
-0.27
4.45
8.74
12.59
15.94
18.71
20.84
22.30
23.14
23.40
23.21
22.68
21.96
21.22
20.58
20.08
19.62
19.05
18.22
17.05
15.57
13.88
12.14
10.43
8.81
7.29
5.89
4.59
3.30
1.91
0.25
-1.77
-4.16
-6.76
-9.37
-11.81
-14.02
-16.09
-18.18
-20.43
-22.94
-25.70
-28.58
-31.39
-33.82
-35.48
-35.95
-34.87
-32.09
-27.74
-22.20
-16.00
-9.68
-3.62
1.95
6.95
11.30
14.91
17.71
19.65
20.81
21.35
21.50
21.44
21.27
21.01
20.61
20.07
19.44
18.81
18.21
17.64
17.00
16.16
15.01
13.56
11.86
10.05
8.24
6.50
4.84
3.20
1.50
-0.38
-2.53
-4.95
-7.59
-10.29
-12.92
-15.42
-17.82
-20.28
-22.95
-25.94
-29.19
-32.49
-35.45
-37.67
-38.70
-38.22
-36.03
-32.21
-27.00
-20.86
-14.33
-7.86
-1.79
3.73
8.65
12.96
16.64
19.62
21.81
23.19
23.87
23.99
23.79
23.47
23.13
22.81
22.46
22.03
21.48
20.83
20.11
19.30
18.36
17.18
15.69
13.86
11.80
9.69
7.73
5.96
4.31
2.62
0.70
-1.49
-3.87
-6.26
-8.51
-10.59
-12.64
-14.89
-17.50
-20.56
-23.98
-27.53
-30.97
-34.00
-36.29
-37.48
-37.23
-35.34
-31.81
-26.90
-21.11
-14.97
-8.90
-3.09
2.42
7.66
12.56
16.89
20.39
22.85
24.29
24.90
25.02
24.93
24.76
24.52
24.12
23.56
22.88
22.21
21.64
21.16
20.68
20.03
19.10
17.84
16.31
14.60
12.83
11.11
9.47
7.86
6.17
4.31
2.22
-0.11
-2.57
-5.06
-7.47
-9.78
-12.02
-14.27
-16.58
-18.97
-21.47
-24.13
-27.00
-30.01
-32.93
-35.28
-36.53
-36.19
-34.09
-30.35
-25.38
-19.70
-13.71
-7.66
-1.71
3.98
9.18
13.63
17.12
19.63
21.26
22.25
22.82
23.12
23.23
23.17
22.96
22.66
22.33
22.04
21.79
21.54
21.20
20.68
19.91
18.92
17.70
16.27
14.62
12.71
10.61
8.46
6.45
4.74
3.34
2.06
0.61
-1.25
-3.56
-6.14
-8.67
-10.89
-12.71
-14.24
-15.76
-17.51
-19.64
-22.16
-24.99
-27.99
-30.95
-33.54
-35.33
-35.82
-34.59
-31.45
-26.54
-20.33
-13.50
-6.73
-0.53
4.83
9.28
12.88
15.70
17.86
19.42
20.44
20.99
21.13
20.96
20.60
20.20
19.85
19.60
19.38
19.11
18.72
18.21
17.61
17.00
16.36
15.63
14.69
13.49
12.06
10.49
8.92
7.46
6.15
4.96
3.74
2.37
0.73
-1.22
-3.38
-5.60
-7.79
-9.88
-11.90
-13.92
-15.99
-18.10
-20.28
-22.59
-25.09
-27.77
-30.43
-32.66
-33.92
-33.71
-31.75
-28.11
-23.15
-17.38
-11.35
-5.49
-0.10
4.63
8.60
11.77
14.15
15.86
17.07
17.99
18.78
19.52
20.16
20.58
20.65
20.36
19.76
19.00
18.21
17.45
16.70
15.94
15.18
14.50
13.93
13.46
12.92
12.12
10.89
9.22
7.27
5.27
3.43
1.83
0.39
-1.04
-2.60
-4.34
-6.25
-8.23
-10.23
-12.18
-14.04
-15.82
-17.49
-19.14
-20.87
-22.81
-24.99
-27.31
-29.47
-31.04
-31.57
-30.77
-28.56
-25.11
-20.74
-15.82
-10.67
-5.54
-0.63
3.86
7.78
10.98
13.41
15.14
16.28
16.98
17.40
17.65
17.82
17.92
17.96
17.91
17.74
17.42
16.97
16.45
15.93
15.46
15.03
14.55
13.92
13.01
11.78
10.29
8.65
7.02
5.53
4.25
3.11
1.98
0.65
-1.03
-3.11
-5.50
-8.01
-10.41
-12.56
-14.44
-16.12
-17.75
-19.46
-21.31
-23.36
-25.58
-27.91
-30.19
-32.09
-33.19
-33.04
-31.32
-27.97
-23.26
-17.69
-11.83
-6.15
-0.91
3.80
7.93
11.46
14.31
16.43
17.81
18.53
18.74
18.57
18.16
17.58
16.94
16.34
15.91
15.74
15.82
16.04
16.22
16.15
15.69
14.82
13.61
12.21
10.77
9.35
7.99
6.65
5.34
4.06
2.80
1.54
0.17
-1.41
-3.28
-5.42
-7.69
-9.90
-11.94
-13.80
-15.58
-17.43
-19.46
-21.71
-24.13
-26.64
-29.08
-31.24
-32.87
-33.68
-33.42
-31.89
-29.05
-25.03
-20.06
-14.53
-8.82
-3.31
1.72
6.06
9.65
12.48
14.56
15.97
16.80
17.19
17.35
17.49
17.73
18.09
18.45
18.67
18.65
18.38
17.97
17.52
17.10
16.69
16.17
15.45
14.46
13.20
11.71
10.05
8.28
6.46
4.67
2.97
1.39
-0.12
-1.67
-3.39
-5.34
-7.47
-9.65
-11.72
-13.54
-15.12
-16.64
-18.34
-20.47
-23.14
-26.24
-29.46
-32.30
-34.19
-34.67
-33.47
-30.62
-26.36
-21.16
-15.51
-9.84
-4.47
0.43
4.82
8.67
11.96
14.65
16.72
18.20
19.18
19.81
20.24
20.54
20.74
20.83
20.79
20.64
20.40
20.10
19.72
19.24
18.59
17.73
16.64
15.31
13.78
12.08
10.30
8.55
6.88
5.34
3.90
2.50
1.00
-0.66
-2.53
-4.58
-6.71
-8.84
-10.90
-12.88
-14.85
-16.92
-19.23
-21.85
-24.79
-27.88
-30.81
-33.15
-34.42
-34.25
-32.44
-29.06
-24.45
-19.06
-13.38
-7.78
-2.51
2.26
6.42
9.92
12.76
14.99
16.74
18.14
19.27
20.14
20.74
21.00
20.93
20.59
20.07
19.51
18.99
18.58
18.24
17.86
17.31
16.45
15.27
13.86
12.40
10.99
9.64
8.28
6.79
5.16
3.41
1.59
-0.27
-2.22
-4.34
-6.67
-9.13
-11.58
-13.85
-15.88
-17.73
-19.59
-21.67
-24.10
-26.86
-29.77
-32.51
-34.69
-35.93
-35.92
-34.45
-31.44
-27.01
-21.45
-15.23
-8.87
-2.85
2.53
7.14
11.00
14.17
16.67
18.50
19.69
20.34
20.64
20.83
21.09
21.43
21.75
21.88
21.68
21.15
20.39
19.55
18.75
17.99
17.20
16.29
15.21
13.97
12.65
11.29
9.87
8.35
6.65
4.76
2.69
0.52
-1.70
-3.94
-6.19
-8.46
-10.78
-13.12
-15.48
-17.84
-20.23
-22.70
-25.30
-28.08
-31.02
-33.96
-36.60
-38.53
-39.25
-38.39
-35.82
-31.62
-26.19
-20.01
-13.58
-7.30
-1.41
3.97
8.79
13.00
16.56
19.41
21.51
22.89
23.60
23.78
23.61
23.22
22.78
22.37
22.03
21.75
21.50
21.21
20.80
20.24
19.47
18.50
17.34
16.01
14.55
13.02
11.46
9.92
8.45
7.04
5.66
4.24
2.64
0.72
-1.61
-4.33
-7.32
-10.36
-13.21
-15.74
-17.94
-20.04
-22.31
-25.01
-28.23
-31.80
-35.29
-38.12
-39.68
-39.56
-37.59
-33.88
-28.77
-22.76
-16.36
-9.99
-3.95
1.59
6.56
10.96
14.76
17.98
20.64
22.80
24.56
25.96
27.03
27.69
27.91
27.67
27.09
26.35
25.68
25.23
25.03
24.98
24.88
24.54
23.87
22.86
21.54
19.97
18.19
16.15
13.88
11.45
9.01
6.73
4.69
2.87
1.08
-0.88
-3.16
-5.73
-8.45
-11.09
-13.51
-15.72
-17.83
-20.08
-22.67
-25.71
-29.09
-32.61
-35.84
-38.35
-39.73
-39.68
-38.09
-35.01
-30.65
-25.29
-19.32
-13.07
-6.87
-0.96
4.50
9.41
13.67
17.20
19.97
21.99
23.36
24.22
24.72
24.96
24.95
24.69
24.23
23.70
23.26
23.03
22.98
22.91
22.61
21.94
20.91
19.65
18.33
17.03
15.68
14.13
12.30
10.23
8.05
5.96
4.00
2.06
-0.03
-2.46
-5.24
-8.19
-11.00
-13.42
-15.35
-16.94
-18.47
-20.24
-22.47
-25.17
-28.22
-31.44
-34.66
-37.72
-40.40
-42.40
-43.34
-42.89
-40.82
-37.13
-32.02
-25.86
-19.04
-11.95
-4.90
1.85
8.08
13.62
18.36
22.24
25.31
27.69
29.56
31.11
32.44
33.59
34.50
35.02
35.05
34.56
33.66
32.50
31.27
30.10
29.02
27.96
26.79
25.42
23.81
22.04
20.21
18.39
16.52
14.49
12.14
9.45
6.58
3.83
1.48
-0.36
-1.83
-3.32
-5.16
-7.57
-10.45
-13.49
-16.31
-18.69
-20.65
-22.44
-24.38
-26.75
-29.63
-32.81
-35.91
-38.45
-39.93
-40.00
-38.50
-35.46
-31.10
-25.73
-19.71
-13.38
-7.08
-1.08
4.36
9.05
12.93
16.05
18.52
20.49
22.06
23.24
23.98
24.24
24.03
23.45
22.69
21.93
21.30
20.85
20.50
20.17
19.73
19.14
18.38
17.45
16.36
15.03
13.40
11.43
9.17
6.79
4.51
2.51
0.81
-0.68
-2.16
-3.79
-5.66
-7.73
-9.90
-12.06
-14.19
-16.28
-18.39
-20.57
-22.84
-25.26
-27.86
-30.65
-33.51
-36.19
-38.24
-39.16
-38.51
-36.11
-32.10
-26.91
-21.11
-15.22
-9.60
-4.35
0.55
5.12
9.34
13.04
16.04
18.19
19.49
20.06
20.12
19.93
19.71
19.58
19.58
19.62
19.54
19.22
18.59
17.75
16.84
15.98
15.16
14.18
12.82
10.92
8.60
6.11
3.81
1.85
0.20
-1.42
-3.28
-5.55
-8.13
-10.74
-13.10
-15.01
-16.49
-17.74
-19.08
-20.82
-23.15
-26.13
-29.64
-33.45
-37.20
-40.51
-42.94
-44.13
-43.76
-41.70
-37.99
-32.88
-26.80
-20.23
-13.63
-7.28
-1.31
4.32
9.64
14.57
18.91
22.38
24.76
26.07
26.52
26.50
26.38
26.39
26.56
26.79
26.93
26.96
26.96
27.06
27.30
27.60
27.72
27.38
26.45
24.96
23.20
21.53
20.26
19.51
19.16
18.93
18.47
17.53
15.98
13.85
11.28
8.43
5.49
2.59
-0.13
-2.66
-5.00
-7.27
-9.64
-12.28
-15.29
