1565813942.00
64.000000
-0.00
-0.00
-0.00
-0.00
-0.00
-0.00
-0.00
-0.00
-0.00
-0.00
0.00
0.01
0.01
-0.00
-0.03
-0.05
-0.05
0.00
0.13
0.36
0.66
1.01
1.37
1.72
2.06
2.40
2.79
3.24
3.80
4.42
5.06
5.66
6.20
6.68
7.15
7.68
8.31
9.14
10.09
11.04
11.88
12.57
13.15
13.79
14.70
16.04
18.03
20.49
23.16
25.73
28.06
30.20
32.48
35.32
39.03
44.00
49.87
56.12
62.17
67.64
72.61
77.55
83.15
89.92
98.41
108.09
118.18
127.80
136.38
143.95
151.14
159.28
167.07
176.78
189.02
203.92
220.29
235.24
244.44
243.24
228.28
198.68
156.84
106.62
52.39
-2.57
-56.73
-109.84
-162.04
-213.06
-262.06
-307.59
-348.72
-384.67
-414.81
-438.30
-453.75
-459.44
-453.63
-435.27
-404.16
-361.57
-309.64
-251.15
-189.02
-125.86
-63.81
-4.57
50.39
99.83
141.85
175.28
199.45
214.22
219.99
217.63
208.29
193.16
173.45
150.18
124.41
97.15
69.39
42.15
16.54
-6.40
-25.80
-41.04
-51.80
-57.98
-59.77
-57.63
-52.26
-44.43
-34.98
-24.76
-14.70
-5.71
1.31
5.93
7.55
5.31
-1.59
-13.81
-31.78
-55.56
-84.83
-118.71
-155.85
-194.57
-233.04
-269.24
-301.15
-326.92
-344.99
-354.28
-354.22
-344.69
-324.92
-294.83
-254.79
-205.71
-148.96
-86.41
-20.42
46.29
110.90
170.66
223.01
266.00
298.47
319.89
330.96
332.98
327.55
316.47
301.40
283.77
264.83
245.51
226.45
208.05
190.36
173.28
156.90
141.25
126.34
112.21
98.89
86.47
74.99
64.48
54.92
46.32
38.64
31.79
25.70
20.27
15.39
11.00
7.00
3.36
0.07
-2.90
-5.52
-7.84
-9.85
-11.56
-12.99
-14.19
-15.15
-15.88
-16.38
-16.64
-16.60
-16.24
-15.55
-14.53
-13.22
-11.71
-10.12
-8.54
-7.08
-5.85
-4.88
-4.15
-3.62
-3.19
-2.78
-2.27
-1.58
-0.67
0.48
1.86
3.42
5.09
6.74
8.27
9.55
10.42
10.83
10.71
10.04
8.82
7.11
4.95
2.41
-0.39
-3.33
-6.24
-8.90
-11.09
-12.61
-13.33
-13.19
-12.17
-10.30
-7.57
-3.97
0.54
6.01
12.39
19.60
27.48
35.77
44.21
52.64
60.96
69.21
77.40
85.54
93.45
100.82
107.21
112.24
115.66
117.50
118.10
117.93
117.39
116.64
115.49
113.45
110.04
105.05
98.76
91.88
85.22
79.29
73.97
68.41
61.36
51.69
38.94
23.57
6.82
-9.97
-26.03
-41.62
-57.79
-75.91
-96.88
-120.81
-147.43
-176.43
-207.65
-240.54
-273.27
-302.31
-323.18
-332.20
-328.39
-314.36
-295.16
-275.95
-259.51
-245.29
-230.57
-212.84
-192.17
-171.43
-154.59
-143.88
-137.95
-132.22
-121.39
-102.63
-77.48
-51.26
-30.23
-18.11
-14.05
-13.39
-10.38
-1.62
11.84
25.32
33.33
32.99
25.85
17.34
13.61
18.01
29.16
41.63
49.00
47.61
38.52
27.00
19.27
18.92
24.86
32.14
35.08
30.78
20.72
9.74
2.89
2.30
5.98
9.08
6.83
-2.22
-15.46
-27.37
-32.66
-29.17
-19.21
-8.25
-1.71
-2.06
-7.27
-12.14
-11.20
-2.00
13.32
29.12
39.43
41.34
36.46
30.04
27.58
31.62
40.31
48.63
51.63
47.51
38.81
30.77
28.20
32.21
39.60
44.39
41.45
29.80
13.24
-1.32
-8.05
-5.26
3.38
10.95
11.34
2.68
-11.55
-24.69
-30.69
-27.53
-18.21
-8.81
-4.57
-6.92
-12.92
-17.18
-15.50
-7.67
2.24
8.27
6.15
-3.94
-17.18
-26.66
-27.09
-17.83
-3.10
10.23
16.59
14.78
8.26
3.18
4.30
12.25
23.04
30.26
29.09
19.15
5.11
-5.98
-8.33
-0.71
13.19
26.80
34.52
34.80
30.52
26.97
28.33
34.98
43.23
47.61
44.28
33.46
19.47
8.31
3.93
6.07
10.27
10.56
3.10
-11.24
-27.26
-38.10
-39.32
-31.45
-19.83
-11.66
-11.84
-20.15
-31.37
-38.44
-36.61
-26.37
-13.05
-3.64
-2.61
-9.18
-17.97
-22.39
-18.72
-8.38
2.98
9.00
6.47
-2.69
-12.43
-16.01
-9.89
4.47
21.47
34.51
39.60
37.13
31.40
27.78
29.58
36.27
44.01
48.14
45.92
38.13
28.40
20.96
17.98
18.26
18.00
13.25
2.47
-12.45
-26.81
-35.83
-37.36
-32.90
-26.99
-24.50
-27.65
-34.66
-40.58
-40.11
-30.74
-14.52
2.94
15.40
19.55
16.64
11.75
10.60
16.06
26.54
36.90
41.71
38.58
29.59
19.92
14.60
15.32
19.32
21.07
15.77
2.56
-14.72
-29.33
-35.55
-31.90
-22.05
-12.84
-10.17
-15.65
-25.53
-32.87
-31.47
-19.49
-0.64
17.96
29.61
31.58
26.22
19.20
16.02
18.74
25.07
29.94
28.79
20.39
7.71
-3.93
-9.90
-9.06
-4.33
-0.98
-3.48
-12.76
-25.48
-35.90
-39.25
-34.53
-25.32
-17.71
-16.57
-22.56
-31.48
-36.71
-33.00
-19.70
-1.32
14.79
22.65
20.76
12.81
5.21
3.21
7.89
15.66
20.89
19.63
12.17
3.05
-1.78
1.42
11.61
23.63
31.09
30.20
22.00
11.70
5.50
7.10
15.47
25.50
31.01
28.21
17.97
5.42
-2.98
-2.96
5.21
16.68
24.75
24.85
16.91
5.53
-2.84
-3.66
3.13
13.11
20.26
20.57
14.35
5.73
-0.13
-0.36
3.75
7.65
6.42
-2.08
-15.87
-29.64
-37.93
-38.01
-31.34
-22.91
-18.38
-20.84
-29.17
-38.38
-42.41
-37.57
-24.45
-7.75
6.53
14.47
16.18
15.55
17.46
24.61
35.77
46.42
51.53
48.64
39.38
28.50
21.07
19.49
22.20
24.75
22.55
13.84
0.63
-12.33
-20.20
-20.98
-16.30
-10.59
-8.52
-12.18
-20.05
-28.00
-31.66
-29.06
-21.92
-14.61
-11.58
-14.79
-22.37
-29.80
-32.49
-28.76
-20.87
-13.86
-12.63
-18.75
-29.27
-38.35
-40.32
-33.12
-19.39
-5.14
3.59
4.15
-1.32
-7.18
-7.57
0.13
13.59
26.90
33.89
31.84
23.13
13.90
10.46
15.66
27.22
39.06
44.96
42.01
32.13
20.87
13.93
14.01
19.53
25.88
28.35
24.98
17.48
9.92
6.06
6.73
9.34
9.30
3.03
-9.52
-24.17
-34.74
-36.35
-28.41
-15.13
-3.32
1.60
-1.30
-8.11
-12.40
-9.33
1.26
14.83
24.61
25.75
18.11
6.23
-3.37
-5.95
-1.23
6.92
12.73
11.97
4.38
-6.48
-15.28
-18.17
-14.95
-9.25
-6.37
-10.00
-20.03
-32.15
-40.49
-40.79
-33.03
-21.46
-12.16
-9.55
-13.53
-19.61
-21.50
-14.82
0.10
18.18
32.33
37.45
33.17
24.11
17.05
17.25
25.38
37.39
47.05
49.46
43.92
33.95
24.86
20.44
20.70
22.00
19.55
10.83
-2.80
-16.58
-25.16
-25.79
-20.11
-13.16
-10.52
-15.07
-25.13
-35.44
-40.22
-36.43
-25.60
-12.77
-3.78
-1.94
-6.19
-11.99
-14.16
-10.09
-1.42
6.71
8.71
1.98
-11.31
-25.07
-32.74
-30.76
-20.64
-7.93
0.94
2.43
-2.14
-7.76
-8.60
-1.64
11.55
25.82
35.34
37.06
32.24
25.60
22.33
24.93
31.51
37.11
36.67
28.12
13.95
-0.32
-9.18
-10.45
-6.39
-2.18
-2.73
-9.69
-20.50
-29.80
-32.74
-27.47
-16.36
-4.40
3.59
5.52
3.12
0.68
2.32
9.49
20.07
29.37
32.72
28.09
17.16
4.37
-5.56
-10.26
-10.74
-10.60
-13.60
-21.12
-30.98
-38.56
-39.38
-31.95
-19.06
-6.55
-0.32
-2.92
-12.10
-21.84
-25.88
-21.16
-9.65
3.10
11.34
12.58
8.93
5.67
7.59
15.97
27.67
37.06
39.42
33.86
23.90
15.33
12.84
17.21
25.07
30.71
29.56
20.56
6.92
-5.88
-13.05
-13.16
-8.71
-4.55
-4.98
-11.14
-20.37
-27.68
-28.82
-22.66
-12.01
-1.90
3.40
2.74
-1.15
-3.68
-1.18
6.61
16.28
22.87
22.87
16.52
7.78
2.20
3.53
11.51
21.91
29.05
29.15
22.42
13.05
6.53
6.44
12.20
19.55
22.97
18.92
7.91
-5.99
-17.21
-22.04
-20.38
-15.66
-12.54
-14.13
-20.30
-27.66
-32.08
-31.06
-25.45
-19.08
-16.46
-19.98
-28.39
-37.22
-41.24
-37.43
-26.62
-13.08
-1.99
3.46
3.75
2.48
4.00
10.72
21.43
32.13
38.21
37.41
30.98
22.88
17.36
16.27
17.97
18.23
13.14
1.65
-13.33
-26.21
-31.87
-28.66
-19.49
-10.53
-7.76
-13.50
-25.10
-36.13
-39.94
-33.39
-18.38
-0.82
12.92
19.36
19.50
17.54
18.06
23.03
30.73
37.14
38.48
33.68
25.09
17.08
13.30
14.45
17.70
18.33
12.55
-0.12
-15.99
-29.15
-34.53
-30.83
-21.31
-12.20
-9.08
-13.69
-22.83
-30.23
-30.02
-20.27
-4.09
12.04
21.95
23.14
17.90
11.72
9.85
14.28
22.67
30.01
31.81
26.68
16.98
7.29
1.42
0.43
2.18
2.92
-0.03
-6.63
-13.80
-17.13
-13.45
-2.78
11.35
23.48
29.08
26.71
18.73
9.75
3.91
2.49
3.23
1.98
-4.49
-16.23
-29.58
-39.35
-41.73
-36.76
-28.38
-22.25
-22.26
-28.15
-35.51
-38.12
-31.82
-16.87
1.66
16.55
22.46
18.72
9.69
2.16
1.40
8.36
19.33
28.31
30.83
26.58
19.37
14.93
17.14
25.70
35.97
41.81
39.03
27.84
13.02
0.93
-3.66
-0.28
7.18
13.01
13.03
6.90
-1.84
-8.19
-8.97
-4.84
-0.09
0.03
-7.33
-20.75
-34.82
-43.22
-42.28
-33.10
-21.10
-13.00
-12.98
-20.21
-29.43
-33.77
-28.88
-15.35
1.44
14.42
18.87
15.07
7.98
4.06
7.39
17.17
28.23
34.30
32.02
22.98
12.78
7.50
9.91
17.77
25.22
26.52
19.38
6.38
-6.61
-13.96
-13.47
-7.39
-0.91
0.84
-4.17
-13.94
-23.78
-29.06
-27.92
-22.24
-16.74
-15.99
-21.79
-31.79
-40.72
-43.35
-37.58
-25.83
-13.76
-7.11
-8.34
-15.26
-22.34
-24.21
-18.79
-8.97
-0.81
0.24
-7.69
-21.46
-35.04
-43.03
-44.07
-41.51
-41.46
-49.01
-64.88
-85.19
-103.42
-114.21
-116.00
-111.52
-105.75
-102.86
-103.57
-104.78
-101.86
-91.13
-71.86
-46.03
-16.77
13.76
45.12
78.66
117.73
163.03
211.74
257.01
290.34
305.57
304.17
292.75
279.90
272.85
274.06
280.73
285.27
278.38
253.61
209.96
151.93
87.54
24.80
-31.43
-79.76
-120.70
-154.76
-181.36
-199.35
-208.58
-210.53
-208.11
-205.12
-204.63
-207.90
-214.54
-222.66
-230.21
-236.03
-240.29
-244.26
-249.68
-257.80
-268.58
-281.04
-293.22
-302.92
-308.30
-308.06
-301.20
-286.82
-265.57
-235.89
-196.18
-145.26
-83.39
-12.47
64.06
141.73
215.81
281.95
337.12
379.20
407.69
423.04
426.58
420.34
406.97
389.31
370.11
351.68
335.07
320.53
306.60
290.76
269.98
241.72
204.28
157.08
100.58
33.68
-41.87
-123.48
-207.70
-290.98
-369.05
-437.20
-490.98
-526.65
-543.70
-542.09
-523.20
-489.03
-442.14
-384.13
-315.79
-237.69
-150.56
-55.42
47.24
154.89
263.71
367.33
457.43
523.88
556.63
549.14
501.41
420.94
319.70
214.28
113.08
19.12
-66.89
-143.56
-207.11
-252.83
-277.63
-282.60
-272.89
-256.07
-237.60
-218.84
-198.15
-171.47
-135.12
-87.60
-29.98
35.41
106.09
181.20
260.60
343.23
425.53
500.90
561.13
599.45
613.37
605.73
584.09
557.75
534.35
517.64
507.02
498.81
488.24
470.74
442.63
401.35
346.24
279.11
204.21
127.42
54.42
-10.79
-67.15
-116.35
-162.36
-209.87
-263.04
-324.13
-392.58
-464.47
-532.78
-590.05
-627.86
-642.82
-637.70
-620.45
-600.37
-584.22
-573.92
-566.80
-559.03
-547.89
-533.56
-517.52
-500.94
-483.12
-461.76
-436.26
-403.46
-360.68
-306.53
-241.69
-167.79
-87.32
-3.13
81.09
161.17
233.71
295.87
346.08
383.33
407.43
416.79
410.38
387.71
347.87
293.16
228.52
163.88
107.96
68.03
47.97
48.88
67.73
98.12
132.70
164.01
188.09
204.65
216.63
227.45
238.84
249.43
256.04
256.27
249.60
237.54
221.94
204.03
183.88
161.17
135.88
109.13
83.22
60.80
43.84
32.56
25.80
21.58
18.13
14.28
9.93
6.04
3.90
4.53
7.92
13.20
19.01
24.14
27.61
28.92
28.04
25.10
20.73
14.14
4.06
-10.57
-30.13
-54.59
-83.31
-115.07
-148.35
-181.50
-211.67
-236.95
-257.68
-272.78
-281.16
-281.98
-274.88
-260.24
-239.23
-213.60
-185.57
-157.26
-130.14
-105.28
-83.15
-63.66
-46.58
-31.79
-19.05
-8.16
1.46
11.09
22.39
37.32
58.30
85.72
117.94
152.13
184.65
211.99
231.89
243.41
246.99
243.74
235.95
223.38
204.70
178.34
143.03
98.32
44.19
-18.65
-86.63
-153.75
-212.38
-254.21
-273.19
-268.10
-243.49
-208.53
-173.48
-145.82
-128.72
-121.43
-120.86
-124.03
-129.34
-135.94
-143.14
-149.25
-151.64
-148.37
-139.40
-126.02
-110.14
-94.64
-79.55
-63.74
-45.51
-23.24
3.12
31.55
59.48
84.37
104.68
120.43
132.54
142.87
154.46
170.61
193.64
224.64
261.86
300.12
331.73
348.93
344.56
318.96
280.82
237.70
194.57
153.01
112.61
73.47
37.61
8.43
-10.96
-20.33
-24.40
-30.56
-45.44
-71.84
-107.81
-148.54
-188.77
-224.45
-253.57
-276.30
-292.69
-301.56
-301.17
-290.87
-272.69
-252.04
-237.40
-233.83
-242.10
-257.38
-270.21
-270.10
-249.68
-205.50
-141.68
-66.50
11.53
85.67
151.95
208.66
254.77
289.29
311.49
321.50
321.22
314.09
303.83
293.09
283.25
274.14
264.40
252.40
236.74
217.20
194.84
172.20
149.93
128.25
106.91
85.48
63.71
41.78
20.55
1.41
-14.26
-25.83
-33.08
-36.34
-36.38
-34.07
-30.20
-25.26
-19.39
-12.65
-5.42
2.06
9.53
16.75
23.53
29.80
35.62
41.14
46.58
51.77
56.69
61.29
65.46
69.01
71.60
72.76
71.77
69.76
66.99
63.67
59.92
55.81
51.35
46.59
41.56
36.48
31.61
27.09
23.29
20.61
19.51
20.25
22.88
27.16
32.61
38.66
44.49
49.43
53.02
55.00
55.15
53.28
49.19
42.79
34.16
23.63
11.95
0.12
-10.85
-20.35
-28.41
-35.68
-43.22
-51.98
-62.50
-74.55
-87.38
-100.01
-111.94
-123.44
-135.68
-150.20
-168.33
-190.48
-215.88
-243.00
-270.08
-295.90
-320.29
-344.02
-368.58
-395.90
-428.15
-467.21
-513.64
-565.25
-616.47
-658.84
-683.42
-683.97
-659.43
-614.40
-557.19
-496.55
-438.71
-386.24
-338.91
-295.56
-255.71
-219.87
-188.76
-162.29
-139.20
-117.49
-95.43
-72.36
-48.86
-26.46
-6.77
9.33
21.94
32.18
41.63
51.78
63.43
76.48
90.08
102.97
114.05
122.88
129.82
135.99
142.85
151.64
162.86
176.09
190.10
203.34
214.69
223.99
232.03
240.28
250.04
261.93
275.87
291.56
308.98
328.35
349.17
369.33
384.81
391.00
384.85
366.80
340.95
313.21
288.28
267.46
248.60
228.21
204.40
178.56
154.77
137.27
127.59
123.37
119.51
111.19
96.67
78.13
60.47
48.43
43.75
44.36
45.64
43.05
34.86
22.89
11.18
3.58
1.22
2.02
2.18
-1.16
-8.10
-15.46
-18.90
-15.42
-5.56
6.58
15.29
16.27
9.21
-1.91
-10.81
-12.23
-4.85
8.01
20.05
25.63
22.96
14.93
7.19
4.67
8.42
14.88
18.24
14.12
2.58
-11.58
-21.48
-22.24
-13.68
-0.60
10.11
13.48
8.93
0.57
-5.58
-5.25
1.53
10.61
16.27
14.74
6.61
-3.52
-9.69
-8.20
0.32
11.31
18.82
19.18
12.79
3.99
-1.81
-1.15
5.46
13.98
19.47
18.99
13.33
6.39
2.77
4.78
10.95
16.60
16.50
8.09
-6.88
-23.04
-34.22
-36.79
-31.74
-23.86
-19.03
-20.89
-28.72
-38.13
-43.71
-42.16
-34.26
-24.29
-17.54
-17.06
-21.98
-27.83
-29.42
-23.73
-11.76
2.00
12.19
15.84
13.88
10.46
10.37
15.94
25.68
35.09
39.28
36.00
26.72
15.72
7.50
4.24
4.59
4.82
1.24
-7.47
-19.27
-29.70
-34.68
-32.82
-26.58
-20.89
-20.29
-26.33
-36.37
-45.05
-47.43
-41.92
-31.26
-21.01
-16.29
-18.73
-25.33
-30.24
-28.10
-17.17
-0.41
16.23
26.98
29.55
25.97
21.19
19.95
24.03
31.36
37.50
38.55
33.64
25.52
19.11
18.28
23.59
31.54
36.56
34.24
24.05
9.80
-2.06
-6.17
-1.10
9.87
20.62
25.71
23.32
16.02
8.89
6.16
8.64
13.16
14.78
9.83
-1.50
-15.10
-25.11
-27.17
-21.07
-10.61
-1.45
2.16
-0.23
-5.36
-8.44
-6.37
0.19
7.12
9.27
3.71
-8.17
-21.51
-30.33
-31.02
-24.48
-15.41
-9.66
-10.76
-17.88
-26.38
-30.58
-27.13
-17.08
-5.34
2.19
2.08
-4.61
-13.01
-17.30
-14.14
-4.67
6.07
12.27
10.56
2.12
-8.29
-15.11
-15.21
-9.68
-2.83
0.44
-2.19
-9.12
-15.96
-18.26
-14.05
-5.21
3.88
9.03
8.73
4.94
1.81
2.94
9.15
17.66
23.82
23.53
15.78
3.22
-9.13
-16.46
-16.73
-11.54
-5.10
-1.84
-4.00
-10.40
-17.36
-20.82
-18.80
-12.51
-5.67
-2.46
-4.85
-11.60
-18.84
-22.41
-20.30
-13.91
-7.24
-4.47
-7.29
-13.88
-19.75
-20.26
-13.35
-0.82
12.74
22.52
26.16
24.89
22.61
23.26
28.22
35.40
40.33
39.01
30.45
17.59
5.88
0.13
1.73
7.68
12.32
10.58
1.08
-12.96
-25.56
-31.51
-29.41
-22.36
-16.05
-14.96
-19.59
-26.01
-28.39
-22.50
-8.60
8.63
22.59
28.38
25.50
17.70
10.58
8.28
11.15
15.90
17.70
13.18
2.44
-11.00
-22.14
-27.09
-25.05
-18.55
-11.79
-7.97
-7.43
-7.52
-4.33
4.51
17.89
31.32
39.40
38.92
31.10
21.13
15.19
16.79
24.46
32.63
34.84
27.60
12.45
-4.90
-17.90
-22.78
-20.45
-15.56
-13.55
-17.54
-26.55
-36.36
-42.11
-41.14
-34.45
-25.96
-20.05
-18.64
-20.04
-19.78
-13.53
-0.11
17.35
32.69
40.16
37.73
28.37
18.26
13.23
15.26
21.38
25.65
22.88
11.89
-3.83
-18.13
-25.80
-25.38
-19.79
-14.50
-14.15
-20.05
-29.55
-37.54
-39.53
-34.15
-23.77
-13.08
-6.35
-4.80
-6.07
-5.66
0.15
11.92
26.36
38.08
42.50
38.43
28.83
18.76
12.56
11.22
11.97
10.20
2.54
-10.77
-25.51
-35.65
-36.83
-28.77
-15.65
-3.81
1.74
0.06
-5.27
-8.42
-4.81
6.10
20.36
31.66
34.91
29.22
18.40
8.74
5.31
9.23
16.93
22.68
22.24
15.37
6.15
0.15
0.93
7.52
15.10
17.83
12.60
0.84
-12.32
-21.05
-22.35
-17.62
-11.74
-10.18
-15.91
-27.62
-40.48
-48.62
-48.27
-39.59
-26.68
-15.18
-9.01
-8.34
-9.45
-7.25
1.38
15.38
29.72
38.10
36.68
26.22
11.74
-0.43
-6.03
-4.93
-0.77
1.71
-0.20
-5.66
-10.67
-10.71
-3.40
9.90
24.65
35.62
39.58
36.95
31.05
25.88
23.40
22.47
19.72
12.10
-0.54
-15.04
-26.21
-30.10
-26.38
-18.73
-12.87
-13.33
-20.71
-31.38
-39.39
-39.80
-31.57
-17.94
-4.63
3.50
4.97
2.16
-0.41
0.76
6.01
12.18
14.50
9.50
-2.70
-18.15
-30.85
-35.83
-31.48
-20.28
-7.37
2.35
6.53
6.58
6.46
10.07
18.66
29.95
39.32
42.32
37.65
27.63
17.00
10.07
8.22
9.05
8.07
1.80
-9.82
-22.86
-31.48
-31.23
-21.80
-7.34
5.69
12.16
11.02
5.61
1.67
3.39
11.01
20.51
25.99
23.59
13.52
0.18
-10.73
-15.43
-14.48
-12.05
-13.31
-21.13
-33.97
-46.46
-52.31
-47.76
-33.63
-15.16
0.78
9.35
10.09
6.87
5.41
9.70
19.53
30.63
37.23
35.57
26.06
13.09
2.31
-2.63
-2.07
0.54
1.02
-2.49
-8.29
-12.23
-10.37
-1.64
11.11
22.58
27.89
25.17
16.56
6.74
0.28
-1.12
0.69
1.68
-1.65
-9.73
-19.50
-25.95
-24.94
-15.76
-1.51
12.30
20.76
22.05
18.06
13.05
10.88
12.57
15.69
15.82
9.56
-3.16
-18.55
-30.71
-34.91
-30.18
-19.86
-9.84
-4.93
-6.30
-10.66
-12.65
-8.01
3.27
16.64
25.30
24.10
12.61
-4.41
-19.56
-26.87
-25.07
-17.98
-11.95
-11.94
-18.34
-26.81
-31.01
-26.38
-13.08
4.25
18.83
25.66
24.14
17.91
12.78
13.08
19.41
28.37
34.54
33.65
25.11
12.26
0.41
-6.26
-7.07
-5.03
-4.71
-8.98
-16.95
-24.13
-25.11
-16.99
-1.54
15.47
27.44
30.36
25.00
16.14
9.45
8.21
11.46
14.88
13.50
4.84
-9.40
-24.27
-34.21
-36.26
-31.57
-24.64
-20.47
-21.67
-26.58
-30.43
-28.05
-17.18
0.09
18.00
30.32
33.73
29.32
21.97
17.17
17.96
23.18
28.44
29.03
22.81
11.69
0.42
-6.25
-6.44
-2.20
1.61
0.37
-7.51
-19.64
-30.71
-35.71
-32.73
-23.99
-14.54
-9.15
-9.47
-12.95
-14.54
-9.79
1.86
16.58
27.81
29.95
21.81
7.18
-7.16
-15.53
-16.36
-12.85
-10.78
-14.65
-24.71
-36.64
-43.87
-41.45
-28.98
-10.80
6.19
16.47
18.78
16.40
14.98
18.93
28.71
40.57
48.92
49.65
42.63
31.78
22.52
18.71
20.00
22.49
21.04
12.63
-1.54
-16.50
-26.33
-27.61
-21.35
-12.76
-8.17
-11.43
-21.70
-33.80
-41.14
-39.44
-29.19
-15.04
-3.15
2.35
1.48
-2.06
-3.62
-0.72
5.38
10.30
9.51
1.34
-11.63
-23.73
-29.36
-25.99
-15.73
-3.96
3.62
4.30
-0.30
-5.34
-5.91
-0.11
9.71
18.26
20.58
15.08
4.67
-4.87
-8.16
-3.23
7.37
18.12
23.61
21.59
13.96
5.50
0.94
2.21
7.38
11.82
11.07
3.62
-8.02
-18.56
-22.95
-19.30
-10.06
-0.60
3.65
0.52
-7.64
-15.34
-17.22
-11.18
0.14
10.98
15.70
12.09
2.75
-6.53
-10.11
-5.83
3.90
13.72
18.70
17.49
12.92
10.01
12.50
20.28
29.26
33.92
30.98
21.66
11.08
5.28
7.47
15.94
24.83
27.53
20.48
5.20
-12.32
-25.05
-28.80
-24.25
-16.56
-12.15
-15.08
-24.80
-36.58
-44.27
-43.95
-35.91
-24.25
-14.30
-9.29
-8.72
-8.76
-4.86
5.08
19.22
32.64
40.06
39.07
31.64
22.97
18.59
21.06
28.50
35.71
37.23
30.56
17.50
3.33
-6.23
-8.21
-3.69
2.99
6.92
5.54
-0.18
-6.59
-9.73
-8.01
-3.21
0.43
-1.07
-8.69
-19.76
-29.20
-32.62
-29.00
-21.34
-14.95
-14.43
-20.74
-30.47
-37.96
-38.24
-30.12
-16.78
-4.15
2.40
1.00
-5.86
-12.67
-14.36
-9.16
0.25
8.33
9.97
3.75
-7.14
-16.80
-20.10
-15.97
-7.73
-1.13
-0.71
-6.81
-15.53
-21.11
-19.60
-11.25
-0.51
6.78
6.80
-0.01
-9.03
-14.28
-11.69
-1.43
12.27
23.57
28.47
26.94
22.76
21.12
25.21
34.28
44.01
49.20
46.85
38.16
27.79
21.14
21.17
26.57
32.70
34.39
29.03
18.20
6.66
-0.51
-1.07
3.22
7.63
7.28
0.21
-11.55
-23.14
-29.78
-29.65
-24.74
-19.62
-18.60
-23.20
-31.27
-38.50
-40.91
-37.37
-30.16
-23.73
-22.05
-26.20
-33.54
-39.12
-38.26
-29.36
-14.79
0.13
10.17
13.24
11.50
10.04
13.74
24.00
37.80
49.25
52.99
47.35
35.32
22.62
14.42
12.45
13.98
13.96
8.27
-3.77
-18.64
-30.84
-35.87
-32.99
-25.55
-19.03
-17.95
-23.07
-30.91
-35.84
-33.24
-22.52
-7.50
5.70
12.26
11.48
7.15
5.14
9.70
20.80
33.94
42.83
43.24
35.45
24.27
16.03
14.83
20.32
27.86
31.65
27.98
17.36
4.03
-6.73
-11.60
-11.08
-8.90
-9.64
-15.83
-26.38
-36.97
-42.67
-40.68
-32.07
-21.15
-13.09
-11.04
-14.22
-18.51
-18.96
-12.90
-1.60
10.36
17.85
18.30
13.33
7.80
6.88
12.75
23.33
33.18
36.71
31.41
19.26
5.65
-3.93
-6.91
-4.96
-2.85
-5.27
-13.80
-25.98
-36.53
-40.62
-36.81
-27.95
-19.52
-16.24
-19.17
-25.08
-28.33
-24.47
-12.98
2.05
14.23
18.45
13.92
4.66
-2.68
-2.83
5.11
17.19
26.98
29.56
24.42
15.70
9.71
10.76
18.69
28.82
34.73
32.27
22.04
9.03
-0.49
-2.60
1.87
8.01
9.89
4.19
-7.61
-20.07
-26.78
-24.17
-13.45
0.04
9.92
12.34
7.97
1.19
-2.70
-1.02
4.85
10.27
10.36
3.04
-9.45
-21.74
-28.15
-25.95
-16.78
-5.63
2.00
3.22
-0.77
-5.51
-6.16
-0.32
10.34
21.06
26.79
25.05
17.47
8.84
4.33
6.52
13.95
22.21
26.62
25.17
19.68
14.51
13.66
18.02
24.46
27.53
22.85
9.81
-7.54
-22.61
-29.86
-27.91
-20.17
-12.76
-10.97
-16.19
-25.38
-32.97
-34.38
-28.69
-19.06
-10.98
-8.89
-13.78
-22.49
-29.52
-30.45
-24.29
-14.36
-6.11
-3.91
-8.29
-15.55
-19.83
-16.85
-6.43
7.14
17.61
20.56
15.71
7.10
0.51
-0.16
4.94
11.55
14.19
9.38
-2.07
-15.32
-24.08
-24.03
-15.38
-2.46
8.69
14.06
13.68
11.38
12.22
18.98
30.49
41.99
48.20
46.33
37.84
27.34
19.85
17.74
19.34
20.17
15.73
4.57
-10.63
-24.47
-31.71
-30.50
-23.42
-16.14
-14.09
-19.24
-28.89
-37.26
-38.96
-32.10
-19.52
-6.91
0.58
1.43
-1.46
-2.73
2.07
13.53
28.07
39.74
43.82
39.33
29.55
19.72
14.12
13.65
15.54
15.38
9.93
-0.82
-13.53
-23.47
-27.21
-24.61
-18.89
-14.85
-15.96
-22.45
-31.05
-36.98
-36.72
-30.12
-20.56
-13.00
-10.95
-14.28
-19.34
-21.02
-15.83
-4.24
9.49
19.65
22.52
18.61
12.45
9.70
13.66
23.17
33.00
37.07
32.03
19.20
3.92
-7.57
-11.69
-9.39
-5.24
-4.51
-9.90
-19.82
-29.32
-32.98
-27.93
-15.60
-0.99
10.10
13.98
11.04
5.20
1.41
2.81
8.98
16.45
21.07
20.56
15.85
10.32
7.46
8.44
11.36
12.15
7.49
-2.90
-15.68
-25.35
-27.33
-20.71
-9.06
1.42
5.32
1.10
-7.86
-15.15
-15.01
-5.44
10.49
26.33
35.94
36.64
30.57
23.16
19.63
22.05
28.13
32.68
31.06
22.13
9.03
-2.57
-7.88
-6.04
-0.55
2.67
-1.09
-12.21
-26.63
-37.99
-41.51
-36.72
-27.80
-21.03
-21.13
-28.32
-38.09
-43.84
-40.71
-28.43
-11.44
3.50
11.31
11.26
7.07
4.37
7.14
15.17
24.34
29.11
25.90
15.25
1.60
-9.27
-13.25
-10.09
-3.12
2.92
4.83
2.83
0.23
1.15
7.59
17.81
26.80
29.26
22.71
9.30
-5.19
-14.71
-16.22
-11.47
-5.80
-4.86
-10.99
-21.86
-31.65
-34.64
-28.49
-15.70
-2.31
5.63
5.52
-0.41
-6.53
-7.19
-0.07
12.57
25.24
32.47
31.98
25.75
18.64
15.27
17.26
22.53
26.85
26.67
21.28
13.42
7.38
6.39
10.49
16.37
19.07
14.95
3.86
-10.72
-23.30
-29.54
-28.60
-23.44
-19.12
-19.83
-26.34
-35.66
-42.88
-44.15
-39.00
-30.68
-24.15
-23.02
-27.27
-33.14
-35.27
-30.02
-17.71
-2.75
8.60
11.92
7.18
-1.14
-6.60
-4.46
5.57
19.17
29.98
33.44
29.38
22.03
17.30
19.12
26.95
36.38
41.88
40.40
33.33
25.61
22.77
27.38
37.30
46.78
49.77
43.22
28.88
12.29
-0.35
-5.43
-3.61
1.08
3.91
2.26
-3.09
-8.82
-11.53
-10.11
-6.55
-4.77
-8.13
-17.28
-29.51
-40.14
-44.93
-42.53
-35.10
-27.09
-22.94
-24.58
-30.36
-36.21
-37.78
-32.93
-23.17
-12.55
-5.23
-3.02
-4.10
-4.18
0.59
11.12
24.54
35.59
39.89
36.63
29.07
22.87
22.50
28.62
37.51
43.11
40.54
28.81
11.50
-5.28
-16.00
-18.75
-15.96
-12.80
-14.00
-21.11
-31.48
-40.11
-42.74
-38.38
-30.19
-23.32
-21.74
-25.56
-30.78
-31.79
-24.92
-10.88
5.33
17.39
21.43
18.27
12.88
11.23
16.55
27.30
38.19
43.22
39.24
27.73
13.74
2.90
-1.69
-1.03
0.66
-1.22
-8.62
-19.51
-28.92
-31.61
-25.28
-11.83
3.34
14.35
17.81
14.40
8.19
3.94
4.14
7.60
10.23
7.76
-1.46
-15.12
-28.05
-34.96
-33.28
-24.60
-13.64
-5.75
-3.90
-7.23
-11.81
-13.19
-9.26
-1.56
5.69
8.16
4.40
-2.95
-8.67
-7.88
0.65
13.73
25.28
29.97
26.40
17.97
10.72
9.72
15.92
25.63
32.87
33.08
25.91
15.43
7.71
7.06
13.56
22.83
28.84
27.44
18.81
7.30
-1.34
-3.36
0.76
6.94
10.07
7.05
-1.35
-11.19
-18.09
-19.65
-17.10
-14.20
-15.02
-21.42
-31.76
-41.61
-46.18
-42.82
-32.49
-19.46
-9.09
-4.98
-7.15
-12.02
-14.49
-10.94
-1.17
11.37
21.73
26.37
25.19
21.40
19.30
21.54
27.26
32.74
33.82
28.47
18.33
7.93
1.82
2.08
6.62
10.56
9.01
-0.18
-14.86
-29.79
-39.47
-41.15
-36.05
-28.61
-23.79
-24.38
-29.60
-35.80
-38.79
-36.37
-29.47
-21.37
-15.67
-13.83
-14.33
-13.56
-8.18
2.46
15.54
25.92
29.13
23.95
13.42
3.47
-0.50
3.58
13.15
22.62
26.80
23.80
16.23
9.42
8.22
13.83
23.11
30.33
30.63
22.93
10.50
-1.04
-6.98
-6.38
-2.48
-0.24
-3.13
-10.61
-18.41
-21.04
-15.43
-2.95
11.23
21.06
23.22
18.99
13.29
11.51
16.20
25.26
33.20
34.18
25.52
9.44
-8.16
-20.88
-25.21
-22.36
-17.17
-15.25
-19.46
-28.36
-37.00
-40.14
-35.37
-24.40
-12.16
-3.78
-1.53
-3.69
-5.91
-3.97
3.41
13.65
21.80
23.21
16.18
2.84
-12.05
-23.78
-30.03
-31.80
-32.61
-35.91
-43.02
-52.34
-60.23
-63.32
-60.66
-54.30
-48.08
-45.71
-48.11
-53.10
-56.72
-55.53
-48.59
-37.78
-26.14
-15.48
-5.30
7.73
27.30
54.95
88.85
124.87
159.10
188.05
211.46
230.95
249.59
269.12
288.39
303.90
311.33
307.01
289.06
261.90
227.24
188.00
148.53
113.78
87.52
70.64
59.78
50.06
35.97
13.37
-17.45
-52.52
-86.64
-115.74
-138.14
-154.04
-164.20
-168.99
-168.67
-163.15
-153.12
-140.41
-127.42
-116.36
-108.31
-102.85
-98.68
-94.47
-89.07
-82.23
-74.69
-67.72
-62.57
-59.81
-59.22
-60.02
-61.28
-62.29
-62.85
-63.36
-64.55
-67.14
-71.51
-77.59
-85.05
-93.33
-102.10
-111.28
-121.09
-131.86
-143.93
-157.40
-172.13
-187.72
-203.33
-218.19
-231.51
-242.41
-249.93
-253.02
-250.69
-242.09
-227.89
-207.73
-181.66
-150.30
-114.79
-76.69
-37.78
0.13
35.37
66.60
93.08
114.35
130.32
141.28
147.82
150.69
150.70
148.58
144.95
140.44
135.38
129.91
124.05
117.70
110.74
103.05
94.54
85.11
74.82
63.63
51.54
38.56
24.77
10.31
-4.65
-19.91
-35.28
-50.50
-65.41
-79.89
-93.83
-107.17
-119.83
-131.75
-142.92
-153.36
-163.10
-172.19
-180.71
-188.70
-196.23
-203.18
-209.47
-214.96
-219.47
-222.82
-224.69
-224.75
-222.43
-217.69
-210.20
-199.57
-185.38
-167.31
-145.13
-118.77
-88.34
-54.23
-17.05
22.40
62.96
103.21
141.51
176.16
205.54
228.37
243.80
251.47
251.56
244.66
231.68
213.70
191.95
167.77
142.54
117.65
94.43
73.94
56.90
43.44
33.26
25.75
20.31
16.65
14.92
15.62
19.31
26.17
35.73
46.81
57.87
67.67
75.74
82.65
89.77
98.54
109.71
122.78
136.12
147.64
155.83
160.63
163.46
166.73
172.54
181.90
194.42
208.66
222.70
234.59
242.54
244.70
239.16
224.53
200.91
170.72
138.36
108.56
84.17
64.89
47.81
29.76
10.23
-7.32
-16.90
-13.61
2.75
26.55
48.78
61.58
62.21
53.95
43.29
35.51
31.36
27.25
18.16
1.56
-20.28
-41.01
-53.50
-53.71
-42.89
-27.18
-14.92
-13.26
-25.51
-50.06
-81.34
-112.02
-135.80
-149.34
-152.95
-149.72
-143.57
-137.65
-133.07
-129.05
-123.95
-116.23
-104.99
-89.82
-70.58
-47.46
-21.35
5.99
32.12
54.70
72.32
84.78
92.71
96.75
96.99
93.00
84.47
71.78
56.17
39.26
22.38
6.39
-8.24
-20.88
-30.49
-35.82
-36.15
-31.81
-24.14
-15.29
-7.28
-1.24
3.09
7.23
13.37
23.32
37.56
54.67
71.54
84.26
89.42
85.20
71.95
52.08
29.20
7.20
-10.83
-23.18
-29.67
-31.35
-29.85
-26.62
-22.35
-17.03
-10.31
-2.29
5.97
12.59
15.67
14.29
9.22
2.73
-2.36
-4.06
-2.22
1.42
4.07
3.42
-1.23
-8.60
-16.15
-21.34
-22.91
-21.41
-18.77
-17.16
-17.90
-20.79
-24.46
-27.34
-28.60
-28.62
-28.72
-30.24
-33.73
-38.50
-42.96
-45.48
-45.18
-42.35
-38.20
-34.20
-31.25
-29.37
-27.72
-25.19
-21.06
-15.51
-9.43
-3.88
0.60
4.63
9.56
16.96
27.64
40.66
53.41
62.12
63.38
55.78
40.84
22.15
4.04
-10.43
-20.34
-26.69
-30.80
-32.82
-31.26
-23.78
-8.97
12.52
38.03
64.15
88.56
111.02
132.55
152.64
169.19
175.52
163.82
129.14
73.30
6.29
-56.99
-102.65
-123.59
-121.89
-106.59
-87.86
-71.88
-59.15
-46.84
-33.26
-20.65
-14.54
-19.62
-36.04
-57.80
-75.32
-80.39
-70.44
-49.67
-26.84
-10.53
-5.15
-9.54
-18.18
-24.68
-25.11
-19.11
-9.37
0.70
8.66
13.69
16.03
16.13
14.26
10.66
6.09
1.97
-0.01
1.31
6.19
13.84
22.81
31.47
38.27
41.99
41.84
37.89
31.16
23.47
16.69
11.90
8.95
6.78
4.27
1.02
-2.39
-4.99
-6.33
-6.94
-8.18
-11.32
-16.71
-23.31
-29.12
-32.28
-31.98
-29.02
-25.31
-22.95
-23.04
-25.20
-27.77
-28.87
-27.39
-23.66
-19.20
-15.72
-14.11
-13.90
-13.59
-11.75
-7.99
-3.36
0.15
0.86
-1.65
-6.23
-10.79
-13.60
-14.27
-13.95
-14.59
-17.61
-23.03
-29.26
-34.12
-35.98
-34.73
-31.68
-28.49
-25.80
-22.47
-15.97
-3.89
14.53
37.70
62.22
84.65
103.37
119.45
136.34
158.29
188.82
229.01
278.23
334.70
396.33
461.08
526.70
590.21
647.61
694.02
724.42
734.76
722.62
687.69
631.69
557.88
470.33
373.37
271.14
167.46
65.88
-30.37
-118.49
-196.32
-262.54
-316.79
-359.53
-391.84
-415.07
-430.48
-439.12
-441.80
-439.20
-432.00
-420.98
-407.02
-391.00
-373.71
-355.72
-337.40
-318.94
-300.45
-282.00
-263.73
-245.79
-228.38
-211.62
-195.61
-180.39
-165.95
-152.23
-139.23
-126.92
-115.29
-104.36
-94.11
-84.53
-75.62
-67.33
-59.63
-52.49
-45.89
-39.81
-34.23
-29.15
-24.51
-20.33
-16.57
-13.23
-10.28
-7.68
-5.40
-3.41
-1.65
-0.09
1.31
2.55
3.67
4.69
5.62
6.45
7.22
7.97
8.72
9.49
10.27
11.04
11.74
12.30
12.57
12.38
11.57
9.96
7.37
3.69
-1.15
-7.09
-13.98
-21.52
-29.20
-36.40
-42.44
-46.70
-48.65
-47.98
-44.63
-38.47
-30.20
-20.58
-10.36
-0.21
9.29
17.73
24.83
30.46
34.65
37.48
39.22
40.16
40.45
40.30
39.89
39.23
38.22
36.79
34.84
32.42
29.75
27.00
24.51
22.48
20.93
19.63
18.18
16.19
13.53
10.44
7.32
4.89
3.76
4.20
5.95
8.41
10.89
12.85
14.11
14.67
14.77
14.42
13.08
9.82
3.49
-6.69
-20.65
-36.34
-52.22
-66.38
-77.42
-84.87
-89.29
-91.88
-93.94
-96.64
-100.95
-107.41
-115.40
-122.72
-125.52
-119.45
-101.56
-72.23
-35.75
1.10
31.37
50.99
59.83
60.94
58.38
55.13
52.20
49.03
45.15
40.78
37.04
35.09
35.29
36.88
38.41
38.44
36.30
32.40
27.89
24.10
21.98
21.62
22.38
23.19
23.10
21.68
19.19
16.31
13.83
12.30
11.80
11.98
12.28
12.17
11.42
10.11
8.53
7.00
5.75
4.86
4.25
3.77
3.27
2.63
1.77
0.57
-1.06
-3.16
-5.60
-8.15
-10.49
-12.39
-13.86
-15.23
-17.06
-19.97
-24.27
-29.77
-35.81
-41.52
-46.23
-49.81
-52.86
-56.50
-61.90
-69.72
-79.68
-90.69
-101.22
-110.14
-117.13
-122.95
-128.99
-136.55
-145.95
-156.19
-165.04
-169.59
-166.84
-154.25
-129.75
-92.77
-45.26
7.75
58.69
99.56
124.87
133.53
129.77
121.08
114.56
113.95
118.77
125.65
130.97
133.09
132.26
129.81
126.66
122.50
116.26
107.17
95.55
82.88
71.25
62.24
56.38
52.94
50.34
46.90
41.68
34.76
27.15
20.24
15.09
12.07
10.70
9.99
8.89
6.77
3.65
0.09
-3.14
-5.44
-6.62
-6.88
-6.75
-6.76
-7.20
-8.10
-9.21
-10.21
-10.83
-10.97
-10.73
-10.27
-9.80
-9.43
-9.20
-9.06
-8.93
-8.75
-8.52
-8.23
-7.90
-7.58
-7.27
-6.97
-6.68
-6.41
-6.15
-5.90
-5.67
-5.44
-5.23
-5.04
-4.84
-4.66
-4.49
-4.32
-4.17
-4.02
-3.89
-3.76
-3.62
-3.48
-3.33
-3.20
-3.11
-3.08
-3.11
-3.15
-3.16
-3.08
-2.90
-2.67
-2.44
-2.29
-2.25
-2.32
-2.43
-2.50
-2.45
-2.28
-2.02
-1.77
-1.64
-1.72
-1.97
-2.31
-2.60
-2.67
-2.49
-2.12
-1.79
-1.75
-2.17
-2.99
-3.97
-4.70
-4.81
-4.18
-3.07
-2.02
-1.69
-2.42
-4.13
-6.21
-7.81
-8.21
-7.20
-5.24
-3.33
-2.58
-3.58
-6.19
-9.49
-12.17
-13.16
-12.32
-10.25
-8.01
-6.76
-7.02
-8.81
-12.12
-16.97
-22.96
-28.35
-29.91
-24.17
-9.70
11.00
31.47
43.83
42.62
27.73
4.53
-18.79
-35.40
-42.90
-43.27
-40.89
-39.40
-39.92
-41.59
-43.28
-45.21
-48.68
-54.38
-60.61
-63.26
-57.40
-39.83
-11.72
21.55
52.40
74.38
84.71
84.93
79.34
72.50
67.20
63.96
61.93
60.22
58.65
57.66
57.63
58.44
59.48
59.96
59.21
57.13
54.22
51.11
48.58
46.36
43.91
40.42
35.15
27.74
18.46
8.18
-2.03
-11.12
-18.56
-24.14
-28.13
-30.92
-32.89
-34.23
-34.98
-35.32
-35.18
-34.86
-34.68
-35.00
-35.99
-37.65
-39.72
-41.88
-43.81
-45.29
-46.34
-46.93
-47.06
-46.63
-45.50
-43.52
-40.61
-36.98
-32.92
-28.84
-25.02
-21.47
-17.96
-14.12
-9.62
-4.42
1.23
6.91
12.06
16.43
20.20
23.91
28.31
33.93
40.72
48.04
54.77
59.81
62.52
62.96
61.74
59.91
58.44
57.83
58.29
59.59
61.07
61.68
60.10
54.78
45.07
31.57
16.40
2.92
-5.39
-6.54
-0.74
10.00
22.48
34.76
46.29
57.08
66.51
72.46
71.76
62.53
45.71
24.21
2.98
-13.32
-22.04
-22.74
-16.74
-6.81
4.12
15.42
22.43
22.81
17.94
12.69
13.12
23.15
42.22
65.05
88.46
108.65
123.57
132.46
135.07
131.33
120.68
103.18
81.72
60.74
43.09
30.11
20.58
11.24
-3.09
-22.41
-49.05
-82.94
-121.01
-158.64
-189.59
-207.85
-209.87
-196.29
-175.71
-157.77
-148.05
-147.48
-155.04
-169.42
-190.16
-217.60
-251.51
-294.16
-342.64
-387.74
-418.83
-430.32
-423.79
-405.64
-383.38
-331.04
-242.73
-133.08
-24.98
66.63
137.08
187.06
219.65
239.11
250.25
252.62
247.05
236.96
226.56
218.31
211.79
206.23
200.87
195.46
186.41
172.45
155.30
137.75
121.49
105.84
89.90
72.94
54.98
34.38
11.34
-12.14
-33.61
-48.43
-58.38
-65.37
-71.01
-76.42
-83.65
-93.65
-105.43
-115.83
-120.28
-114.83
-96.88
-67.46
-31.46
3.43
30.39
46.12
51.53
50.41
46.41
42.26
38.55
34.65
30.02
25.10
21.12
19.14
19.29
20.29
20.65
19.08
15.21
9.74
4.00
-0.59
-3.28
-4.24
-4.54
-5.28
-7.22
-10.43
-14.20
-17.45
-19.16
-18.90
-16.80
-13.56
-9.94
-6.48
-3.07
0.78
5.51
11.34
17.90
24.22
29.23
32.02
32.52
31.40
29.80
28.81
28.99
30.07
31.15
31.19
29.55
26.64
23.84
22.94
25.35
31.22
39.41
47.82
54.51
58.30
59.72
60.54
62.94
68.64
78.54
92.50
109.34
126.59
140.00
144.41
135.18
110.17
71.89
27.58
-13.22
-42.12
-55.57
-56.19
-50.14
-43.89
-40.86
-40.31
-38.84
-33.53
-23.52
-9.41
4.85
15.89
22.81
27.16
31.74
38.46
46.28
52.57
54.37
49.85
39.55
25.96
12.48
2.14
-3.69
-7.23
-11.23
-18.82
-31.91
-50.51
-74.01
-101.95
-134.40
-171.70
-216.25
-259.98
-295.78
-317.61
-323.14
-315.00
-299.24
-282.05
-253.53
-210.25
-154.00
-92.98
-36.96
6.41
33.73
46.40
49.37
48.62
46.48
43.79
39.66
33.98
27.40
21.27
17.01
15.76
17.63
20.54
22.79
23.23
22.90
23.52
26.90
34.19
45.51
59.99
75.43
90.05
102.78
114.83
127.54
142.09
158.64
175.82
191.19
202.45
208.43
209.53
209.01
210.11
215.76
228.01
242.00
254.27
263.49
269.16
262.85
239.16
195.04
132.45
58.37
-15.23
-85.60
-150.75
-208.75
-258.58
-294.26
-312.99
-315.01
-303.46
-276.28
-236.44
-189.57
-142.64
-101.46
-67.90
-41.60
-20.26
-0.73
18.02
35.65
50.26
58.06
54.69
37.99
9.18
-26.21
-55.33
-64.35
-46.29
-4.52
49.47
103.62
152.18
196.58
243.57
295.91
349.22
393.49
418.92
421.20
403.89
373.51
340.63
313.97
296.79
286.50
276.87
262.15
239.90
211.45
180.22
149.89
122.22
96.74
71.73
45.42
16.97
-12.90
-42.20
-68.44
-88.95
-102.08
-107.70
-107.16
-103.01
-98.48
-96.73
-99.99
-108.91
-122.26
-137.92
-153.68
-168.19
-181.54
-194.93
-210.21
-229.25
-253.43
-283.11
-316.91
-350.34
-375.15
-380.54
-357.16
-301.29
-218.02
-120.94
-27.75
46.20
93.43
115.85
121.73
119.61
114.31
106.07
92.73
73.07
48.88
24.61
4.92
-7.88
-15.89
-23.43
-34.27
-49.44
-67.32
-85.10
-100.96
-114.97
-128.17
-143.43
-160.05
-172.62
-173.58
-158.28
-128.59
-92.11
-58.61
-35.20
-29.89
-43.66
-70.22
-99.04
-121.20
-132.82
-134.79
-131.08
-126.60
-136.38
-172.08
-237.00
-325.00
-425.21
-525.61
-613.63
-678.33
-711.89
-726.34
-737.84
-758.43
-791.06
-831.95
-873.98
-908.48
-929.18
-859.00
-663.80
-367.96
-43.13
243.54
462.57
616.55
720.69
782.88
815.80
811.97
765.79
682.39
577.60
467.87
362.38
277.67
225.67
214.33
232.67
264.08
295.14
321.33
343.50
365.65
393.04
427.69
466.99
499.14
512.07
500.16
467.67
422.91
375.93
335.83
306.66
287.57
269.53
245.14
210.77
168.12
118.19
63.22
7.16
-45.94
-92.69
-132.99
-167.79
-197.98
-223.65
-250.79
-285.81
-332.62
-391.65
-459.73
-531.20
-598.16
-651.92
-653.96
-585.38
-457.17
-304.64
-163.77
-53.54
24.57
78.35
116.88
146.33
164.55
168.99
161.14
147.16
134.29
127.08
126.31
130.16
135.83
137.14
130.32
115.98
98.61
83.34
73.12
68.17
66.80
66.86
64.23
56.43
43.87
29.34
16.05
5.79
-1.47
-6.68
-11.03
-16.58
-24.50
-34.49
-45.11
-54.78
-62.56
-68.27
-72.08
-73.80
-73.46
-70.71
-64.91
-55.46
-42.66
-26.79
-8.88
9.81
28.42
46.16
62.33
76.08
86.22
91.35
90.44
83.05
70.08
54.32
39.12
27.87
22.83
24.46
31.49
41.64
52.66
63.23
73.90
85.71
99.62
115.98
134.23
153.36
172.22
189.28
198.93
198.45
185.22
158.28
119.89
75.60
32.72
-2.63
-28.31
-46.82
-62.64
-79.55
-97.46
-112.02
-117.53
-111.24
-95.13
-75.74
-61.40
-58.02
-66.93
-85.55
-107.34
-126.21
-139.03
-145.82
-148.28
-147.68
-143.46
-133.83
-116.95
-92.51
-62.35
-29.63
2.19
30.63
54.63
72.74
86.17
96.20
103.75
109.08
112.10
112.83
111.45
108.32
103.79
98.34
92.20
85.76
79.65
74.72
71.79
71.11
72.04
73.14
72.95
70.43
65.65
59.86
54.98
52.66
53.80
58.33
65.45
73.88
81.38
84.52
79.24
62.61
35.08
1.95
-27.83
-45.30
-45.82
-32.07
-12.39
3.30
8.48
2.72
-9.38
-21.78
-30.66
-35.69
-38.97
-42.42
-46.22
-49.04
-49.45
-47.33
-44.20
-42.27
-43.05
-46.69
-51.79
-56.45
-58.93
-58.43
-55.13
-50.23
-45.48
-42.62
-42.72
-45.59
-49.82
-53.26
-53.84
-50.54
-43.86
-35.59
-27.98
-22.81
-20.60
-20.50
-20.77
-19.56
-15.60
-8.66
0.41
10.05
18.45
23.98
25.88
24.46
21.06
17.60
15.55
15.38
16.54
17.76
17.66
15.50
11.37
5.77
-1.04
-9.28
-18.95
-29.19
-38.11
-43.55
-43.66
-37.88
-27.17
-14.00
-1.51
7.76
12.46
13.87
12.81
10.23
7.21
5.07
6.95
15.08
29.79
49.12
69.86
88.96
104.79
117.07
126.30
131.68
132.45
128.92
122.67
115.81
110.03
106.76
107.00
111.11
115.81
118.17
117.33
114.61
112.09
111.17
112.17
114.05
117.17
115.82
105.01
83.36
53.29
18.73
-17.02
-51.89
-85.00
-116.58
-153.63
-201.76
-261.95
-330.44
-401.78
-471.54
-537.27
-598.11
-619.51
-584.60
-501.90
-399.25
-303.02
-226.73
-172.66
-136.60
-110.71
-85.35
-57.18
-24.58
12.77
53.07
91.58
122.39
141.71
150.34
152.73
149.98
142.63
131.51
118.24
104.50
91.93
81.86
75.75
74.44
75.12
75.15
73.95
73.66
76.86
85.41
98.07
110.74
117.95
114.02
97.21
71.15
43.61
22.78
14.01
17.14
28.07
41.68
53.78
62.74
68.92
73.30
76.18
77.19
75.81
72.37
68.22
64.99
64.04
65.58
68.85
72.51
75.29
76.42
75.98
74.85
74.16
74.69
76.37
78.39
79.48
78.40
74.26
66.94
56.82
44.68
31.40
17.49
3.21
-11.45
-26.46
-40.97
-54.77
-67.13
-77.31
-84.71
-89.20
-91.09
-91.05
-89.92
-88.52
-87.45
-86.73
-86.14
-85.33
-84.05
-82.36
-80.64
-79.45
-79.22
-80.68
-83.20
-86.14
-88.69
-90.40
-91.09
-90.89
-90.19
-89.40
-88.83
-88.54
-88.95
-89.35
-88.79
-85.69
-78.30
-65.42
-47.30
-25.97
-4.57
13.67
26.73
34.19
37.33
37.96
37.29
35.65
32.97
29.59
26.59
25.53
27.60
33.25
41.70
51.09
59.47
65.52
69.05
71.12
73.16
76.00
80.13
85.29
90.53
94.96
98.05
98.48
96.51
93.04
87.10
78.83
69.70
61.67
56.38
54.20
53.80
52.54
47.43
36.63
19.55
-0.80
-21.11
-38.82
-52.56
-61.46
-64.75
-61.74
-51.21
-33.00
-9.30
14.68
32.27
37.93
30.19
12.06
-9.92
-28.60
-39.25
-41.69
-40.31
-41.64
-51.25
-70.79
-98.55
-130.19
-160.32
-183.75
-196.33
-195.44
-180.50
-155.36
-123.42
-90.92
-65.73
-54.23
-57.90
-72.18
-87.98
-95.28
-87.37
-63.85
-30.94
0.90
21.38
25.52
13.93
-8.51
-35.41
-60.98
-84.30
-104.12
-120.84
-135.76
-147.86
-156.02
-159.70
-159.31
-154.92
-146.42
-130.94
-105.50
-68.67
-18.58
41.91
104.87
160.63
204.08
235.52
263.24
296.17
339.07
394.97
460.30
525.85
580.44
617.48
633.69
632.41
617.78
564.83
464.45
326.69
175.47
33.98
-70.23
-139.93
-179.69
-192.66
-180.93
-144.70
-83.96
-2.70
84.04
161.02
212.22
228.56
207.67
154.19
81.92
6.71
-54.63
-105.00
-150.27
-197.44
-249.17
-304.84
-360.87
-410.75
-441.58
-445.49
-425.16
-390.16
-354.14
-326.48
-309.72
-299.86
-289.97
-274.87
-254.85
-234.35
-217.68
-203.78
-188.48
-167.48
-137.52
-97.83
-49.83
2.43
54.33
104.00
152.34
202.22
251.04
296.85
336.93
368.55
389.08
397.55
395.89
387.96
376.89
363.55
346.64
322.99
289.66
245.41
191.91
133.22
74.04
17.66
-34.21
-80.17
-119.16
-150.50
-174.95
-194.60
-212.16
-229.57
-247.21
-263.69
-276.55
-284.21
-284.11
-276.45
-263.86
-249.70
-236.27
-224.38
-213.81
-203.71
-193.60
-180.65
-160.85
-130.90
-89.74
-38.40
20.51
85.03
152.62
218.02
275.25
320.46
352.67
373.20
383.66
382.96
366.32
327.03
269.84
195.18
110.33
28.54
-36.33
-75.71
-89.62
-85.34
-73.14
-62.08
-58.95
-64.71
-76.15
-88.51
-98.08
-103.45
-104.95
-103.64
-101.54
-100.92
-102.17
-104.49
-106.22
-105.65
-102.20
-95.83
-87.10
-77.13
-66.45
-52.91
-32.68
-2.60
37.87
85.98
136.36
182.85
219.03
239.48
241.43
225.43
195.27
157.11
118.40
82.42
54.06
36.31
29.11
29.81
35.56
44.12
53.38
61.36
66.19
67.27
64.75
59.86
53.78
47.73
42.20
35.13
24.27
8.28
-12.11
-35.21
-58.66
-80.92
-100.76
-118.33
-134.71
-151.08
-168.13
-185.63
-203.13
-214.84
-216.96
-206.76
-184.20
-152.24
-116.39
-83.34
-58.85
-46.10
-44.54
-51.08
-56.95
-55.26
-43.78
-26.00
-8.31
4.51
11.52
14.99
17.59
21.06
24.71
26.71
25.70
21.92
17.18
13.68
12.93
14.72
17.92
20.42
20.48
17.47
12.13
6.14
1.12
-1.96
-3.24
-3.52
-4.18
-6.30
-10.31
-15.76
-21.68
-27.19
-31.76
-35.46
-38.65
-41.95
-45.80
-50.33
-55.24
-59.93
-63.88
-66.65
-67.95
-67.62
-65.57
-61.70
-55.94
-48.61
-39.64
-29.27
-17.94
-6.19
5.42
16.46
26.56
35.48
42.93
48.72
52.58
54.55
54.90
54.12
52.86
51.70
50.89
50.20
48.95
46.17
41.41
34.76
26.91
19.03
12.36
7.59
4.61
2.42
-0.50
-5.00
-11.16
-17.90
-23.49
-26.07
-24.56
-19.13
-11.14
-2.44
6.18
15.13
26.13
41.63
64.15
95.69
137.55
190.15
247.66
303.12
347.48
370.97
366.30
332.02
273.97
203.84
134.85
76.75
34.12
5.95
-11.77
-22.99
-29.86
-33.00
-33.03
-31.75
-32.41
-38.08
-50.27
-68.39
-90.26
-113.09
-134.89
-154.98
-173.67
-192.29
-210.89
-228.28
-242.38
-250.94
-252.27
-245.87
-232.39
-208.77
-176.38
-138.03
-97.13
-56.86
-19.66
13.09
40.75
63.28
80.95
93.39
100.80
103.95
104.01
102.38
100.33
98.59
97.60
97.41
97.08
95.77
92.96
88.36
81.93
73.72
63.70
51.72
37.78
21.58
3.21
-16.85
-37.83
-58.66
-78.17
-95.53
-109.44
-118.53
-121.95
-119.07
-109.72
-94.21
-73.24
-45.76
-14.69
16.97
46.87
73.27
95.29
112.64
125.45
134.16
139.03
139.97
137.52
132.94
126.77
119.69
112.38
105.41
99.30
93.80
87.83
80.93
73.03
64.32
55.06
45.34
34.97
23.89
11.14
-4.93
-24.96
-48.34
-73.56
-98.84
-123.08
-146.56
-164.34
-174.76
-179.13
-179.02
-175.66
-169.71
-161.82
-153.20
-145.53
-140.42
-139.79
-146.79
-162.47
-185.21
-211.20
-235.90
-255.55
-267.66
-270.88
-251.85
-204.80
-132.92
-47.95
36.51
110.89
170.93
215.89
246.91
265.90
272.69
268.83
257.56
242.91
228.01
213.71
199.63
183.28
162.95
136.33
104.12
69.09
34.91
3.74
-24.81
-53.32
-85.01
-115.28
-144.57
-172.92
-198.55
-217.01
-222.80
-211.75
-183.32
-141.33
-93.43
-49.49
-15.90
5.82
19.62
31.81
47.85
69.10
94.64
118.53
132.25
130.20
110.84
78.87
43.88
17.07
6.87
15.21
36.71
61.20
79.77
85.54
78.77
64.70
49.08
34.74
21.16
6.43
-10.12
-26.47
-39.31
-45.37
-44.02
-37.76
-30.81
-27.24
-29.17
-36.09
-45.28
-53.57
-58.35
-58.99
-56.89
-54.60
-54.48
-57.73
-63.89
-71.12
-77.40
-80.93
-81.00
-78.00
-72.96
-66.89
-60.32
-53.63
-45.94
-36.62
-25.43
-12.78
0.35
12.75
23.26
31.08
35.71
37.17
35.46
30.82
23.43
13.48
1.32
-12.58
-27.60
-43.11
-58.22
-72.22
-84.32
-93.94
-100.62
-103.89
-103.38
-98.91
-90.72
-78.95
-64.36
-47.74
-30.24
-13.00
3.18
17.88
30.79
41.34
49.50
54.76
56.98
56.04
52.38
47.38
43.25
42.51
47.31
60.45
80.48
107.12
140.18
179.79
226.67
281.67
345.21
408.74
464.27
504.86
526.59
527.49
506.05
461.14
393.08
305.74
207.36
110.44
26.89
-35.42
-75.07
-96.40
-105.62
-107.90
-106.14
-101.83
-95.60
-89.38
-85.90
-87.20
-94.96
-108.34
-125.02
-142.31
-158.95
-174.83
-191.35
-210.48
-231.81
-256.08
-282.99
-310.43
-333.85
-347.03
-343.43
-319.53
-277.01
-222.97
-167.79
-120.91
-87.60
-67.59
-56.48
-48.37
-37.54
-20.20
5.47
38.67
76.38
112.79
140.60
151.65
143.04
118.00
84.40
52.10
29.44
21.62
29.49
50.11
77.26
102.67
117.70
115.86
95.43
60.95
23.17
-7.15
-21.09
-15.30
7.45
39.29
70.81
94.30
105.87
105.64
96.20
81.15
63.41
44.64
24.89
5.74
-11.33
-25.11
-35.23
-42.72
-49.28
-56.61
-65.61
-75.88
-85.75
-93.45
-97.59
-97.89
-95.52
-92.46
-90.75
-91.59
-94.92
-99.32
-102.81
-103.56
-100.22
-92.93
-82.86
-71.92
-61.36
-51.65
-42.12
-31.43
-18.12
-1.15
19.10
41.02
62.35
81.21
96.55
108.69
118.95
127.45
135.80
145.09
155.92
168.15
180.42
189.41
190.26
178.12
150.57
109.86
62.48
17.25
-18.16
-40.07
-49.65
-51.23
-49.56
-47.48
-45.27
-42.14
-37.67
-32.66
-28.76
-27.36
-28.58
-31.17
-33.25
-32.93
-29.65
-24.19
-18.23
-13.51
-11.22
-11.37
-12.87
-14.11
-13.55
-10.55
-5.54
0.19
5.11
8.01
8.61
7.58
6.27
6.17
8.20
12.29
17.45
22.16
24.95
25.00
22.53
18.60
14.62
11.41
8.89
6.06
1.44
-6.19
-17.46
-32.36
-50.56
-71.27
-92.43
-111.15
-123.23
-124.50
-112.85
-89.73
-60.13
-30.88
-7.97
5.78
10.79
9.76
5.87
1.25
-3.17
-7.03
-9.81
-10.62
-8.87
-5.04
-0.35
3.57
5.84
6.57
7.16
9.62
16.23
28.50
46.59
68.59
90.28
105.89
110.10
100.44
78.47
50.91
25.94
9.87
4.78
8.15
15.03
20.83
23.38
23.11
21.64
19.87
17.39
13.01
5.92
-3.45
-13.53
-22.33
-28.24
-30.95
-31.48
-31.55
-32.68
-35.48
-39.42
-43.26
-45.70
-46.23
-45.33
-44.35
-44.82
-47.70
-52.77
-58.73
-63.86
-66.82
-67.20
-65.77
-63.99
-63.26
-64.34
-66.69
-68.72
-68.81
-65.85
-60.00
-52.49
-44.97
-38.59
-35.30
-36.39
-42.24
-51.85
-62.08
-68.54
-66.92
-54.66
-33.05
-7.25
15.76
30.14
33.40
26.90
14.35
-0.30
-14.20
-26.68
-38.32
-49.53
-59.20
-65.64
-67.89
-66.77
-64.54
-63.30
-64.72
-69.08
-75.13
-79.32
-77.87
-68.49
-50.82
-29.68
-8.55
10.18
25.72
38.74
52.51
70.53
93.90
120.60
146.73
169.11
186.00
197.80
206.88
218.74
239.62
272.43
315.88
365.87
418.47
470.99
522.62
552.62
546.77
505.25
440.94
371.42
309.91
261.52
223.76
189.10
157.84
122.23
80.50
34.14
-13.60
-59.51
-101.86
-141.43
-181.81
-225.92
-271.83
-311.63
-338.99
-351.40
-350.87
-342.12
-329.98
-318.17
-307.78
-306.21
-307.97
-307.65
-301.81
-289.33
-271.36
-250.41
-230.41
-202.68
-167.13
-124.30
-77.07
-28.77
17.43
55.91
85.02
102.44
106.48
94.86
68.71
29.16
-21.53
-76.93
-126.75
-158.82
-165.26
-145.75
-109.21
-66.88
-29.08
-1.72
14.62
22.62
25.77
25.69
22.30
14.40
2.95
-8.95
-17.60
-20.11
-16.16
-8.11
1.49
10.30
17.09
22.76
29.79
40.43
56.27
77.89
104.95
135.80
166.89
192.63
202.70
191.92
160.84
115.86
66.46
21.56
-12.77
-33.96
-42.81
-39.60
-23.58
4.41
40.43
77.30
104.05
112.87
102.08
76.23
43.25
10.97
-15.98
-36.35
-51.05
-61.40
-67.83
-70.65
-70.67
-69.24
-67.66
-67.28
-68.63
-71.27
-74.20
-75.78
-75.23
-73.02
-70.47
-69.09
-69.92
-72.68
-75.69
-76.73
-72.88
-62.52
-45.93
-24.92
-1.84
21.28
43.62
65.65
87.32
109.46
132.46
155.94
178.63
198.02
210.23
210.71
195.96
165.44
123.23
77.01
35.47
5.04
-12.42
-19.49
-20.95
-20.71
-20.13
-18.22
-13.61
-6.60
0.15
2.96
-0.99
-12.77
-31.48
-55.37
-81.62
-106.06
-123.57
-128.74
-117.88
-91.83
-57.67
-25.06
-4.71
-3.28
-20.52
-49.80
-81.68
-107.92
-123.90
-128.17
-120.49
-100.91
-69.81
-29.40
14.71
54.34
81.64
92.14
87.10
73.18
59.15
52.45
55.99
68.15
82.16
89.92
85.47
66.55
37.92
8.30
-13.37
-21.81
-16.75
-2.42
15.27
31.51
43.82
51.88
56.25
57.70
56.88
54.65
51.84
48.76
45.05
39.79
31.46
18.20
-1.49
-28.04
-58.95
-89.90
-113.95
-123.39
-113.04
-83.74
-43.63
-5.83
15.96
15.03
-8.00
-44.71
-82.56
-110.10
-121.09
-115.43
-97.02
-71.22
-42.43
-14.44
9.52
25.85
30.56
20.57
-3.87
-37.48
-71.18
-93.29
-96.61
-81.04
-53.67
-25.56
-6.63
-1.46
-7.31
-17.22
-23.98
-24.31
-19.24
-12.61
-7.46
-4.27
-0.89
6.46
20.42
41.66
68.64
98.47
127.88
153.29
170.80
174.30
161.61
134.69
99.03
61.95
29.99
6.68
-8.08
-16.76
-21.90
-24.33
-23.62
-19.55
-13.16
-6.86
-3.50
-5.14
-12.46
-24.30
-38.24
-50.67
-57.93
-57.10
-47.15
-29.99
-10.08
6.18
13.67
10.59
-1.26
-18.23
-36.60
-53.63
-68.20
-79.62
-87.06
-89.44
-86.35
-78.12
-66.63
-53.88
-40.90
-27.32
-11.32
8.97
34.30
63.01
93.01
121.22
143.54
155.51
153.70
137.80
112.20
85.78
69.06
69.55
87.18
113.44
134.87
139.27
121.63
86.18
43.62
5.70
-20.07
-32.74
-36.33
-35.97
-34.83
-33.07
-29.15
-22.05
-12.88
-4.71
-0.90
-3.13
-10.35
-19.29
-26.08
-27.76
-23.69
-15.61
-6.21
1.99
7.57
10.78
12.94
15.48
19.10
23.16
25.97
25.53
20.41
10.35
-3.64
-19.58
-35.42
-49.43
-60.62
-68.57
-73.32
-75.02
-73.59
-68.86
-60.86
-50.14
-37.66
-24.73
-12.97
-3.91
1.62
3.39
2.12
-1.03
-4.79
-7.65
-8.23
-5.78
0.03
8.98
20.45
33.55
47.13
59.68
69.79
76.09
77.34
72.83
62.59
47.36
28.55
9.37
-8.80
-25.02
-38.99
-50.89
-61.07
-69.78
-77.06
-82.65
-86.20
-88.07
-88.80
-89.00
-89.06
-89.01
-88.79
-88.99
-90.93
-96.16
-104.86
-114.38
-119.24
-113.35
-93.53
-62.28
-27.37
1.04
14.02
9.31
-10.13
-37.36
-64.41
-84.79
-94.25
-90.42
-72.43
-41.40
-1.38
40.10
73.71
91.31
89.05
69.08
39.55
11.63
-4.47
-3.03
14.46
40.60
66.25
84.56
93.17
94.13
91.02
86.22
79.48
68.96
54.08
37.59
25.24
23.39
36.16
62.97
98.75
133.92
158.24
164.10
149.07
116.82
76.23
38.85
14.18
8.45
19.63
39.50
57.71
66.32
63.35
50.92
34.12
17.26
2.00
-13.00
-30.01
-49.53
-69.34
-85.29
-93.60
-92.83
-84.81
-73.52
-62.45
-52.33
-41.25
-27.05
-10.10
5.76
15.18
14.19
2.88
-14.17
-29.77
-37.29
-33.75
-20.95
-4.20
10.51
19.02
19.95
15.02
8.23
4.44
7.10
16.75
31.01
45.75
56.93
61.65
58.91
49.14
33.49
13.21
-10.63
-36.05
-59.26
-72.33
-70.11
-55.55
-40.52
-38.43
-55.71
-88.02
-122.65
-145.26
-147.62
-131.52
-106.18
-82.66
-67.80
-61.90
-61.04
-60.40
-57.03
-50.75
-44.46
-38.22
-30.05
-16.52
5.48
36.62
73.85
111.55
142.99
162.99
170.50
168.60
162.79
158.02
155.97
150.47
137.03
112.77
78.17
37.39
-3.55
-39.49
-67.65
-87.98
-102.17
-111.63
-117.91
-122.19
-125.32
-127.68
-129.87
-132.25
-134.75
-137.09
-138.24
-137.62
-134.91
-130.90
-124.55
-114.76
-100.31
-80.01
-53.24
-20.05
18.04
58.50
97.25
131.43
159.56
181.56
198.11
210.12
218.74
225.00
229.65
232.35
231.51
223.77
205.44
174.75
133.54
87.61
44.43
10.26
-12.54
-25.31
-32.13
-37.03
-41.87
-46.81
-51.24
-55.42
-61.32
-72.20
-90.14
-114.42
-140.40
-160.49
-166.45
-152.77
-119.35
-71.82
-20.68
22.94
49.82
55.37
40.54
10.79
-25.85
-60.80
-84.23
-89.30
-73.35
-37.82
11.64
66.12
115.45
150.82
166.94
163.22
139.37
103.19
62.78
23.95
-10.19
-38.29
-60.08
-75.90
-86.48
-93.17
-97.04
-99.70
-102.43
-105.57
-108.63
-110.71
-110.76
-107.96
-102.34
-93.40
-82.04
-69.66
-57.50
-46.35
-36.37
-27.06
-17.54
-6.61
6.55
21.61
37.62
53.67
69.40
85.07
101.57
117.28
132.60
147.82
162.62
176.75
189.87
200.86
207.02
204.10
187.92
157.16
114.53
66.63
22.06
-11.90
-31.84
-38.81
-36.97
-31.15
-24.40
-18.11
-12.60
-7.99
-4.61
-2.83
-2.85
-4.05
-6.15
-8.87
-12.57
-18.51
-28.46
-44.17
-66.42
-93.29
-120.34
-141.02
-148.62
-139.43
-114.82
-81.09
-47.14
-20.69
-5.43
-0.32
-1.20
-3.51
-4.64
-4.48
-4.26
-4.96
-6.39
-7.30
-6.54
-3.94
-0.36
2.79
4.15
3.31
0.89
-1.84
-3.59
-3.65
-2.25
-0.24
1.19
1.09
-0.66
-3.55
-6.66
-9.12
-10.50
-10.96
-11.04
-11.46
-12.72
-14.94
-17.83
-20.95
-23.84
-26.30
-28.41
-30.41
-32.65
-35.36
-38.59
-42.22
-46.03
-49.79
-53.27
-56.31
-58.78
-60.49
-61.27
-60.92
-59.23
-56.22
-51.75
-45.83
-38.60
-30.30
-21.15
-11.44
-1.46
8.50
18.14
27.20
35.38
42.44
48.15
52.37
54.96
55.90
55.20
52.99
49.46
44.88
39.48
33.58
27.47
21.39
15.53
10.01
4.85
0.00
-4.60
-9.08
-13.57
-18.18
-23.01
-28.07
-33.33
-38.80
-44.45
-50.18
-55.89
-61.52
-66.98
-72.14
-76.90
-81.18
-85.06
-88.75
-92.32
-95.93
-99.74
-103.75
-107.82
-111.66
-114.98
-117.65
-119.81
-121.49
-122.87
-124.04
-124.77
-124.44
-122.06
-116.51
-106.76
-94.32
-80.28
-65.72
-51.41
-37.52
-23.54
-8.52
8.45
27.77
48.96
71.22
93.32
114.27
133.67
151.85
169.63
188.08
208.21
230.85
256.44
284.12
311.22
333.30
345.28
343.17
325.84
295.72
258.08
219.15
183.74
154.00
129.42
108.17
88.51
69.70
52.03
36.10
22.33
10.59
0.44
-8.42
-15.79
-20.96
-23.20
-22.26
-18.82
-14.38
-10.85
-9.69
-11.32
-14.92
-18.92
-21.78
-22.76
-22.19
-21.30
-21.45
-23.39
-26.78
-30.24
-31.99
-30.64
-25.86
-18.52
-10.40
-3.46
0.80
1.74
-0.43
-4.87
-10.48
-16.17
-21.07
-24.63
-26.74
-27.56
-27.50
-26.85
-25.70
-23.92
-21.36
-18.03
-14.29
-10.82
-8.32
-7.35
-8.04
-10.16
-13.09
-16.15
-18.65
-20.13
-20.44
-19.77
-18.59
-17.45
-16.79
-16.79
-17.28
-17.86
-18.01
-17.35
-15.75
-13.44
-10.88
-8.55
-6.76
-5.48
-4.38
-3.03
-1.11
1.40
4.19
6.80
8.82
10.01
10.23
9.41
7.47
4.47
0.82
-2.72
-5.30
-6.31
-5.82
-4.57
-3.62
-3.83
-5.48
-8.19
-11.16
-13.66
-15.25
-15.85
-15.63
-14.82
-13.62
-12.24
-10.91
-9.77
-8.84
-7.96
-6.85
-5.26
-3.12
-0.64
1.82
3.76
4.77
4.62
3.42
1.59
-0.24
-1.42
-1.57
-0.75
0.53
1.60
1.85
1.09
-0.44
-2.15
-3.44
-3.95
-3.68
-2.94
-2.13
-1.59
-1.45
-1.69
-2.22
-2.97
-3.92
-5.01
-6.08
-6.81
-6.84
-5.97
-4.27
-2.10
0.05
1.73
2.59
2.41
1.06
-1.40
-4.59
-7.81
-10.21
-11.13
-10.45
-8.63
-6.54
-4.95
-4.21
-4.17
-4.37
-4.45
-4.33
-4.18
-4.28
-4.70
-5.40
-6.29
-7.32
-8.52
-9.89
-11.29
-12.46
-13.23
-13.70
-14.31
-15.62
-17.98
-21.23
-24.71
-27.58
-29.24
-29.65
-29.21
-28.43
-27.55
-26.51
-25.15
-23.60
-22.33
-21.89
-22.41
-23.36
-23.74
-22.82
-20.71
-18.54
-17.86
-19.52
-22.97
-26.31
-27.20
-24.39
-18.68
-12.97
-11.06
-15.95
-28.26
-45.89
-64.81
-80.84
-91.31
-96.01
-96.89
-96.81
-98.06
-101.28
-105.17
-107.20
-104.46
-94.54
-75.93
-48.33
-12.92
27.40
68.12
103.98
130.52
145.72
150.93
150.35
149.35
152.23
160.51
172.61
184.65
192.21
192.13
183.74
169.12
152.39
138.15
129.73
127.82
130.34
133.47
133.86
130.22
123.62
116.30
109.31
101.09
87.78
65.47
32.74
-7.76
-50.12
-87.82
-116.49
-135.82
-148.67
-158.46
-166.25
-169.72
-164.22
-145.88
-114.90
-76.71
-41.42
-20.25
-20.97
-44.41
-83.31
-124.52
-153.00
-156.59
-128.87
-72.11
3.67
84.09
155.34
208.84
243.76
266.44
286.59
312.92
347.30
383.57
410.33
416.54
396.63
352.68
292.64
220.81
143.15
64.44
-11.58
-81.49
-141.46
-187.42
-216.44
-228.41
-226.92
-217.52
-206.47
-198.38
-194.62
-193.47
-191.45
-185.49
-174.52
-159.88
-143.90
-129.42
-118.42
-111.24
-106.62
-102.44
-96.80
-88.94
-79.41
-69.25
-59.80
-52.10
-46.41
-42.23
-38.62
-34.70
-30.05
-24.82
-19.33
-14.04
-9.37
-5.44
-2.19
0.59
3.19
5.77
8.36
11.02
13.83
16.89
20.38
24.39
28.90
33.96
39.40
44.88
49.83
53.67
55.67
55.08
51.19
43.37
31.56
16.04
-2.53
-23.11
-44.38
-64.92
-83.34
-98.51
-109.84
-116.83
-119.39
-117.74
-112.30
-103.58
-92.24
-78.96
-63.46
-47.55
-32.42
-18.81
-6.98
3.27
12.37
20.84
29.04
36.83
43.57
48.76
51.86
52.53
50.91
47.40
42.31
35.72
27.15
15.94
1.81
-14.90
-32.96
-50.19
-63.94
-72.04
-72.55
-66.17
-54.62
-40.13
-25.01
-11.51
-1.64
3.41
3.94
2.51
3.04
9.77
24.93
46.95
70.63
88.48
94.91
88.35
71.72
50.41
29.88
13.22
0.54
-9.68
-19.18
-28.42
-36.75
-42.88
-45.90
-45.34
-41.38
-34.81
-26.33
-16.53
-5.23
7.75
22.67
38.95
55.92
72.56
87.99
102.08
114.96
126.26
133.98
134.56
124.24
101.49
68.55
31.35
-2.44
-26.73
-39.21
-41.82
-38.91
-34.63
-30.91
-27.43
-23.05
-17.20
-10.67
-5.07
-1.85
-0.96
-1.21
-0.66
2.48
8.59
16.59
24.14
28.46
27.46
20.48
8.45
-6.43
-21.62
-35.43
-46.89
-56.53
-65.47
-74.56
-84.13
-94.04
-104.10
-113.84
-122.33
-127.51
-125.91
-114.37
-91.76
-60.33
-25.58
5.70
28.26
40.01
42.79
40.50
36.80
33.65
31.04
28.06
24.25
20.14
16.90
15.49
15.99
17.47
18.71
18.59
16.72
13.45
9.55
5.91
3.15
1.62
1.01
0.90
0.82
0.37
-0.70
-2.36
-4.22
-5.58
-5.55
-3.36
1.44
8.71
17.67
27.08
35.70
42.70
47.94
51.78
54.76
57.33
59.84
62.70
66.20
69.77
71.37
67.70
55.30
32.59
1.51
-32.31
-61.36
-78.82
-82.17
-73.71
-58.60
-42.22
-27.86
-16.28
-6.63
1.81
8.91
13.65
15.26
14.10
11.66
10.01
10.86
14.81
21.12
28.19
34.30
38.19
39.48
38.53
36.12
32.82
28.68
23.34
16.42
7.79
-1.92
-11.42
-19.04
-23.07
-22.50
-17.47
-9.26
0.13
8.40
13.56
14.58
11.20
4.43
-3.95
-12.12
-18.67
-22.72
-24.03
-22.85
-19.62
-15.03
-9.60
-3.86
1.39
5.01
5.47
1.38
-8.08
-21.80
-38.85
-57.09
-74.19
-88.28
-98.49
-105.28
-109.83
-113.54
-117.73
-123.80
-132.29
-142.63
-152.57
-158.03
-154.63
-139.65
-113.66
-81.13
-49.24
-24.65
-10.77
-6.74
-7.76
-8.53
-5.38
2.70
14.52
28.27
43.06
59.24
77.21
97.20
118.12
137.69
153.12
162.20
164.41
160.92
154.20
147.04
141.50
138.34
137.39
138.18
140.08
142.04
141.84
136.09
121.44
96.59
63.52
27.52
-4.53
-27.54
-39.50
-42.08
-39.03
-33.97
-28.77
-23.51
-17.63
-10.96
-4.26
1.41
5.39
8.17
11.11
15.47
21.86
29.41
36.22
40.07
39.36
33.49
23.15
9.86
-4.67
-18.90
-32.41
-45.24
-57.60
-69.36
-80.00
-88.69
-94.74
-98.36
-99.77
-100.15
-100.56
-101.84
-103.17
-103.22
-100.38
-93.66
-82.93
-68.95
-53.43
-37.93
-23.88
-12.60
-5.74
-4.75
-10.03
-19.73
-29.11
-33.40
-28.78
-14.94
4.82
25.30
42.38
54.54
63.03
69.26
72.56
70.52
60.70
43.56
23.67
8.25
3.92
12.07
29.29
48.32
61.87
65.58
59.44
46.55
30.95
15.66
1.74
-11.18
-24.06
-37.41
-50.57
-61.49
-67.68
-67.07
-58.72
-43.53
-23.98
-3.76
13.14
23.61
25.98
20.15
7.48
-9.27
-26.49
-40.19
-45.78
-41.82
-30.16
-15.84
-5.58
-5.09
-16.14
-35.30
-55.29
-68.34
-70.04
-60.89
-45.79
-31.19
-21.97
-19.60
-22.47
-28.07
-34.89
-43.03
-53.31
-65.95
-79.44
-90.94
-97.80
-97.82
-90.77
-78.12
-62.07
-44.28
-25.40
-5.08
17.32
41.22
65.57
88.36
107.27
120.53
127.64
129.45
127.73
124.38
120.65
117.06
113.25
108.61
102.91
96.69
91.00
86.90
84.72
83.98
83.64
82.60
80.09
76.21
71.85
68.12
65.96
66.11
68.96
74.41
81.10
86.36
85.71
75.30
53.73
23.39
-9.94
-39.12
-58.68
-66.85
-65.72
-59.54
-52.12
-45.32
-39.00
-32.20
-24.52
-16.66
-9.86
-4.90
-1.41
1.88
6.56
13.70
23.11
33.46
42.74
48.97
50.97
48.52
42.33
33.57
23.32
12.23
0.78
-11.05
-23.16
-35.13
-46.15
-55.27
-61.63
-64.77
-65.17
-63.21
-59.94
-56.43
-53.50
-51.50
-50.34
-49.53
-48.48
-46.79
-44.23
-41.23
-38.50
-36.77
-36.52
-37.69
-39.68
-41.55
-42.44
-41.91
-40.42
-38.97
-38.75
-40.62
-44.57
-49.75
-54.70
-58.23
-59.65
-59.38
-58.53
-58.39
-60.01
-64.07
-70.97
-80.47
-91.18
-100.15
-103.28
-96.77
-79.09
-52.34
-22.06
4.80
22.78
29.89
27.87
20.56
11.42
2.13
-7.38
-17.71
-28.61
-38.35
-44.43
-45.15
-39.97
-29.97
-16.88
-2.36
13.12
30.15
49.60
71.62
94.71
115.73
130.74
136.15
130.25
113.99
90.60
64.77
41.01
22.52
10.93
6.63
9.32
18.10
31.17
46.21
60.04
71.16
80.49
90.81
104.65
121.92
139.84
151.46
150.65
134.94
107.25
74.81
45.80
25.36
13.83
7.27
0.14
-11.31
-27.51
-46.24
-64.68
-80.96
-95.02
-106.78
-115.07
-117.38
-110.92
-94.38
-71.52
-49.35
-35.08
-33.23
-43.22
-60.75
-80.07
-96.16
-106.18
-109.60
-106.79
-98.91
-87.30
-73.11
-57.22
-39.80
-20.59
0.22
21.99
43.31
62.85
80.01
94.72
106.42
113.51
113.13
99.60
72.28
33.85
-10.40
-53.78
-90.50
-117.19
-133.22
-139.00
-135.68
-124.80
-108.78
-90.77
-74.11
-61.52
-54.11
-50.11
-47.17
-43.94
-41.25
-41.70
-47.92
-61.00
-79.77
-100.81
-117.52
-124.07
-116.77
-95.61
-64.01
-28.75
3.21
26.83
41.05
51.59
64.14
88.55
123.68
164.01
203.81
239.76
272.20
295.48
311.15
321.66
329.43
335.40
341.36
350.18
365.41
389.50
408.53
410.38
384.11
325.64
239.29
137.60
36.41
-50.26
-114.44
-155.76
-176.84
-183.49
-181.07
-173.51
-162.67
-149.79
-136.52
-125.18
-118.00
-113.83
-110.48
-105.37
-96.74
-84.30
-69.19
-53.41
-39.18
-28.02
-19.14
-11.12
-2.34
8.07
19.94
31.75
41.60
47.74
49.20
46.79
41.78
36.03
31.30
28.76
28.82
31.38
36.08
42.52
50.64
59.83
69.70
79.83
89.69
98.74
106.60
113.26
119.13
124.88
130.50
136.20
141.98
147.54
152.22
154.90
154.02
147.41
138.26
126.73
112.64
95.75
76.12
54.02
30.02
5.11
-19.51
-42.35
-63.18
-81.73
-97.91
-111.67
-123.03
-132.03
-138.52
-142.19
-142.64
-141.12
-138.66
-136.14
-133.99
-132.58
-132.63
-135.22
-141.95
-153.86
-172.55
-196.60
-221.24
-240.03
-248.14
-244.91
-233.24
-218.62
-205.61
-199.67
-202.43
-211.74
-223.93
-236.53
-249.03
-260.20
-268.40
-270.28
-268.34
-265.69
-263.93
-262.23
-258.42
-250.80
-236.88
-217.47
-195.38
-182.75
-190.26
-220.80
-268.18
-321.34
-370.33
-407.13
-430.26
-396.87
-289.36
-125.57
51.52
205.08
320.63
391.07
432.90
455.61
463.35
450.26
411.50
349.77
272.32
192.21
119.61
62.24
22.24
1.56
-2.64
7.55
30.50
63.35
100.12
132.31
154.61
164.74
165.79
159.67
148.22
133.18
116.49
100.15
85.31
73.88
66.56
63.89
64.29
66.53
70.02
76.86
88.75
104.80
121.74
134.12
137.51
129.24
112.25
93.43
80.13
76.29
81.08
90.22
98.47
102.25
101.20
95.80
86.56
73.44
56.03
34.08
8.29
-19.59
-47.01
-71.01
-89.39
-100.81
-104.80
-101.90
-93.42
-81.22
-67.41
-53.98
-42.42
-34.22
-30.72
-32.92
-41.73
-58.10
-83.12
-117.99
-164.31
-220.22
-284.26
-353.79
-424.11
-487.16
-533.18
-553.33
-542.57
-501.56
-436.24
-356.31
-271.26
-187.76
-107.03
-28.06
49.73
125.07
195.30
257.84
310.82
353.65
386.50
411.90
431.02
442.99
445.53
437.21
419.02
393.93
366.09
339.37
319.49
309.06
306.68
307.70
307.06
301.35
289.31
271.30
228.22
152.75
51.27
-59.01
-161.59
-247.89
-316.62
-370.06
-411.38
-443.34
-464.87
-476.22
-478.79
-475.70
-470.09
-463.73
-456.85
-448.66
-437.85
-420.25
-395.30
-364.20
-329.99
-296.02
-264.70
-237.12
-213.51
-193.66
-175.66
-158.21
-140.82
-124.06
-108.77
-95.26
-83.25
-72.17
-61.44
-49.92
-37.03
-22.69
-7.49
7.78
22.51
36.41
49.31
61.14
72.04
82.02
90.98
98.58
104.37
107.99
109.27
108.25
105.19
100.53
94.82
88.79
83.06
78.09
74.11
71.13
69.01
67.62
66.90
66.83
67.45
68.74
70.50
72.35
73.86
74.70
74.86
74.70
74.92
76.23
79.06
83.25
88.06
92.40
95.37
96.68
96.97
97.58
99.98
105.06
112.55
120.97
128.20
132.43
133.12
131.45
130.02
131.73
138.42
149.83
163.61
176.11
184.07
186.02
183.12
178.80
177.63
183.89
200.25
226.55
259.21
291.40
314.06
318.49
299.73
259.48
206.81
155.65
119.93
108.13
119.91
146.41
174.04
190.08
187.08
165.05
130.63
94.32
66.84
55.87
64.04
88.71
123.41
159.94
190.70
210.68
218.14
214.21
202.04
186.01
171.34
163.78
167.70
184.34
210.62
239.38
261.31
268.31
256.80
229.64
196.75
170.63
161.92
175.83
210.64
258.51
308.21
348.90
373.57
382.75
380.35
370.95
357.80
342.52
325.60
307.08
287.15
266.42
249.07
236.73
227.39
216.85
201.71
180.99
155.96
128.69
100.93
77.76
60.13
44.46
24.70
-3.93
-43.13
-92.11
-149.08
-240.14
-368.65
-517.32
-658.70
-772.66
-852.97
-901.81
-923.04
-919.08
-891.49
-838.45
-763.65
-677.20
-592.15
-519.25
-463.36
-423.61
-395.82
-375.30
-355.22
-332.93
-309.83
-288.83
-271.73
-257.92
-245.59
-233.25
-220.67
-206.49
-191.03
-175.98
-162.49
-150.59
-139.02
-126.28
-111.77
-96.39
-81.07
-67.66
-58.14
-52.68
-49.86
-46.82
-40.38
-28.31
-10.00
14.35
44.30
74.54
103.22
130.58
158.50
189.68
226.57
270.38
319.87
370.83
415.94
446.92
456.05
438.72
395.38
331.47
255.65
177.29
104.65
43.76
-0.93
-26.68
-32.54
-19.27
10.40
51.27
96.28
137.40
166.33
175.69
160.24
118.83
56.23
-16.54
-85.42
-137.41
-164.52
-166.04
-149.87
-127.57
-111.15
-107.32
-114.46
-126.68
-138.57
-147.71
-153.96
-157.54
-157.46
-151.50
-138.15
-116.50
-87.99
-55.39
-21.29
13.15
48.64
87.80
134.38
185.67
238.13
285.22
317.93
327.14
307.70
261.25
196.88
128.34
69.19
28.31
7.05
0.86
2.21
5.48
8.43
11.32
14.87
18.97
22.54
24.33
23.94
21.73
19.04
17.39
17.36
17.84
19.69
21.86
23.33
23.97
23.22
21.47
19.79
19.57
21.60
26.46
32.57
38.43
43.40
44.66
40.41
30.79
17.62
3.17
-9.63
-21.56
-33.81
-46.96
-65.57
-93.21
-130.58
-175.27
-223.62
-270.45
-315.99
-360.99
-405.22
-453.58
-509.84
-573.75
-640.82
-704.75
-757.11
-796.52
-823.02
-798.69
-702.37
-538.98
-339.48
-142.56
4.86
106.98
174.08
214.36
233.07
232.64
213.88
183.41
153.53
137.06
143.59
168.07
197.70
218.37
216.41
187.02
137.08
81.77
37.00
15.24
17.33
38.80
74.61
118.53
164.35
205.86
236.22
248.76
240.78
213.43
175.88
143.00
128.10
135.89
160.50
188.66
206.43
206.55
189.75
164.53
137.16
114.16
97.36
82.95
65.47
43.12
19.34
-0.38
-12.37
-16.95
-17.33
-18.21
-22.80
-31.06
-40.22
-46.90
-49.00
-46.57
-41.82
-37.08
-34.71
-35.97
-40.21
-45.45
-49.47
-50.96
-49.92
-47.71
-45.73
-45.36
-47.23
-50.91
-55.20
-58.88
-61.24
-62.26
-62.66
-63.04
-63.84
-65.08
-66.28
-66.63
-65.29
-61.69
-55.56
-47.04
-36.23
-23.32
-8.52
7.98
25.95
44.95
63.34
80.17
94.21
104.63
111.05
113.61
113.02
110.31
106.50
102.19
98.76
94.87
89.49
82.09
72.91
62.96
53.69
46.39
41.67
39.37
38.31
37.48
36.35
35.16
34.90
36.75
41.50
49.32
59.92
72.29
84.94
95.46
100.46
96.39
81.18
55.70
24.02
-8.06
-35.68
-56.78
-72.46
-85.52
-98.19
-110.95
-122.99
-133.92
-144.60
-156.73
-170.57
-182.69
-186.25
-173.55
-139.49
-84.23
-13.37
63.95
137.05
194.73
228.33
233.30
210.00
164.13
106.06
48.80
4.47
-19.81
-24.86
-17.71
-7.54
-0.87
1.40
3.76
12.71
32.34
61.07
90.49
110.03
112.18
95.95
66.65
32.35
-0.19
-28.18
-53.26
-81.16
-117.21
-163.23
-216.35
-270.20
-317.01
-349.68
-363.38
-346.99
-297.73
-224.17
-143.51
-72.02
-17.33
21.91
51.08
74.41
92.81
103.19
102.94
93.05
78.61
66.30
61.02
64.05
73.12
83.84
90.64
90.00
81.82
69.45
57.63
50.09
48.39
52.16
60.16
70.22
79.93
86.82
87.87
79.89
60.75
31.03
-4.99
-40.31
-67.53
-81.82
-82.98
-74.55
-61.37
-47.28
-34.04
-21.81
-10.51
-0.91
5.55
7.76
5.96
1.85
-2.28
-4.33
-3.46
-0.15
4.10
7.51
8.81
7.84
5.45
3.05
1.91
2.58
4.79
7.64
10.05
11.24
11.08
10.05
8.97
8.56
9.15
10.62
12.50
14.26
15.49
16.13
16.39
16.60
17.09
18.02
19.35
20.90
22.48
23.92
25.18
26.27
27.23
28.12
28.90
29.46
29.67
29.37
28.45
26.76
24.26
20.88
16.64
11.61
5.93
-0.18
-6.45
-12.59
-18.30
-23.26
-27.25
-30.07
-31.64
-31.99
-31.19
-29.44
-26.97
-24.02
-20.76
-17.37
-13.93
-10.44
-6.89
-3.25
0.44
4.15
7.90
11.78
15.71
19.65
23.59
27.38
30.83
33.68
35.70
36.77
37.02
36.44
35.32
34.06
33.05
32.50
32.48
32.97
34.06
36.08
39.12
43.49
49.46
56.96
65.37
73.66
80.70
85.71
88.69
89.67
89.40
88.64
87.61
85.65
81.22
72.12
55.93
35.16
11.30
-13.90
-38.82
-62.51
-84.94
-106.81
-129.34
-153.95
-181.92
-214.70
-252.02
-291.14
-326.46
-350.51
-356.16
-339.46
-301.53
-248.68
-190.98
-138.30
-97.38
-70.40
-55.74
-50.22
-51.36
-58.02
-69.44
-83.85
-97.14
-103.92
-99.67
-82.81
-55.17
-20.82
16.28
53.64
89.74
123.03
150.43
167.69
171.02
159.07
133.93
100.10
62.47
24.93
-9.55
-38.25
-58.09
-66.38
-62.18
-46.92
-23.82
3.87
34.14
66.03
98.26
128.25
152.39
167.72
173.75
172.81
168.25
161.91
152.53
136.78
112.20
79.90
44.73
12.90
-11.38
-27.81
-39.25
-49.07
-58.53
-65.94
-68.39
-64.11
-54.09
-41.97
-32.25
-28.29
-31.31
-40.67
-54.88
-72.20
-90.42
-106.32
-115.88
-115.17
-102.09
-77.50
-45.16
-10.10
23.39
53.63
81.74
110.57
142.48
177.53
212.55
241.66
258.07
256.37
234.64
195.42
144.96
91.38
41.78
0.16
-33.10
-60.13
-83.42
-104.06
-121.29
-133.16
-137.90
-134.83
-124.41
-107.70
-85.61
-58.40
-25.70
12.96
57.51
106.49
156.81
203.70
241.37
264.31
268.59
252.81
218.46
169.12
109.77
46.03
-16.10
-70.40
-111.10
-134.01
-137.72
-124.24
-98.65
-67.68
-37.87
-14.00
1.71
9.57
11.58
10.15
6.64
0.44
-10.69
-29.28
-56.24
-89.58
-124.39
-154.38
-173.96
-179.91
-172.03
-152.54
-124.59
-91.15
-54.47
-16.60
20.15
52.88
78.72
95.79
104.12
105.83
104.22
102.25
100.97
98.88
92.67
79.14
57.47
30.35
3.35
-17.31
-27.44
-26.96
-19.96
-12.90
-11.46
-17.96
-30.64
-45.21
-57.66
-66.32
-72.08
-76.55
-79.82
-79.16
-70.04
-48.51
-13.76
31.01
79.73
125.65
163.51
190.43
205.54
209.09
201.78
184.60
159.09
127.15
90.95
52.63
14.26
-22.26
-54.97
-81.92
-101.53
-113.11
-116.95
-114.10
-105.75
-92.63
-75.05
-53.14
-27.52
-0.02
25.98
46.20
56.78
55.83
44.46
26.37
7.13
-7.69
-14.03
-10.36
2.32
21.42
43.92
67.10
87.99
104.12
113.54
114.94
107.71
91.98
68.92
40.87
10.95
-19.35
-49.06
-77.47
-104.00
-128.12
-149.68
-168.95
-186.69
-204.50
-227.46
-259.83
-302.51
-351.42
-398.48
-434.55
-452.66
-449.61
-426.38
-390.43
-349.77
-310.27
-274.76
-244.51
-221.17
-207.21
-203.92
-188.10
-143.52
-66.40
31.21
130.63
217.98
287.69
339.35
375.61
399.47
409.50
404.07
384.19
353.47
317.68
282.20
249.56
219.78
190.82
157.09
114.01
59.81
-4.45
-77.03
-150.57
-220.89
-284.24
-336.05
-372.78
-391.06
-388.71
-365.87
-325.22
-271.08
-208.85
-142.81
-77.00
-17.23
29.60
57.77
65.87
59.22
49.06
48.19
66.96
109.08
169.70
236.91
296.14
335.33
349.38
341.72
322.01
302.12
290.74
289.77
294.23
295.82
287.82
268.97
243.54
217.80
196.15
178.75
162.03
141.61
115.10
82.84
46.34
6.10
-39.92
-94.96
-160.81
-235.00
-309.77
-374.14
-417.93
-435.93
-429.91
-407.58
-378.94
-352.28
-331.70
-317.02
-305.79
-295.54
-285.15
-274.86
-265.25
-256.30
-247.11
-236.30
-222.78
-206.26
-187.52
-167.87
-148.50
-129.86
-111.44
-91.98
-70.15
-45.07
-16.74
14.17
46.55
78.89
109.24
135.07
153.46
161.92
159.28
146.53
126.87
104.97
85.67
72.77
68.15
71.68
81.59
95.30
110.10
124.13
136.78
148.61
160.62
173.19
185.37
195.14
200.40
200.07
194.37
184.25
170.18
151.70
128.22
100.53
72.30
49.64
38.74
42.41
57.65
76.07
87.37
84.27
65.98
38.46
11.50
-5.78
-8.26
4.22
28.53
60.69
97.03
133.89
166.28
187.55
191.28
174.62
141.30
102.12
71.73
62.95
81.21
121.95
171.80
213.47
231.79
218.52
174.78
110.34
40.77
-17.05
-49.67
-51.04
-24.42
18.85
63.29
94.55
103.60
88.18
51.40
-0.70
-61.13
-122.23
-175.10
-210.23
-219.91
-201.72
-160.99
-109.72
-62.36
-30.19
-17.18
-19.61
-29.15
-37.52
-40.33
-38.11
-34.75
-34.45
-39.25
-48.10
-57.87
-65.31
-69.00
-69.82
-69.91
-70.73
-71.65
-69.94
-62.49
-47.95
-28.17
-7.81
7.67
14.70
13.07
5.60
-3.63
-11.48
-16.94
-20.72
-23.91
-26.69
-27.78
-25.34
-18.22
-7.10
5.42
15.74
20.70
18.63
10.08
-2.34
-14.45
-21.34
-18.93
-5.92
14.50
34.80
45.68
40.48
19.05
-11.36
-38.95
-52.97
-48.65
-29.04
-2.60
21.58
38.12
46.82
50.89
53.82
56.96
59.13
58.21
53.09
44.79
36.09
30.00
28.26
30.45
34.23
36.55
35.12
29.34
20.38
10.44
1.62
-4.72
-8.19
-8.98
-7.38
-3.65
1.82
8.20
14.17
18.34
19.90
18.85
15.86
11.67
6.62
0.69
-5.98
-12.59
-17.63
-19.53
-17.62
-12.76
-7.13
-3.26
-2.84
-5.92
-11.13
-16.54
-20.59
-22.62
-22.66
-21.05
-18.11
-14.06
-9.21
-4.09
0.71
4.71
7.61
9.29
9.69
8.71
6.45
3.29
-0.02
-2.46
-3.20
-1.91
1.01
4.51
7.38
8.67
8.09
6.04
3.21
0.23
-2.67
-5.57
-8.51
-11.31
-13.54
-14.75
-14.86
-14.15
-13.06
-11.69
-9.59
-5.85
0.35
9.13
19.57
30.00
38.67
44.36
46.88
46.78
44.94
42.15
38.88
35.49
32.26
29.54
27.58
26.48
26.10
26.17
26.35
26.36
25.93
24.76
22.49
18.82
13.73
7.66
1.51
-3.74
-7.41
-9.53
-10.89
-12.68
-15.90
-20.78
-26.59
-31.89
-35.28
-36.13
-34.89
-32.89
-31.42
-31.02
-31.20
-30.98
-29.66
-27.53
-25.77
-25.61
-27.50
-30.68
-33.68
-35.36
-35.53
-34.92
-34.41
-34.23
-33.61
-31.51
-27.48
-22.35
-17.81
-15.15
-14.35
-13.81
-11.35
-5.52
3.47
14.04
24.07
32.00
37.30
40.07
40.63
39.10
35.40
29.48
21.77
13.25
5.29
-0.74
-3.89
-3.97
-1.61
1.86
4.86
6.26
5.85
4.49
3.57
4.11
6.24
8.99
10.91
10.81
8.41
4.28
-0.48
-4.86
-8.39
-11.18
-13.74
-16.57
-19.80
-23.18
-26.16
-28.02
-28.22
-26.52
-23.11
-18.61
-13.87
-9.67
-6.43
-4.17
-2.61
-1.49
-0.82
-0.80
-1.71
-3.52
-5.74
-7.54
-8.02
-6.58
-3.08
2.21
8.73
15.74
22.43
28.02
31.89
33.70
33.41
31.13
27.18
22.00
16.12
10.12
4.51
-0.40
-4.29
-6.44
-5.59
-0.20
10.63
26.06
43.13
57.47
65.07
64.19
56.27
45.06
34.59
27.11
22.21
17.62
10.94
1.35
-9.88
-20.18
-27.07
-29.25
-26.80
-20.81
-12.82
-4.67
1.70
4.48
2.67
-3.22
-10.89
-16.98
-18.66
-14.97
-7.34
1.20
7.68
10.57
10.05
7.29
3.16
-2.37
-9.92
-19.73
-30.78
-40.77
-46.92
-46.85
-39.26
-23.94
-1.51
26.65
58.06
88.86
113.92
127.85
126.89
110.55
82.28
48.37
15.46
-12.36
-35.30
-57.38
-83.97
-118.31
-158.85
-199.00
-229.51
-242.16
-233.24
-204.74
-162.82
-114.49
-64.32
-13.33
39.79
95.71
151.78
201.74
237.69
253.57
248.13
225.30
191.93
154.09
114.47
72.38
26.60
-21.07
-64.21
-93.54
-101.40
-86.03
-52.98
-12.68
24.22
51.04
66.46
72.62
72.12
65.75
52.59
31.87
4.63
-26.45
-58.87
-92.08
-127.48
-166.16
-206.20
-241.29
-262.07
-260.20
-232.49
-183.27
-123.37
-66.47
-24.20
-2.25
0.61
-9.13
-23.35
-35.68
-43.22
-45.97
-45.07
-41.13
-34.16
-24.32
-12.75
-2.03
5.19
7.60
6.15
3.52
2.33
3.12
3.74
0.59
-9.44
-26.89
-48.89
-70.03
-83.89
-85.67
-73.90
-50.70
-20.02
13.76
47.87
82.17
118.07
157.31
199.47
240.81
275.24
297.59
304.08
293.45
267.04
227.63
180.67
132.71
90.22
58.87
44.35
49.16
71.69
106.26
144.16
179.00
207.02
226.91
239.09
246.68
251.67
254.12
252.74
245.16
232.56
217.85
204.06
177.47
130.88
65.70
-7.80
-67.41
-110.58
-139.13
-155.01
-160.30
-155.33
-139.74
-115.49
-87.53
-63.03
-48.24
-42.74
-41.32
-36.72
-24.92
-5.56
18.78
44.41
65.93
78.97
82.22
76.72
66.28
53.73
39.80
23.82
3.84
-27.13
-65.69
-105.14
-151.10
-204.16
-255.73
-302.10
-342.14
-376.62
-412.08
-454.42
-507.28
-570.43
-638.83
-706.67
-768.81
-818.77
-819.47
-749.77
-613.29
-439.83
-267.49
-122.49
-14.40
59.11
106.94
138.38
155.04
156.70
144.13
121.74
97.44
78.27
66.96
63.67
66.29
67.94
63.14
49.89
30.49
9.94
-7.25
-19.15
-25.88
-28.94
-32.42
-39.15
-49.36
-60.25
-69.30
-73.98
-73.39
-68.11
-59.76
-51.41
-45.53
-43.19
-43.88
-46.34
-49.07
-51.19
-52.32
-52.53
-52.56
-52.98
-53.97
-55.36
-56.74
-57.60
-57.63
-56.74
-55.02
-52.70
-50.10
-47.53
-45.26
-43.37
-41.54
-39.21
-35.76
-30.73
-24.07
-16.16
-7.80
0.18
7.26
13.63
20.08
27.69
37.38
49.33
62.80
76.38
88.50
98.23
105.77
112.41
120.03
130.16
143.24
158.29
173.36
186.40
196.28
203.42
209.55
217.10
228.43
245.16
267.86
295.62
325.55
352.50
369.65
370.49
351.62
314.97
268.19
222.21
187.16
168.53
165.60
172.92
183.66
193.02
199.48
203.99
207.67
210.06
208.92
201.48
186.28
164.26
138.71
113.78
92.84
77.13
65.37
54.56
41.32
23.45
0.85
-24.44
-49.17
-70.00
-84.52
-91.69
-91.78
-85.94
-75.90
-63.74
-51.68
-41.89
-35.91
-34.21
-36.03
-39.62
-42.86
-43.95
-41.86
-36.50
-28.58
-19.16
-9.30
0.22
9.12
17.43
25.13
31.69
35.97
36.50
32.13
22.68
9.33
-5.67
-19.79
-31.12
-38.82
-43.02
-44.37
-43.62
-41.51
-38.76
-36.20
-34.68
-34.74
-36.30
-38.61
-40.55
-41.11
-39.77
-36.69
-32.41
-27.66
-23.03
-18.91
-15.54
-13.02
-11.25
-9.94
-8.75
-7.50
-6.45
-6.28
-7.82
-11.59
-17.42
-24.42
-31.23
-36.62
-39.85
-40.84
-39.96
-37.73
-34.63
-31.10
-27.61
-24.73
-22.99
-22.65
-23.54
-25.05
-26.33
-26.67
-25.64
-23.34
-20.34
-17.44
-15.38
-14.50
-14.57
-14.93
-14.85
-13.98
-12.55
-11.20
-10.55
-10.73
-11.22
-11.17
-9.85
-6.97
-2.85
1.71
5.69
8.09
8.29
6.16
2.39
-1.50
-3.38
-1.15
6.28
18.23
31.93
43.10
47.23
41.22
24.72
0.70
-25.18
-46.00
-55.93
-52.23
-36.36
-13.54
9.05
24.83
30.02
24.68
12.38
-1.52
-11.85
-15.32
-11.38
-1.93
9.61
19.60
25.30
25.58
20.96
13.09
4.12
-4.01
-9.99
-12.98
-12.67
-9.26
-3.44
3.43
10.06
15.81
21.08
26.81
33.18
38.66
40.06
34.10
19.46
-1.82
-24.89
-44.13
-55.73
-59.08
-56.33
-50.64
-44.39
-38.38
-32.31
-25.85
-19.57
-15.06
-14.54
-19.74
-30.76
-45.78
-61.40
-73.42
-78.39
-74.88
-63.80
-48.20
-31.54
-16.23
-3.28
7.40
16.05
22.40
26.03
26.74
24.62
20.58
16.06
12.03
8.70
5.66
2.32
-0.93
-3.30
-4.96
-5.97
-5.83
-4.38
-1.58
2.42
7.48
14.45
23.85
33.42
41.24
47.06
50.81
52.70
53.20
52.79
53.66
57.13
59.63
58.06
52.29
43.29
33.19
24.53
19.48
21.81
34.01
52.49
74.57
100.71
131.06
164.74
199.56
215.92
200.01
175.51
157.71
145.29
139.90
140.79
144.42
145.50
138.78
123.98
103.82
78.15
49.00
20.80
-3.81
-24.17
-40.75
-54.31
-63.20
-65.91
-65.41
-64.15
-61.95
-57.93
-50.79
-39.83
-26.09
-11.62
-0.05
2.76
-6.29
-25.70
-51.61
-79.73
-107.57
-135.29
-164.42
-196.51
-232.07
-267.72
-296.32
-310.03
-303.54
-276.68
-234.74
-186.16
-139.36
-100.08
-69.86
-47.00
-29.22
-15.51
-6.56
-3.44
-5.88
-11.35
-15.55
-14.05
-3.98
14.96
40.45
68.39
94.12
113.50
123.85
124.29
115.69
100.26
80.93
60.68
42.02
26.61
15.09
7.25
2.42
-0.03
-0.39
1.23
4.57
8.83
12.56
13.97
11.44
4.17
-7.62
-22.76
-39.61
-56.59
-72.51
-86.67
-98.59
-107.63
-112.83
-113.06
-107.53
-96.44
-81.32
-64.74
-49.65
-38.55
-32.78
-32.23
-35.48
-40.21
-43.83
-44.12
-39.80
-30.90
-18.74
-5.55
6.24
14.68
18.83
18.89
15.96
11.56
7.01
3.02
-0.38
-3.62
-7.05
-10.51
-13.31
-14.57
-13.81
-11.41
-8.64
-7.11
-8.15
-12.16
-18.44
-25.46
-31.40
-34.67
-34.52
-31.18
-25.84
-20.45
-17.31
-18.49
-25.14
-36.66
-50.29
-61.27
-63.97
-53.77
-28.99
8.21
52.14
95.39
131.12
154.93
165.60
164.56
154.57
138.48
118.63
96.88
74.93
54.54
37.37
24.53
16.06
10.70
6.26
0.55
-7.74
-18.39
-29.85
-40.03
-47.33
-51.27
-52.50
-52.31
-52.01
-52.44
-53.85
-55.89
-57.87
-58.90
-58.19
-55.23
-50.06
-43.28
-35.89
-28.75
-22.33
-16.54
-11.09
-5.92
-1.38
2.02
4.16
5.48
6.74
8.59
11.06
13.63
15.64
16.90
17.85
19.34
21.95
25.60
29.54
32.88
34.98
35.80
35.52
34.21
31.66
27.61
22.22
16.40
11.60
9.27
10.10
13.71
18.61
22.82
24.64
23.14
18.34
10.95
1.93
-7.84
-17.68
-26.98
-34.91
-40.54
-43.03
-42.02
-37.90
-31.69
-24.72
-18.28
-13.29
-10.19
-8.86
-8.63
-8.40
-7.01
-3.57
2.12
9.43
17.12
23.91
29.07
32.61
35.18
37.32
38.98
39.31
37.09
31.33
21.90
9.57
-4.14
-17.45
-28.79
-37.06
-41.88
-43.50
-42.69
-40.34
-37.11
-33.14
-27.99
-20.78
-10.60
2.92
19.30
37.25
55.10
71.31
84.82
95.02
101.46
103.71
101.46
94.86
84.81
72.82
60.57
49.26
39.21
29.86
20.21
9.42
-2.75
-15.79
-28.73
-40.45
-49.97
-56.72
-60.59
-61.93
-61.38
-59.60
-57.05
-53.85
-49.87
-44.85
-38.71
-31.64
-24.17
-17.16
-11.64
-8.55
-8.58
-11.90
-18.08
-26.06
-34.38
-41.44
-45.82
-46.65
-43.81
-37.92
-30.07
-21.46
-13.05
-5.43
1.13
6.46
10.40
12.80
13.59
13.01
11.55
9.74
8.00
6.44
4.92
3.29
1.50
-0.24
-1.57
-2.09
-1.58
-0.11
2.03
4.33
6.21
6.96
5.83
2.19
-4.17
-12.60
-21.40
-28.18
-30.57
-27.20
-18.33
-5.87
7.35
18.60
26.18
29.79
30.11
28.07
24.20
18.55
10.92
1.48
-8.92
-18.78
-26.42
-30.52
-30.54
-26.62
-19.32
-9.21
3.19
17.11
31.08
42.60
48.62
46.46
35.13
16.11
-6.57
-27.45
-41.25
-44.44
-36.23
-18.36
5.65
31.56
55.36
73.73
84.15
85.30
77.46
63.04
46.54
33.25
27.01
28.07
32.34
32.88
23.14
0.30
-33.03
-69.50
-100.08
-117.47
-118.73
-105.85
-84.69
-62.94
-47.55
-42.99
-49.81
-64.76
-81.62
-93.33
-93.82
-79.28
-48.77
-4.50
47.99
100.15
141.59
163.13
160.19
135.34
97.89
60.20
32.16
16.66
9.01
0.31
-16.72
-43.22
-73.27
-96.93
-105.24
-94.35
-66.93
-30.35
6.61
36.95
57.07
66.50
66.63
59.47
47.19
31.98
16.27
2.45
-7.60
-12.88
-13.45
-10.21
-4.60
1.88
7.89
12.59
15.75
17.88
19.98
23.18
28.14
34.65
41.64
47.61
51.42
52.72
52.15
50.88
50.01
50.08
50.85
51.47
50.69
47.31
40.64
30.85
19.00
6.69
-4.73
-14.80
-24.12
-33.68
-43.85
-53.45
-59.90
-60.26
-52.65
-37.34
-16.80
5.34
25.54
41.21
50.84
53.61
49.12
37.20
18.04
-7.49
-37.65
-69.58
-99.42
-122.71
-135.31
-134.72
-121.03
-97.14
-67.84
-38.16
-11.78
9.67
26.40
39.41
49.78
58.20
65.22
71.48
77.54
83.50
88.57
91.25
89.90
83.70
73.34
61.01
49.76
42.36
40.32
43.21
48.61
52.82
51.78
42.23
22.94
-4.38
-34.86
-61.49
-77.40
-78.72
-66.60
-47.29
-30.13
-24.34
-35.84
-65.55
-109.40
-159.73
-207.47
-244.14
-263.52
-262.57
-241.74
-204.62
-156.99
-105.54
-56.47
-14.46
17.94
40.45
54.96
64.90
74.18
85.86
100.91
117.69
132.48
141.06
140.51
130.50
113.61
94.25
76.93
64.51
57.23
53.13
49.39
44.03
36.55
27.75
18.67
9.87
1.31
-6.99
-14.24
-18.73
-18.34
-12.03
-0.69
12.73
24.33
30.86
30.93
25.62
18.05
12.37
11.55
16.02
23.23
28.58
27.17
15.62
-6.43
-36.24
-67.95
-94.28
-108.88
-109.09
-96.99
-78.17
-59.54
-46.83
-44.40
-51.02
-62.69
-73.72
-77.64
-68.69
-43.45
-2.85
48.91
102.50
146.75
171.56
171.24
146.51
103.51
50.75
-5.02
-59.71
-111.22
-156.96
-192.98
-214.18
-215.98
-197.22
-158.21
-107.49
-58.88
-25.00
-10.53
-11.65
-20.28
-29.30
-35.80
-40.57
-46.23
-53.76
-61.34
-65.23
-61.91
-50.01
-30.15
-4.91
22.70
50.25
77.64
107.43
143.60
189.18
240.41
290.81
332.34
358.47
366.11
356.32
332.65
298.74
256.94
209.00
158.31
110.16
70.33
42.30
25.16
14.23
3.82
-9.71
-26.55
-44.35
-61.14
-77.12
-94.03
-113.10
-133.17
-150.80
-162.05
-164.68
-158.91
-147.07
-132.02
-115.92
-99.90
-84.40
-69.79
-56.55
-45.10
-35.56
-27.87
-21.97
-17.86
-15.50
-14.61
-14.77
-15.60
-16.86
-18.49
-20.46
-22.62
-24.67
-26.22
-27.00
-26.77
-25.42
-22.84
-19.05
-14.31
-9.09
-4.03
0.27
3.39
5.13
5.60
5.19
4.56
4.62
6.29
10.26
16.57
24.27
31.53
36.06
36.00
30.67
21.02
9.29
-1.87
-10.49
-16.12
-19.74
-23.32
-28.62
-36.68
-47.48
-60.01
-72.52
-82.80
-88.68
-88.92
-83.93
-75.86
-67.69
-61.55
-57.21
-51.67
-40.39
-19.64
11.36
49.69
89.90
126.33
155.15
175.11
186.79
191.11
188.24
177.66
158.94
132.81
101.62
68.95
38.53
12.97
-6.79
-21.67
-33.66
-44.88
-56.66
-69.13
-81.13
-90.74
-96.04
-95.86
-90.28
-80.54
-68.51
-56.15
-44.89
-35.51
-28.29
-23.32
-20.57
-19.92
-20.98
-23.04
-25.18
-26.62
-26.82
-25.73
-23.65
-21.10
-18.57
-16.51
-15.18
-14.73
-15.17
-16.37
-18.02
-19.73
-21.13
-21.95
-22.08
-21.63
-20.79
-19.84
-19.01
-18.42
-18.04
-17.65
-16.96
-15.71
-13.87
-11.83
-10.35
-10.48
-13.17
-18.93
-27.35
-36.71
-44.16
-46.44
-41.05
-27.43
-7.52
14.54
33.56
44.71
44.81
33.08
11.29
-16.72
-45.95
-71.32
-88.77
-95.94
-92.36
-79.15
-58.55
-33.46
-7.26
16.36
33.85
42.75
42.73
36.13
27.44
21.64
22.27
30.14
43.28
58.13
71.06
79.51
82.31
79.54
72.21
62.19
52.14
44.93
42.59
45.20
50.59
55.10
55.32
49.63
38.69
24.72
10.13
-3.38
-14.79
-22.88
-25.74
-21.23
-8.31
11.67
34.73
55.55
69.73
75.55
74.39
69.58
64.28
59.69
54.71
47.05
34.98
18.87
1.30
-14.25
-25.13
-30.85
-33.05
-34.32
-36.74
-40.91
-46.15
-51.47
-56.56
-61.99
-68.53
-76.04
-82.78
-85.78
-82.03
-69.95
-50.19
-25.48
0.33
23.53
41.44
52.68
57.20
56.33
52.62
49.38
49.50
54.34
62.87
71.98
77.55
76.20
66.51
49.40
27.62
4.73
-16.04
-32.44
-43.69
-50.32
-53.69
-55.29
-56.04
-55.81
-53.69
-48.67
-40.58
-30.40
-20.11
-12.16
-8.80
-11.37
-19.73
-31.93
-44.47
-53.18
-54.55
-47.10
-32.00
-12.63
6.61
21.71
30.02
30.66
24.39
13.30
0.40
-10.79
-16.83
-15.23
-5.14
12.30
34.26
56.92
76.42
89.79
95.47
93.29
84.10
68.87
47.72
19.49
-17.49
-63.56
-116.01
-168.06
-210.06
-232.52
-229.33
-199.83
-148.47
-82.69
-10.76
59.09
118.49
158.76
172.28
155.70
112.89
55.50
-0.28
-39.60
-54.58
-46.29
-22.59
6.69
34.31
57.36
76.16
91.41
102.37
106.78
102.53
89.33
69.40
47.01
26.64
11.39
2.04
-3.03
-6.93
-12.89
-22.73
-36.09
-50.51
-62.36
-67.97
-64.76
-51.97
-31.18
-6.34
16.83
32.30
36.11
28.18
12.91
-2.51
-11.50
-11.22
-3.77
5.58
11.93
13.82
13.66
15.45
21.37
29.68
35.56
34.12
23.56
6.44
-11.56
-24.82
-30.69
-30.33
-27.54
-26.15
-27.91
-31.81
-35.14
-35.30
-31.41
-24.63
-17.34
-11.89
-9.34
-9.29
-10.34
-11.07
-10.77
-9.65
-8.60
-8.44
-9.46
-11.27
-13.05
-13.98
-13.67
-12.33
-10.70
-9.67
-9.95
-11.71
-14.47
-17.26
-18.97
-18.74
-16.34
-12.32
-7.79
-4.06
-2.18
-2.62
-5.13
-8.92
-12.91
-16.17
-18.04
-18.31
-17.03
-14.36
-10.43
-5.42
0.41
6.60
12.57
17.74
21.65
24.09
25.17
25.32
25.21
25.68
27.40
30.71
35.24
39.84
42.64
41.59
35.25
23.47
7.77
-8.90
-23.00
-31.54
-32.95
-27.52
-16.90
-3.41
10.67
23.37
32.87
37.53
36.24
29.21
18.46
7.39
-0.61
-3.76
-2.78
-0.45
0.08
-2.79
-8.13
-13.12
-14.75
-11.68
-5.03
2.37
7.66
9.54
8.96
8.45
10.55
16.44
25.27
34.69
41.99
45.25
43.85
38.09
28.60
15.99
1.35
-13.05
-23.75
-27.05
-20.83
-6.00
13.46
32.06
45.23
51.11
50.80
46.96
41.85
36.04
28.55
18.13
4.67
-10.27
-24.20
-35.00
-41.96
-45.68
-47.15
-46.70
-43.55
-36.27
-23.97
-7.40
10.93
27.53
39.50
45.78
47.34
46.31
44.64
43.27
41.83
39.16
33.97
25.35
13.14
-1.79
-17.56
-31.64
-41.88
-47.46
-49.26
-49.27
-49.31
-49.86
-49.98
-48.14
-43.24
-35.11
-24.12
-10.70
4.65
20.80
35.40
45.28
47.93
43.13
33.36
22.71
14.55
9.78
6.75
2.88
-3.32
-11.16
-18.50
-23.50
-25.98
-27.56
-30.30
-35.15
-41.03
-45.39
-45.64
-40.76
-32.07
-22.61
-15.72
-13.32
-15.09
-18.74
-21.30
-20.69
-16.59
-10.51
-4.86
-1.77
-2.15
-5.40
-9.85
-13.59
-15.35
-14.86
-12.87
-10.46
-8.45
-6.94
-5.36
-3.03
0.38
4.43
8.11
10.32
10.53
9.00
6.63
4.51
3.41
3.52
4.53
5.86
7.09
8.08
8.93
9.77
10.68
11.59
12.49
13.40
14.47
15.74
17.00
17.66
17.04
14.71
11.03
7.21
5.05
6.16
11.05
18.60
26.28
31.01
30.49
24.13
13.41
1.36
-8.30
-12.22
-8.33
3.42
20.60
38.18
49.29
47.11
27.14
-10.41
-59.93
-111.51
-154.03
-178.68
-181.46
-163.61
-130.28
-88.38
-44.68
-4.85
26.92
48.17
58.47
59.78
56.12
52.44
52.96
59.47
70.73
83.28
93.25
98.25
98.35
95.48
92.09
89.66
88.22
86.66
83.83
79.47
74.15
68.78
63.57
57.78
50.26
40.47
29.24
18.66
11.10
8.23
10.60
17.85
29.11
43.14
57.85
69.93
75.03
68.76
48.37
13.93
-31.43
-82.46
-133.21
-178.18
-212.89
-234.11
-239.98
-230.55
-208.09
-177.02
-142.84
-110.53
-83.12
-61.11
-43.11
-27.12
-11.80
2.84
15.75
25.54
31.29
32.89
30.96
26.57
20.89
15.10
10.38
7.87
8.40
12.16
18.55
26.24
33.60
39.41
42.92
44.09
43.14
40.14
34.96
27.33
17.24
5.37
-6.71
-16.77
-22.42
-21.88
-14.62
-1.63
14.99
32.92
50.54
67.39
83.66
99.25
112.92
122.23
124.54
118.46
104.90
87.10
69.30
55.14
46.39
42.80
42.82
44.81
47.32
49.11
48.87
45.15
36.97
24.48
9.28
-6.12
-19.29
-28.91
-35.17
-39.33
-42.78
-46.18
-49.30
-51.27
-51.39
-49.49
-46.04
-41.85
-37.68
-33.97
-30.86
-28.26
-26.03
-24.11
-22.41
-20.83
-19.06
-16.68
-13.32
-8.86
-3.61
1.77
6.40
9.57
10.88
10.34
8.36
5.55
2.60
0.15
-1.48
-2.39
-3.08
-4.23
-6.34
-9.41
-12.91
-16.08
-18.28
-19.42
-19.88
-20.22
-20.77
-21.43
-21.85
-21.68
-20.77
-19.26
-17.47
-15.74
-14.41
-13.69
-13.70
-14.33
-15.35
-16.44
-17.30
-17.71
-17.60
-17.05
-16.26
-15.60
-15.62
-16.93
-20.03
-24.94
-31.09
-37.39
-42.63
-45.99
-47.22
-46.62
-44.59
-41.42
-37.10
-31.56
-24.94
-17.85
-11.22
-6.05
-2.98
-2.10
-2.93
-4.76
-6.88
-8.85
-10.49
-11.79
-12.84
-13.77
-14.62
-15.26
-15.31
-14.26
-11.68
-7.45
-1.92
4.22
10.20
15.39
19.43
22.06
23.01
21.93
18.60
13.14
6.21
-1.17
-7.88
-13.07
-16.32
-17.61
-17.09
-15.00
-11.68
-7.48
-2.89
1.59
5.49
8.43
10.16
10.67
10.18
9.18
8.42
8.59
10.08
12.80
16.26
19.79
22.83
25.09
26.56
27.38
27.69
27.58
27.06
26.07
24.53
22.43
19.86
17.03
14.23
11.70
9.56
7.79
6.24
4.76
3.27
1.75
0.25
-1.18
-2.41
-3.29
-3.65
-3.45
-2.86
-2.22
-1.91
-2.10
-2.72
-3.40
-3.75
-3.46
-2.49
-0.98
0.80
2.69
4.79
7.33
10.53
14.39
18.55
22.39
25.21
26.47
25.97
23.88
20.63
16.79
12.88
9.37
6.52
4.42
2.96
1.97
1.29
0.96
1.13
1.92
3.20
4.61
5.64
5.91
5.34
4.06
2.27
0.05
-2.76
-6.27
-10.40
-14.70
-18.42
-20.85
-21.57
-20.66
-18.63
-16.20
-13.93
-12.15
-10.92
-10.11
-9.58
-9.14
-8.57
-7.61
-6.00
-3.68
-0.91
1.81
3.82
4.54
3.62
1.09
-2.67
-7.04
-11.30
-14.95
-17.78
-19.94
-21.88
-24.02
-26.48
-28.98
-30.84
-31.28
-29.82
-26.55
-22.18
-17.77
-14.24
-12.02
-10.90
-10.16
-8.98
-6.73
-3.15
1.57
6.94
12.18
16.42
18.85
18.98
16.91
13.42
9.81
7.39
6.96
8.51
11.31
14.26
16.42
17.28
16.81
15.17
12.57
9.12
4.90
0.03
-5.20
-10.35
-14.88
-18.22
-19.95
-19.91
-18.38
-16.02
-13.71
-12.22
-11.88
-12.53
-13.65
-14.71
-15.50
-16.16
-17.01
-18.19
-19.42
-20.09
-19.54
-17.50
-14.18
-10.11
-5.92
-1.94
1.80
5.45
9.16
12.85
16.23
18.81
20.04
19.37
16.32
10.68
2.58
-7.42
-18.38
-29.21
-38.95
-47.00
-53.18
-57.70
-60.88
-63.15
-64.93
-66.51
-68.11
-69.75
-71.03
-71.16
-69.14
-63.97
-54.94
-41.79
-24.73
-4.42
18.11
41.72
65.11
86.93
105.92
120.81
130.56
134.47
132.39
124.89
113.40
100.04
87.20
76.82
69.81
65.90
63.98
62.55
60.53
57.54
53.79
49.84
46.13
42.56
38.59
33.50
26.94
19.30
11.63
5.26
1.15
-0.44
-0.07
1.38
3.04
4.48
5.72
6.86
7.85
8.51
8.72
8.59
8.52
8.94
10.10
11.91
14.17
16.65
19.27
21.92
24.33
26.03
26.55
25.72
23.82
21.48
19.29
17.43
15.46
12.53
7.74
0.63
-8.61
-19.29
-30.51
-41.39
-51.26
-59.58
-65.85
-69.63
-70.73
-69.34
-66.25
-62.61
-59.59
-57.92
-57.58
-57.86
-57.78
-56.63
-54.29
-51.29
-48.37
-46.09
-44.52
-43.32
-42.07
-40.52
-38.66
-36.52
-34.02
-30.81
-26.50
-20.91
-14.31
-7.39
-1.03
4.03
7.43
9.27
9.89
9.72
8.99
7.80
6.05
3.69
0.81
-2.24
-4.94
-6.83
-7.73
-7.77
-7.32
-6.69
-5.96
-4.96
-3.42
-1.18
1.59
4.48
7.02
8.88
9.97
10.42
10.40
10.12
9.72
9.37
9.26
9.60
10.49
11.96
13.88
16.06
18.32
20.56
22.69
24.58
26.06
26.85
26.74
25.50
23.00
19.32
14.72
9.66
4.78
0.71
-2.00
-3.12
-2.73
-1.26
0.61
2.15
2.79
2.24
0.58
-1.79
-4.32
-6.49
-7.94
-8.57
-8.50
-7.95
-7.12
-6.16
-5.19
-4.23
-3.22
-2.01
-0.38
1.83
4.54
7.52
10.36
12.76
14.67
16.18
17.49
18.66
19.56
19.93
19.56
18.45
16.80
14.99
13.36
12.10
11.22
10.59
10.06
9.46
8.61
7.31
5.30
2.29
-1.90
-7.14
-12.89
-18.28
-22.42
-24.75
-25.30
-24.61
-23.36
-22.00
-20.57
-18.90
-16.92
-14.87
-13.15
-11.96
-11.04
-9.65
-7.05
-3.01
1.84
6.28
9.01
9.29
7.27
3.77
-0.17
-3.75
-6.64
-8.81
-10.29
-10.91
-10.45
-8.78
-6.11
-2.99
-0.10
2.06
3.37
4.05
4.48
4.92
5.45
5.92
6.13
5.88
5.15
4.03
2.67
1.32
0.24
-0.32
-0.19
0.63
1.93
3.34
4.46
4.91
4.56
3.54
2.27
1.42
1.53
2.78
4.81
6.86
8.11
8.14
7.10
5.71
4.77
4.71
5.42
6.30
6.63
6.08
4.85
3.53
2.65
2.33
2.22
1.78
0.69
-0.97
-2.75
-4.22
-5.28
-6.28
-7.76
-10.06
-13.13
-16.51
-19.63
-22.03
-23.43
-23.77
-22.95
-20.92
-17.76
-13.82
-9.75
-6.36
-4.27
-3.77
-4.67
-6.42
-8.32
-9.75
-10.26
-9.68
-8.10
-5.79
-3.19
-0.75
1.12
2.12
2.18
1.45
0.32
-0.78
-1.48
-1.62
-1.28
-0.63
0.12
0.75
1.02
0.65
-0.60
-2.78
-5.59
-8.37
-10.23
-10.44
-8.69
-5.34
-1.21
2.75
5.96
8.60
11.48
15.83
22.77
33.15
47.40
65.47
86.54
108.65
128.37
141.25
142.99
131.18
106.59
73.16
36.66
2.49
-26.13
-48.49
-65.30
-77.23
-84.01
-84.78
-79.12
-68.10
-54.28
-40.81
-30.18
-23.39
-20.02
-19.05
-19.76
-22.20
-27.00
-34.61
-44.55
-55.09
-63.50
-66.93
-63.50
-53.11
-37.68
-20.45
-4.80
7.04
14.52
18.44
20.04
20.20
19.03
16.27
11.86
6.34
0.81
-3.64
-6.33
-7.24
-6.83
-5.58
-3.83
-1.67
0.78
3.20
5.12
6.07
5.84
4.61
2.85
1.09
-0.18
-0.72
-0.44
0.54
1.95
3.44
4.64
5.22
4.96
3.83
1.96
-0.37
-2.75
-4.69
-5.73
-5.57
-4.14
-1.61
1.74
5.64
9.98
14.69
19.59
24.21
27.76
29.29
28.11
24.13
17.96
10.75
3.71
-2.36
-7.22
-11.18
-14.61
-17.71
-20.22
-21.66
-21.58
-19.77
-16.44
-12.06
-7.26
-2.65
1.16
3.68
4.55
3.67
1.34
-1.85
-5.02
-7.38
-8.42
-8.01
-6.40
-3.96
-1.09
1.98
5.06
7.99
10.47
12.16
12.75
12.11
10.48
8.39
6.60
5.66
5.81
6.76
7.94
8.71
8.60
7.49
5.49
2.93
0.18
-2.39
-4.50
-6.04
-7.12
-7.98
-8.90
-10.05
-11.39
-12.70
-13.68
-14.13
-14.03
-13.51
-12.71
-11.67
-10.35
-8.76
-7.03
-5.44
-4.30
-3.76
-3.66
-3.60
-2.99
-1.33
1.55
5.41
9.65
13.61
16.75
18.88
20.07
20.56
20.51
19.98
18.90
17.13
14.57
11.18
6.99
2.16
-2.96
-7.85
-11.92
-14.64
-15.70
-15.01
-12.76
-9.42
-5.72
-2.57
-0.92
-1.42
-4.13
-8.47
-13.37
-17.63
-20.44
-21.54
-21.19
-19.92
-18.15
-16.04
-13.54
-10.49
-6.83
-2.69
1.65
5.79
9.43
12.42
14.83
16.79
18.35
19.40
19.65
18.95
17.40
15.46
13.81
12.95
12.97
13.53
14.11
14.24
13.81
12.94
11.84
10.59
9.14
7.47
5.79
4.47
3.89
4.17
5.04
6.05
6.83
7.35
7.83
8.57
9.71
11.16
12.69
14.15
15.53
16.91
18.35
19.71
20.74
21.14
20.72
19.49
17.60
15.29
12.78
10.24
7.90
6.12
5.33
5.99
8.40
12.51
17.89
23.67
28.74
31.99
32.67
30.50
25.81
19.42
12.34
5.59
-0.20
-4.86
-8.65
-12.07
-15.56
-19.29
-23.04
-26.28
-28.38
-28.81
-27.31
-23.99
-19.29
-13.83
-8.21
-2.87
2.01
6.46
10.59
14.42
17.71
20.06
20.98
20.11
17.50
13.75
9.87
6.99
5.90
6.64
8.48
10.19
10.64
9.17
5.80
1.18
-3.43
-6.20
-4.90
2.51
16.74
36.08
56.08
70.58
74.03
63.96
42.29
14.55
-12.47
-33.52
-46.38
-51.78
-51.81
-48.31
-42.07
-33.27
-22.42
-11.01
-1.31
4.44
5.06
0.90
-6.43
-14.73
-22.12
-27.49
-30.66
-32.12
-32.63
-32.85
-33.08
-33.23
-32.99
-32.02
-30.19
-27.63
-24.73
-21.98
-19.74
-18.18
-17.19
-16.51
-15.89
-15.33
-15.06
-15.36
-16.39
-17.99
-19.77
-21.25
-22.06
-22.04
-21.26
-19.92
-18.25
-16.51
-14.91
-13.64
-12.86
-12.62
-12.94
-13.73
-14.79
-15.78
-16.23
-15.61
-13.60
-10.17
-5.70
-0.81
3.89
7.96
11.20
13.53
14.89
15.26
14.67
13.29
11.38
9.19
6.84
4.36
1.78
-0.69
-2.75
-4.10
-4.60
-4.41
-3.82
-3.23
-2.96
-3.27
-4.26
-5.75
-7.23
-7.87
-6.87
-3.87
0.67
5.49
9.00
9.91
7.83
3.36
-2.20
-7.39
-11.03
-12.40
-11.19
-7.45
-1.50
6.01
14.22
22.14
28.90
33.86
36.69
37.21
35.35
31.17
24.88
16.92
7.98
-1.10
-9.37
-15.92
-19.94
-20.98
-19.10
-15.04
-10.06
-5.58
-2.66
-1.67
-2.29
-3.80
-5.56
-7.18
-8.55
-9.63
-10.29
-10.32
-9.59
-8.29
-6.91
-6.13
-6.49
-8.03
-10.25
-12.26
-13.20
-12.60
-10.64
-8.03
-5.70
-4.37
-4.15
-4.60
-4.73
-3.51
-0.27
4.90
10.97
16.02
17.84
14.83
7.04
-3.20
-11.60
-13.32
-4.93
13.98
40.38
69.13
95.14
115.31
129.11
137.94
143.28
145.28
142.41
132.28
112.91
83.63
45.25
0.14
-47.65
-91.79
-123.98
-135.84
-122.25
-84.78
-33.02
17.66
51.56
58.94
39.96
4.36
-33.16
-59.37
-67.53
-58.87
-40.21
-19.49
-2.07
10.55
19.38
25.01
25.65
18.23
1.43
-21.62
-43.13
-54.04
-48.79
-28.61
-1.12
23.79
38.83
42.47
38.45
32.63
29.29
29.38
31.19
32.54
32.53
31.93
32.06
33.60
36.06
37.96
37.62
33.98
27.06
18.20
9.58
3.35
0.80
1.89
5.50
10.24
15.36
20.95
27.67
35.89
45.19
54.15
60.79
62.79
57.86
43.76
18.76
-17.52
-62.94
-111.98
-156.30
-186.80
-196.64
-183.81
-151.80
-108.27
-62.19
-21.02
10.86
32.27
44.18
48.47
47.13
42.12
35.47
29.55
26.79
29.20
37.88
52.40
70.78
89.72
105.48
115.02
117.01
112.17
102.85
91.71
80.42
68.85
55.17
36.91
12.27
-19.40
-57.82
-102.42
-152.43
-206.17
-259.79
-306.86
-339.43
-350.43
-336.40
-298.98
-244.26
-180.56
-115.96
-56.52
-6.15
32.83
59.06
72.13
73.08
64.65
50.80
35.60
21.96
11.15
3.08
-2.95
-7.34
-9.75
-9.29
-4.94
3.83
16.76
32.70
49.95
66.73
81.66
94.04
103.78
110.99
115.54
116.85
114.04
106.48
94.36
78.94
62.19
46.10
32.04
20.49
11.29
3.95
-2.00
-7.07
-11.49
-14.97
-16.37
-14.03
-6.94
3.98
15.03
20.44
14.35
-6.69
-41.91
-86.26
-131.98
-171.04
-197.28
-207.38
-200.85
-179.40
-146.19
-105.15
-60.55
-16.44
23.77
57.69
84.05
102.77
114.61
120.87
122.72
120.79
115.25
106.16
94.20
80.84
68.08
57.81
51.04
47.75
47.14
48.25
50.32
52.92
55.72
58.27
60.04
60.79
60.78
60.71
60.92
60.76
58.38
51.58
39.22
22.23
3.60
-12.82
-24.08
-29.27
-29.68
-27.81
-26.23
-26.70
-30.02
-36.28
-45.09
-55.62
-66.43
-75.57
-81.07
-81.66
-77.30
-69.19
-59.37
-50.02
-42.72
-38.00
-35.23
-32.96
-29.50
-23.56
-14.74
-3.46
9.39
22.74
35.58
46.88
55.61
60.97
62.69
61.37
58.29
54.90
52.19
50.31
48.69
46.54
43.24
38.60
32.67
25.52
17.13
7.54
-2.76
-12.76
-21.07
-26.54
-28.90
-29.05
-28.71
-29.69
-32.80
-37.47
-41.93
-44.16
-42.88
-38.22
-31.56
-24.86
-19.63
-16.43
-14.74
-13.57
-12.10
-10.30
-8.89
-9.01
-11.65
-17.01
-24.23
-31.48
-36.53
-37.47
-33.45
-25.22
-15.02
-5.88
-0.57
-0.51
-5.30
-12.92
-20.42
-24.71
-22.98
-13.28
4.78
28.92
53.47
70.61
73.40
59.73
34.80
10.09
-1.51
8.09
37.72
77.21
112.15
130.38
126.80
104.17
70.16
33.11
-0.97
-28.97
-49.45
-61.22
-63.03
-54.44
-37.21
-15.92
2.66
11.80
7.58
-9.23
-32.92
-55.12
-68.47
-69.89
-61.96
-51.41
-45.66
-49.23
-61.98
-80.03
-98.36
-113.31
-123.49
-129.00
-129.99
-125.77
-115.18
-97.71
-74.36
-47.76
-21.15
2.51
21.25
33.96
40.13
39.76
33.51
22.93
10.36
-1.63
-11.01
-16.94
-19.87
-21.33
-23.18
-27.09
-33.70
-42.10
-49.57
-52.01
-45.17
-26.55
2.96
38.99
75.21
106.13
129.26
145.82
158.95
171.15
182.12
188.70
187.40
177.41
161.83
146.32
135.81
131.89
132.42
133.60
132.65
129.24
124.81
120.42
115.23
106.62
92.23
71.91
48.42
25.93
7.58
-6.02
-16.45
-25.50
-33.31
-37.87
-36.40
-27.51
-12.87
2.86
13.62
14.76
5.40
-11.38
-30.08
-45.44
-54.71
-58.16
-58.03
-56.51
-54.23
-49.95
-41.72
-28.57
-11.61
6.01
20.36
28.55
29.91
26.18
20.70
16.76
16.13
18.37
21.24
21.90
18.30
9.81
-3.07
-19.53
-39.20
-61.90
-86.61
-110.72
-130.11
-140.60
-139.99
-129.41
-113.15
-96.93
-85.46
-80.53
-80.85
-83.34
-85.39
-86.38
-87.85
-91.88
-99.22
-107.63
-112.05
-106.29
-85.48
-48.09
3.21
62.35
121.43
172.71
210.22
230.56
233.07
219.56
193.45
158.83
119.67
79.50
41.33
8.00
-17.95
-34.76
-42.32
-42.84
-40.51
-40.24
-45.77
-58.00
-74.41
-89.92
-98.99
-97.79
-85.83
-66.09
-43.57
-23.36
-8.88
-1.16
0.55
-2.29
-8.38
-16.85
-26.96
-37.76
-48.13
-56.98
-63.59
-67.66
-69.12
-67.95
-64.18
-57.98
-49.80
-40.27
-30.00
-19.45
-9.06
0.47
7.91
11.80
11.08
5.78
-2.78
-12.38
-20.89
-27.14
-31.28
-34.54
-38.48
-44.16
-51.52
-59.34
-65.62
-68.20
-65.51
-56.95
-42.97
-24.79
-4.06
17.62
38.86
58.48
75.35
88.35
96.55
99.47
97.41
91.53
83.57
75.44
68.51
63.17
58.78
53.98
47.31
37.79
25.24
10.32
-5.81
-21.78
-36.38
-48.76
-58.33
-64.76
-67.82
-67.37
-63.32
-55.69
-44.79
-31.32
-16.45
-1.64
11.69
22.47
30.12
34.45
35.45
33.22
28.05
20.61
11.98
3.60
-3.08
-7.07
-8.09
-6.62
-3.72
-0.58
1.81
3.04
3.26
3.11
3.28
4.09
5.25
5.96
5.40
3.31
0.29
-2.44
-3.63
-2.66
0.14
3.75
6.99
9.10
10.04
10.36
10.72
11.41
12.12
12.16
10.92
8.35
5.06
2.15
0.72
1.32
3.64
6.59
8.73
8.94
6.81
2.86
-1.68
-5.22
-6.49
-4.92
-0.88
4.48
9.60
12.85
13.05
9.79
3.80
-3.31
-9.45
-12.81
-12.42
-8.69
-3.44
0.83
1.94
-0.73
-6.29
-12.68
-17.67
-19.49
-17.44
-12.36
-6.17
-1.20
1.24
0.81
-1.83
-5.64
-9.30
-11.77
-12.99
-13.56
-14.62
-16.58
-20.00
-25.62
-34.66
-48.05
-64.04
-79.77
-91.82
-102.89
-116.01
-134.15
-156.32
-179.91
-199.58
-208.32
-200.34
-173.55
-130.92
-78.70
-24.51
25.60
68.66
105.06
136.71
164.48
187.25
202.36
208.05
204.51
194.30
181.14
168.68
158.96
151.58
144.34
134.64
121.25
104.48
85.99
67.63
50.91
36.53
24.48
14.71
7.62
4.06
4.44
8.03
12.87
16.70
18.15
17.30
15.32
13.35
11.47
8.37
2.26
-7.79
-21.00
-35.09
-47.49
-56.53
-61.92
-64.26
-64.18
-61.74
-56.79
-49.50
-40.63
-31.35
-22.57
-14.52
-6.87
0.79
8.28
14.73
18.88
19.69
17.00
11.62
5.20
-0.52
-4.37
-6.27
-7.19
-8.57
-11.46
-15.83
-20.45
-23.44
-23.35
-20.09
-15.08
-10.61
-8.78
-10.41
-14.95
-20.92
-26.77
-31.16
-33.13
-31.89
-27.25
-20.33
-14.31
-14.12
-24.78
-48.69
-83.46
-121.72
-153.38
-169.44
-165.45
-142.69
-106.93
-65.54
-24.72
11.88
42.93
68.23
87.63
100.67
107.08
107.34
103.13
96.81
90.52
85.36
80.98
75.94
68.66
58.59
46.70
35.15
26.24
21.16
19.39
19.01
17.62
13.50
6.34
-2.81
-12.10
-19.69
-24.42
-26.13
-25.57
-24.05
-22.75
-22.33
-22.57
-22.53
-21.19
-17.98
-13.33
-8.70
-5.93
-6.74
-11.87
-20.77
-31.61
-41.41
-46.56
-43.52
-29.98
-6.33
23.53
52.89
74.70
84.73
83.76
77.41
73.42
77.72
91.36
109.92
125.66
131.20
122.55
100.32
68.61
32.82
-2.46
-34.29
-61.30
-83.11
-99.83
-112.15
-121.14
-128.18
-134.09
-138.57
-140.08
-136.61
-126.96
-111.67
-92.95
-73.51
-55.10
-37.66
-19.70
0.18
21.82
42.80
59.21
67.01
63.59
48.32
22.60
-10.48
-46.29
-79.09
-102.88
-112.66
-105.68
-82.04
-44.62
1.67
50.88
97.03
134.89
160.80
173.26
173.40
164.63
151.51
138.02
126.12
115.37
103.78
89.41
71.67
51.46
30.26
9.17
-11.69
-32.76
-54.08
-74.59
-92.12
-104.39
-110.34
-110.61
-106.79
-99.90
-89.17
-72.11
-46.05
-10.15
33.06
77.89
117.47
146.22
161.81
165.34
160.17
149.84
136.78
121.92
105.35
87.28
68.57
50.55
34.57
21.40
10.75
1.61
-7.34
-16.95
-26.99
-36.26
-43.06
-45.92
-44.42
-39.50
-33.13
-27.53
-24.11
-22.95
-22.91
-22.31
-19.87
-15.29
-9.27
-3.03
2.06
4.62
3.19
-3.72
-16.93
-35.71
-57.28
-77.37
-91.83
-98.33
-97.14
-90.49
-80.80
-69.15
-54.97
-37.00
-14.78
10.43
35.87
58.42
75.66
86.28
89.88
86.54
76.80
61.80
43.45
24.11
6.00
-9.38
-21.36
-29.87
-35.10
-37.27
-36.79
-34.37
-30.99
-27.67
-25.07
-23.58
-23.63
-26.03
-32.17
-43.54
-60.69
-82.09
-103.74
-119.66
-123.48
-110.60
-79.93
-34.53
19.20
73.40
121.00
157.25
180.17
190.02
188.26
176.88
158.07
134.34
108.56
83.57
61.60
43.77
29.97
19.27
10.55
3.02
-3.65
-9.53
-14.65
-19.04
-22.64
-25.16
-26.30
-26.23
-26.06
-27.80
-33.70
-45.25
-62.33
-83.00
-104.07
-122.08
-134.30
-139.25
-136.79
-127.86
-114.17
-97.73
-80.58
-64.35
-50.06
-37.99
-27.94
-19.51
-12.29
-5.92
0.01
5.95
12.17
18.46
24.13
28.22
29.99
29.36
26.98
23.86
20.96
18.77
17.39
16.66
16.29
15.86
14.62
11.67
6.29
-1.42
-10.27
-18.17
-22.97
-23.28
-19.08
-11.61
-2.81
5.43
11.78
15.62
16.92
16.14
14.07
11.74
10.05
9.53
10.10
11.26
12.36
13.10
13.58
14.04
14.48
14.46
13.38
10.90
7.41
3.91
1.51
0.71
1.17
1.93
2.12
1.59
0.88
0.84
1.83
3.43
4.54
4.20
2.23
-0.45
-2.32
-2.08
0.60
5.00
9.81
13.85
16.64
18.42
19.68
20.81
21.84
22.55
22.73
22.32
21.47
20.38
19.17
17.92
16.71
15.67
14.82
14.03
13.02
11.42
9.05
6.03
2.76
-0.29
-2.79
-4.65
-6.04
-7.24
-8.54
-10.10
-11.97
-14.02
-16.00
-17.47
-18.00
-17.31
-15.58
-13.54
-12.27
-12.76
-15.39
-19.71
-24.46
-28.08
-29.35
-27.76
-23.68
-18.05
-11.96
-6.27
-1.51
2.02
4.10
4.57
3.52
1.40
-0.95
-2.61
-2.96
-1.96
-0.25
1.17
1.42
0.16
-2.31
-5.29
-8.07
-10.27
-11.78
-12.69
-13.00
-12.59
-11.37
-9.50
-7.35
-5.39
-3.88
-2.67
-1.35
0.50
2.96
5.68
8.07
9.60
10.09
9.70
8.87
8.09
7.86
8.65
10.83
14.50
19.14
23.57
26.10
25.24
20.27
11.68
0.89
-10.26
-20.18
-27.83
-32.73
-34.79
-34.27
-31.75
-28.24
-24.97
-23.02
-22.88
-24.30
-26.44
-28.28
-29.06
-28.41
-26.30
-22.92
-18.56
-13.70
-9.03
-5.26
-2.82
-1.54
-0.69
0.61
2.88
5.90
8.81
10.58
10.78
9.77
8.56
8.23
9.32
11.51
13.79
14.98
14.34
11.93
8.60
5.57
3.87
3.98
5.80
8.87
12.58
16.20
18.78
19.16
16.21
9.40
-0.88
-13.35
-26.49
-39.14
-50.90
-61.81
-71.80
-80.24
-86.09
-88.47
-87.01
-81.85
-72.98
-59.86
-41.67
-18.24
8.91
36.44
59.89
75.16
79.70
73.28
57.87
37.10
15.53
-2.20
-12.11
-11.55
0.34
22.25
50.81
80.91
106.38
121.09
120.32
102.38
69.50
27.79
-14.36
-48.86
-70.26
-77.08
-71.67
-58.92
-44.37
-32.57
-25.80
-23.54
-22.96
-19.99
-10.92
6.03
30.06
57.95
85.16
107.35
121.62
127.05
124.43
115.52
102.25
86.12
68.13
49.03
29.65
11.17
-5.06
-17.87
-26.89
-32.70
-36.54
-39.76
-42.97
-45.58
-46.11
-43.06
-35.86
-25.38
-13.61
-2.76
5.70
11.69
16.34
21.22
27.23
33.96
39.50
41.09
36.16
23.19
2.32
-24.49
-53.73
-80.92
-101.66
-112.76
-113.27
-104.77
-90.70
-74.95
-60.37
-47.98
-37.14
-26.56
-15.44
-4.09
6.24
14.13
18.83
20.50
19.99
18.36
16.30
14.12
11.87
9.57
7.45
5.89
5.29
5.86
7.40
9.23
10.47
10.28
8.34
5.03
1.31
-1.65
-2.94
-2.26
-0.07
2.80
5.44
7.22
7.94
7.64
6.55
4.85
2.76
0.58
-1.31
-2.47
-2.60
-1.63
0.17
2.39
4.57
6.41
7.78
8.64
8.98
8.75
7.97
6.78
5.52
4.62
4.43
5.11
6.57
8.52
10.63
12.59
14.16
15.10
15.14
14.03
11.70
8.36
4.58
1.07
-1.52
-2.94
-3.40
-3.46
-3.75
-4.55
-5.66
-6.53
-6.61
-5.69
-4.12
-2.54
-1.60
-1.56
-2.19
-2.89
-3.00
-2.12
-0.25
2.29
4.98
7.44
9.55
11.56
13.95
17.19
21.45
26.38
31.10
34.35
34.98
32.32
26.64
19.22
12.06
7.20
6.00
8.43
13.12
17.89
20.66
20.39
17.40
13.13
9.27
7.07
6.99
8.78
11.87
15.58
19.12
21.50
21.56
18.47
12.41
4.82
-1.98
-5.72
-5.23
-0.90
5.66
12.41
17.81
21.23
22.77
22.74
21.33
18.60
14.80
10.56
6.82
4.50
3.97
4.92
6.42
7.55
7.64
6.57
4.74
2.88
1.69
1.67
2.95
5.18
7.64
9.38
9.55
7.63
3.62
-2.02
-8.46
-14.69
-19.73
-22.75
-23.30
-21.47
-18.01
-14.18
-11.31
-10.37
-11.64
-14.70
-18.72
-22.80
-26.26
-28.57
-29.37
-28.44
-25.83
-22.00
-17.85
-14.47
-12.85
-13.43
-15.87
-19.24
-22.45
-24.75
-26.09
-27.04
-28.32
-30.30
-32.66
-34.51
-34.86
-33.31
-30.28
-26.83
-24.11
-22.80
-22.89
-23.89
-25.29
-26.76
-28.23
-29.61
-30.63
-30.85
-29.86
-27.64
-24.70
-21.89
-20.05
-19.52
-19.90
-20.25
-19.45
-16.69
-11.75
-5.02
2.77
10.81
18.45
25.30
31.10
35.65
38.78
40.32
40.33
39.08
37.10
34.96
33.02
31.21
29.09
25.97
21.38
15.28
8.19
0.98
-5.45
-10.39
-13.46
-14.62
-14.07
-12.25
-9.64
-6.70
-3.65
-0.43
3.20
7.43
12.22
17.19
21.70
25.08
26.80
26.57
24.39
20.54
15.58
10.31
5.56
1.98
-0.26
-1.45
-2.19
-3.05
-4.32
-5.94
-7.71
-9.48
-11.32
-13.37
-15.71
-18.18
-20.44
-22.19
-23.37
-24.22
-25.06
-26.04
-27.03
-27.74
-27.96
-27.73
-27.24
-26.58
-25.65
-24.22
-22.35
-20.50
-19.53
-20.08
-22.07
-24.43
-25.41
-23.19
-16.58
-5.48
9.28
26.14
43.27
58.83
71.10
78.67
80.60
76.67
67.52
54.55
39.64
24.65
11.05
-0.28
-9.05
-15.29
-19.15
-20.76
-20.28
-17.98
-14.39
-10.20
-6.05
-2.40
0.70
3.39
5.87
8.18
10.07
11.11
10.88
9.08
5.69
0.97
-4.64
-10.57
-16.33
-21.64
-26.44
-30.79
-34.64
-37.75
-39.70
-40.07
-38.69
-35.82
-32.11
-28.30
-24.95
-22.18
-19.75
-17.25
-14.36
-11.07
-7.57
-4.18
-1.18
1.30
3.32
5.04
6.70
8.56
10.80
13.53
16.67
20.03
23.32
26.25
28.59
30.27
31.29
31.70
31.53
30.78
29.45
27.59
25.39
23.03
20.65
18.21
15.48
12.20
8.26
3.85
-0.48
-4.00
-6.12
-6.64
-5.95
-4.94
-4.62
-5.75
-8.55
-12.54
-16.82
-20.43
-22.56
-22.75
-20.87
-17.08
-11.97
-6.59
-2.41
-0.82
-2.56
-7.16
-13.02
-17.98
-20.13
-18.69
-14.18
-8.20
-2.74
0.46
0.51
-2.44
-7.30
-12.40
-16.18
-17.71
-17.15
-15.60
-14.56
-15.15
-17.62
-21.36
-25.35
-28.77
-31.20
-32.52
-32.42
-30.35
-25.78
-18.70
-10.07
-1.65
4.86
8.60
10.02
10.52
11.48
13.36
15.45
16.44
15.44
12.73
9.73
8.15
9.00
11.98
15.65
18.34
18.97
17.54
15.07
12.92
12.19
13.35
16.21
20.12
24.42
28.80
33.48
39.12
46.40
55.39
65.06
73.49
78.45
78.17
72.03
60.82
46.92
33.89
25.62
24.83
31.47
41.66
47.99
41.73
16.45
-28.46
-86.25
-144.16
-187.57
-205.17
-192.81
-154.49
-100.15
-41.65
11.25
53.03
82.40
100.71
109.90
111.22
105.37
93.22
76.28
56.50
35.34
12.97
-11.64
-39.58
-70.42
-101.04
-125.95
-139.06
-136.15
-116.78
-84.88
-47.54
-12.65
13.62
28.26
31.53
25.77
13.93
-1.40
-18.16
-34.27
-47.24
-54.39
-53.74
-44.87
-29.35
-10.20
9.20
26.32
40.02
50.34
57.84
62.91
65.54
65.48
62.66
57.43
50.68
43.62
37.51
33.42
31.91
32.93
35.75
39.17
41.92
43.08
42.48
40.64
38.54
37.13
36.92
37.82
39.16
40.10
39.99
38.61
36.22
33.43
30.92
29.30
28.82
29.29
30.00
29.78
27.31
21.69
13.12
3.17
-5.51
-10.14
-9.10
-2.69
6.82
16.24
22.73
24.62
21.68
14.76
5.42
-4.41
-12.61
-17.59
-19.03
-18.49
-19.16
-24.40
-35.72
-51.23
-65.70
-72.46
-66.59
-47.50
-19.71
8.63
29.04
36.07
29.21
12.70
-6.57
-21.97
-29.44
-28.25
-20.32
-8.48
4.73
17.68
29.22
37.98
42.19
40.35
32.18
19.27
4.81
-7.75
-16.33
-21.19
-24.66
-29.69
-38.14
-49.59
-61.52
-70.21
-72.44
-66.60
-53.10
-34.16
-12.97
7.01
22.80
32.34
34.88
31.06
22.62
11.73
0.17
-11.13
-22.13
-33.08
-43.99
-54.15
-62.20
-66.66
-66.50
-61.67
-53.16
-42.82
-32.87
-25.32
-21.63
-22.30
-26.95
-34.33
-42.67
-50.14
-55.23
-57.04
-55.35
-50.57
-43.68
-36.11
-29.64
-26.15
-27.06
-32.60
-41.35
-50.08
-54.47
-50.33
-35.00
-8.38
26.88
66.10
103.82
134.93
155.69
164.08
160.08
145.58
124.10
100.07
77.85
60.62
49.62
44.07
41.89
40.59
38.26
33.98
27.74
20.13
11.69
2.70
-6.70
-16.29
-25.41
-32.81
-37.10
-37.35
-33.92
-28.54
-24.00
-23.01
-27.23
-36.77
-50.36
-66.07
-81.85
-95.58
-105.00
-107.65
-101.60
-86.49
-64.13
-38.14
-12.62
9.44
27.02
40.93
52.64
63.12
72.17
78.76
81.74
80.67
76.14
69.53
62.58
56.65
52.22
48.63
44.26
37.32
26.75
12.98
-2.06
-15.79
-26.23
-32.73
-35.88
-36.68
-35.59
-32.38
-26.78
-19.49
-12.36
-7.44
-5.63
-5.98
-6.39
-5.27
-2.78
-0.70
-0.94
-3.66
-6.68
-6.57
-0.99
9.48
21.28
29.79
31.77
26.77
16.90
5.13
-6.37
-16.87
-26.50
-35.29
-42.50
-46.80
-46.98
-42.69
-34.83
-25.27
-16.14
-9.11
-4.96
-3.54
-4.02
-5.29
-6.40
-6.73
-6.16
-4.88
-3.23
-1.50
0.10
1.51
2.80
4.04
5.34
6.73
8.18
9.49
10.38
10.43
9.23
6.31
1.27
-6.13
-15.81
-27.14
-39.04
-50.08
-58.86
-64.46
-66.55
-65.34
-61.18
-54.27
-44.56
-31.98
-16.80
0.16
17.52
33.68
47.19
57.13
63.40
66.69
68.25
69.39
71.09
73.69
77.02
80.61
83.93
86.46
87.68
87.00
83.92
78.29
70.60
61.91
53.57
46.67
41.67
38.35
36.01
33.89
31.46
28.53
25.00
20.79
15.69
9.49
2.17
-5.96
-14.24
-21.86
-28.18
-32.95
-36.32
-38.77
-40.66
-42.13
-43.01
-43.15
-42.52
-41.30
-39.63
-37.50
-34.72
-31.09
-26.71
-22.00
-17.60
-14.02
-11.42
-9.58
-8.09
-6.61
-4.95
-3.14
-1.26
0.69
2.72
4.76
6.58
7.86
8.40
8.25
7.67
6.99
6.38
5.69
4.58
2.75
0.18
-2.80
-5.68
-8.02
-9.70
-10.92
-11.98
-12.98
-13.67
-13.63
-12.51
-10.33
-7.42
-4.23
-1.09
1.90
4.80
7.60
10.12
12.10
13.30
13.68
13.28
12.17
10.32
7.67
4.24
0.26
-3.87
-7.70
-10.94
-13.52
-15.48
-16.89
-17.74
-17.95
-17.48
-16.38
-14.87
-13.22
-11.78
-10.75
-10.24
-10.18
-10.32
-10.36
-10.07
-9.39
-8.51
-7.64
-6.96
-6.49
-6.24
-6.34
-7.05
-8.67
-11.24
-14.27
-16.77
-17.60
-16.04
-12.17
-6.86
-1.43
3.06
6.18
8.14
9.37
10.08
10.04
8.82
6.16
2.36
-1.75
-5.04
-6.74
-6.73
-5.60
-4.28
-3.62
-3.96
-5.13
-6.56
-7.75
-8.34
-8.35
-7.94
-7.31
-6.58
-5.72
-4.68
-3.42
-2.00
-0.54
0.85
2.16
3.45
4.77
6.04
6.99
7.21
6.37
4.38
1.52
-1.64
-4.50
-6.71
-8.23
-9.25
-9.99
-10.52
-10.76
-10.69
-10.48
-10.51
-11.18
-12.53
-14.15
-15.27
-15.06
-13.11
-9.66
-5.44
-1.44
1.55
3.20
3.67
3.53
3.50
4.16
5.73
8.07
10.70
13.08
14.87
16.07
17.06
18.40
20.56
23.58
26.81
28.99
28.50
23.98
14.78
1.29
-15.18
-32.82
-49.71
-64.19
-74.89
-80.77
-81.29
-76.75
-68.43
-58.51
-49.30
-42.44
-38.26
-35.90
-33.98
-31.50
-28.33
-24.98
-21.99
-19.49
-17.11
-14.33
-10.83
-6.57
-1.54
4.52
12.13
21.60
32.65
44.22
54.75
62.71
67.18
68.03
65.71
61.04
54.85
47.94
41.04
34.84
29.71
25.60
22.00
18.15
13.42
7.76
1.74
-3.63
-7.48
-9.73
-11.27
-13.73
-18.65
-26.72
-37.18
-47.90
-56.08
-59.22
-56.01
-46.81
-33.73
-20.12
-9.69
-5.30
-7.88
-15.90
-25.82
-33.52
-35.99
-32.55
-24.95
-16.23
-9.05
-4.54
-2.26
-1.00
0.08
0.79
0.23
-2.26
-6.15
-9.55
-9.95
-5.52
3.75
15.66
26.48
32.40
31.17
22.98
10.47
-2.51
-12.46
-17.55
-18.02
-15.67
-12.73
-10.82
-10.49
-11.21
-11.88
-11.21
-8.10
-1.91
7.47
19.41
32.53
44.95
54.81
60.79
62.60
61.12
58.08
55.52
55.09
57.60
62.83
69.62
76.26
80.97
82.36
79.73
73.21
63.61
52.27
40.65
30.11
21.57
15.31
10.81
6.79
1.70
-5.59
-15.04
-25.21
-33.56
-37.55
-35.73
-28.55
-18.26
-7.86
0.08
4.53
6.05
6.20
6.47
7.53
9.11
10.37
10.54
9.39
7.42
5.67
5.35
7.38
11.98
18.59
25.99
32.73
37.51
39.72
39.47
37.50
34.88
32.60
31.41
31.74
33.90
38.00
43.98
51.31
58.81
64.81
67.63
66.24
60.67
51.78
40.28
25.81
6.70
-19.17
-52.54
-91.32
-130.28
-162.55
-182.23
-186.62
-177.02
-157.72
-133.78
-109.00
-85.23
-62.88
-42.22
-24.41
-11.33
-4.67
-4.75
-9.91
-16.97
-22.55
-24.50
-22.67
-18.60
-14.29
-10.75
-7.44
-2.53
5.78
17.94
32.59
46.96
58.17
64.34
65.18
61.63
55.20
47.22
38.55
29.71
21.17
13.44
6.99
2.05
-1.57
-4.33
-6.76
-9.23
-11.76
-14.14
-16.08
-17.41
-18.19
-18.61
-18.90
-19.15
-19.29
-19.14
-18.47
-16.98
-14.48
-10.97
-6.71
-2.34
1.36
3.69
4.45
3.96
2.94
2.12
1.88
2.07
2.22
1.97
1.28
0.51
0.12
0.34
0.95
1.30
0.61
-1.71
-5.84
-11.42
-17.75
-23.86
-28.84
-31.99
-32.98
-31.98
-29.53
-26.35
-23.05
-20.03
-17.39
-15.03
-12.68
-10.02
-6.79
-3.05
0.79
3.98
5.80
5.85
4.31
1.96
-0.17
-1.22
-0.96
0.21
1.37
1.64
0.52
-1.94
-5.24
-8.68
-11.55
-13.21
-13.15
-11.20
-7.67
-3.42
0.32
2.44
2.36
0.39
-2.54
-5.39
-7.75
-10.12
-13.61
-19.13
-26.50
-34.22
-39.96
-41.65
-38.35
-30.70
-20.47
-9.74
-0.17
7.55
13.60
18.73
23.69
28.85
33.99
38.26
40.41
39.00
32.75
20.96
4.13
-15.56
-34.04
-45.94
-46.02
-31.21
-2.26
36.03
76.30
111.34
136.61
151.34
157.82
159.37
158.36
155.28
149.26
139.23
125.02
107.55
88.20
68.08
47.39
25.76
2.78
-21.13
-44.46
-64.71
-79.06
-85.53
-83.89
-76.15
-65.99
-57.55
-53.79
-55.59
-61.58
-69.08
-75.39
-78.88
-79.36
-77.69
-74.89
-71.38
-66.72
-60.14
-51.33
-41.25
-32.12
-26.70
-27.07
-33.52
-44.02
-54.72
-61.20
-59.81
-48.78
-28.55
-1.44
28.92
58.34
82.95
100.06
108.89
110.85
109.16
107.53
108.53
112.12
115.52
114.55
105.83
88.82
66.33
43.40
24.98
13.90
10.08
11.28
14.72
18.46
21.81
24.84
27.45
28.90
28.02
24.04
17.12
8.43
-0.40
-7.89
-13.18
-16.33
-18.25
-20.31
-24.00
-30.23
-38.91
-48.87
-58.05
-64.36
-66.38
-63.88
-57.83
-49.86
-41.57
-33.90
-27.06
-20.73
-14.51
-8.32
-2.44
2.67
6.65
9.43
11.21
12.24
12.59
12.09
10.42
7.40
3.22
-1.62
-6.57
-11.25
-15.62
-19.82
-23.93
-27.82
-31.18
-33.73
-35.33
-35.97
-35.65
-34.32
-32.00
-29.04
-26.23
-24.49
-24.38
-25.69
-27.48
-28.68
-28.89
-28.67
-29.25
-31.65
-35.69
-39.81
-41.62
-39.04
-31.32
-19.43
-5.40
8.81
22.20
34.99
47.98
61.61
75.27
87.24
95.42
98.25
95.37
87.63
76.55
63.53
49.49
34.93
20.28
6.15
-6.81
-18.23
-28.04
-36.48
-43.80
-50.08
-55.31
-59.52
-62.73
-64.92
-65.89
-65.39
-63.34
-60.22
-56.98
-54.61
-53.50
-53.07
-51.96
-48.77
-42.83
-34.54
-25.02
-15.36
-6.16
2.51
10.63
17.81
23.42
27.09
29.26
31.11
33.90
38.03
42.70
46.32
47.49
45.71
41.58
36.20
30.48
24.71
18.78
12.59
6.51
1.27
-2.50
-4.75
-6.06
-7.24
-8.71
-10.25
-11.12
-10.63
-8.54
-5.26
-1.61
1.48
3.35
3.89
3.48
2.80
2.54
3.10
4.46
6.24
7.91
9.01
9.26
8.53
6.65
3.33
-1.77
-8.69
-16.81
-24.69
-30.40
-32.23
-29.53
-22.91
-14.12
-5.26
2.04
6.95
9.39
9.75
8.57
6.44
3.99
1.63
-0.62
-3.14
-6.29
-9.75
-12.37
-12.61
-9.62
-4.11
1.73
5.18
4.45
-0.44
-7.83
-15.68
-22.76
-29.13
-35.55
-42.42
-48.96
-53.36
-53.83
-49.49
-41.06
-30.58
-20.50
-12.79
-8.33
-6.76
-6.77
-6.68
-5.03
-1.16
4.62
10.98
15.82
16.96
12.82
3.23
-10.19
-24.14
-34.45
-37.37
-30.81
-15.09
7.26
32.35
56.16
75.54
88.75
95.53
96.70
93.75
88.25
81.44
74.04
66.21
58.04
50.00
43.44
40.41
42.98
52.09
66.57
82.86
95.86
100.60
93.91
75.55
48.05
15.61
-17.53
-48.15
-74.45
-95.60
-111.20
-120.95
-124.63
-122.38
-114.62
-101.78
-84.07
-61.69
-35.50
-7.68
18.43
39.33
52.84
59.14
60.66
60.64
61.29
62.71
62.99
59.67
51.31
38.52
23.58
9.32
-2.12
-9.83
-13.75
-13.84
-9.76
-1.10
11.81
27.38
42.90
55.42
62.89
64.89
62.43
57.18
50.65
43.65
36.63
29.97
24.18
19.78
16.80
14.59
12.01
8.01
2.27
-4.66
-11.59
-17.21
-20.56
-21.25
-19.56
-16.40
-13.13
-11.43
-12.70
-17.51
-25.13
-33.56
-40.25
-43.08
-41.32
-35.79
-28.48
-21.54
-16.50
-14.01
-14.12
-16.70
-21.47
-27.59
-33.30
-36.20
-34.22
-26.84
-15.51
-2.97
8.29
17.32
24.84
32.09
39.36
45.38
47.98
45.61
38.55
28.78
18.76
10.13
2.96
-3.67
-10.74
-18.36
-25.74
-31.47
-34.14
-32.77
-27.31
-19.14
-11.23
-7.70
-12.56
-28.03
-53.34
-84.52
-115.68
-141.00
-156.39
-160.30
-153.43
-137.87
-116.45
-92.20
-68.02
-46.34
-28.73
-15.76
-7.11
-1.94
0.80
2.14
3.05
4.24
5.98
8.09
10.05
11.39
12.02
12.32
12.91
14.10
15.48
16.05
14.79
11.32
6.15
0.40
-4.87
-9.17
-12.73
-16.12
-19.85
-23.95
-28.04
-31.43
-33.39
-33.28
-30.62
-25.44
-18.64
-12.22
-9.03
-11.74
-21.23
-35.38
-49.06
-55.42
-48.22
-24.13
16.03
67.60
123.59
176.72
221.05
252.88
270.71
274.73
266.10
246.33
216.95
179.48
135.85
88.83
42.19
0.34
-32.75
-54.76
-65.70
-67.84
-64.68
-59.70
-55.32
-52.49
-50.95
-49.86
-48.41
-46.26
-43.54
-40.71
-38.26
-36.39
-34.80
-32.79
-29.56
-24.65
-18.21
-10.97
-3.99
1.92
6.12
7.89
5.97
-1.35
-15.36
-35.50
-58.51
-79.12
-91.86
-93.60
-84.75
-68.73
-50.02
-31.93
-15.57
-0.58
13.35
25.24
33.09
35.19
31.65
24.86
18.56
15.93
18.15
24.05
31.01
36.32
38.39
37.17
33.77
29.85
26.97
26.16
27.93
32.24
38.47
45.50
51.72
55.30
54.48
47.80
34.24
13.31
-14.89
-49.53
-88.86
-130.46
-171.62
-209.91
-243.44
-270.56
-289.42
-297.65
-292.67
-272.71
-237.94
-190.97
-136.44
-79.68
-25.39
23.21
64.46
97.64
122.53
139.31
148.68
151.92
150.54
145.67
137.69
126.16
110.41
90.17
66.20
40.25
14.78
-7.75
-25.58
-38.11
-45.88
-50.10
-51.69
-50.53
-45.35
-34.44
-17.00
5.72
30.29
52.17
67.59
74.97
75.32
71.20
65.26
59.07
52.96
46.74
40.44
34.62
29.93
26.35
22.97
18.36
11.44
2.39
-7.15
-14.56
-17.42
-14.51
-6.46
4.49
15.40
23.65
27.94
28.53
26.89
24.97
24.34
25.60
28.17
30.56
30.93
27.80
20.55
9.60
-3.73
-17.62
-30.15
-39.75
-45.37
-46.61
-43.62
-37.14
-28.30
-18.53
-9.25
-1.63
3.66
6.52
7.25
6.41
4.53
2.06
-0.70
-3.66
-6.79
-10.19
-13.89
-17.81
-21.70
-25.23
-27.92
-29.28
-28.81
-26.05
-20.83
-13.31
-4.14
5.62
14.85
22.62
28.46
32.42
34.83
36.04
36.24
35.48
33.82
31.44
28.69
25.85
23.01
20.02
16.61
12.63
8.20
3.67
-0.57
-4.24
-7.26
-9.73
-11.77
-13.41
-14.62
-15.35
-15.66
-15.69
-15.52
-15.00
-13.74
-11.20
-6.99
-1.16
5.67
12.53
18.42
22.75
25.45
26.82
27.23
26.86
25.65
23.47
20.37
16.63
12.70
8.91
5.41
2.22
-0.62
-2.89
-4.20
-4.22
-2.85
-0.38
2.68
5.81
8.64
11.02
12.88
14.10
14.50
14.00
12.74
11.07
9.27
7.37
4.90
1.25
-4.08
-11.05
-19.18
-27.71
-36.04
-43.78
-50.56
-55.71
-58.05
-56.30
-49.63
-38.23
-23.49
-7.56
7.30
19.28
27.33
31.11
30.79
26.93
20.38
12.30
3.89
-3.81
-10.14
-14.86
-17.99
-19.57
-19.46
-17.39
-13.17
-6.87
0.88
9.09
16.53
22.22
25.73
27.30
27.56
27.15
26.29
24.66
21.62
16.65
9.78
1.83
-5.76
-11.34
-13.54
-11.71
-6.11
2.19
11.56
20.27
26.97
31.02
32.62
32.72
32.57
33.21
35.20
38.39
42.16
45.63
48.04
48.98
48.53
47.25
46.00
45.70
46.81
48.93
50.68
50.08
45.49
36.49
24.31
11.36
0.17
-7.81
-12.73
-15.93
-18.98
-22.67
-26.67
-29.94
-31.49
-31.07
-29.19
-26.76
-24.51
-22.77
-21.60
-21.12
-21.76
-24.15
-28.64
-34.97
-42.01
-48.00
-51.16
-50.31
-45.26
-36.87
-26.60
-16.06
-6.49
1.46
7.71
12.49
16.11
18.70
20.17
20.39
19.20
16.58
12.67
7.74
2.25
-3.30
-8.34
-12.38
-15.07
-16.24
-15.78
-13.57
-9.54
-3.83
2.98
9.75
15.03
17.60
16.97
13.66
9.06
4.89
2.56
2.79
5.61
10.47
16.62
23.37
30.21
37.06
44.14
51.91
60.67
70.14
79.20
86.06
88.69
85.70
77.01
64.21
50.29
38.71
32.14
31.27
34.29
37.24
35.15
23.79
1.12
-31.78
-70.89
-110.35
-143.97
-166.64
-175.31
-169.39
-150.56
-122.36
-89.45
-56.75
-28.65
-8.18
3.37
6.47
2.92
-4.95
-14.95
-25.35
-35.01
-43.16
-49.37
-53.71
-56.75
-59.41
-62.32
-65.22
-66.72
-64.72
-57.49
-44.67
-27.85
-10.01
5.58
16.62
22.46
23.96
22.83
20.85
19.32
18.82
19.49
21.20
23.72
26.75
29.86
32.46
33.95
33.95
32.49
30.04
27.30
24.85
22.87
21.13
19.15
16.55
13.37
10.09
7.47
6.25
6.69
8.38
10.35
11.43
11.07
9.86
9.69
13.10
22.04
36.76
55.45
74.85
91.54
103.17
108.97
109.38
105.26
97.30
85.98
71.97
56.43
40.90
26.85
15.04
5.17
-3.95
-13.84
-25.77
-40.24
-56.82
-74.32
-91.05
-105.21
-115.20
-120.00
-119.33
-113.76
-104.55
-93.31
-81.60
-70.59
-60.83
-52.37
-44.99
-38.55
-33.24
-29.62
-28.42
-30.22
-35.04
-42.09
-49.80
-56.03
-58.70
-56.33
-48.46
-35.71
-19.64
-2.46
13.29
24.94
30.24
28.05
19.02
5.98
-6.73
-14.69
-15.12
-7.92
4.44
18.26
30.11
37.97
41.37
40.84
37.35
32.06
26.33
21.74
19.67
20.52
23.25
25.54
24.82
19.40
9.24
-4.14
-18.53
-31.86
-42.82
-50.75
-55.29
-56.06
-52.83
-45.88
-36.20
-25.27
-14.35
-3.81
7.11
19.77
35.05
52.48
70.03
84.90
94.68
98.32
96.40
90.44
81.99
71.98
60.74
48.59
36.35
25.34
16.68
10.47
5.46
-0.47
-8.96
-19.89
-30.96
-38.47
-38.94
-30.72
-14.74
6.09
28.15
48.62
66.09
80.20
90.66
96.60
96.65
89.74
76.02
57.28
36.45
16.47
-0.79
-14.79
-25.88
-34.42
-40.26
-42.83
-41.77
-37.41
-30.76
-22.98
-14.88
-6.83
0.79
7.06
10.39
9.05
2.13
-9.70
-24.05
-37.62
-47.30
-51.32
-49.76
-44.20
-37.04
-30.45
-25.68
-22.80
-20.98
-19.05
-16.16
-12.19
-7.91
-4.53
-3.22
-4.41
-7.57
-11.26
-13.74
-13.68
-10.74
-5.60
0.44
6.25
11.39
16.04
20.47
24.36
26.74
26.56
23.53
18.61
13.56
10.02
8.60
8.75
9.29
9.19
8.14
6.38
4.41
2.50
0.72
-0.82
-1.87
-2.12
-1.54
-0.55
0.19
0.10
-0.98
-2.79
-4.95
-7.26
-9.69
-12.24
-14.75
-16.94
-18.58
-19.76
-20.77
-21.90
-23.13
-24.10
-24.42
-24.01
-23.36
-23.30
-24.44
-26.59
-28.70
-29.26
-27.13
-22.29
-15.96
-10.09
-6.40
-5.55
-6.94
-9.12
-10.62
-10.60
-9.10
-6.72
-4.10
-1.55
1.07
4.05
7.54
11.32
14.84
17.52
18.99
19.25
18.53
17.14
15.31
13.22
11.06
9.16
7.88
7.44
7.81
8.76
10.01
11.44
13.27
15.87
19.56
24.39
29.98
35.65
40.71
44.68
47.33
48.63
48.56
46.94
43.47
37.83
29.92
19.95
8.45
-3.95
-16.57
-28.84
-40.20
-50.01
-57.42
-61.44
-61.29
-56.63
-47.93
-36.44
-23.92
-12.12
-2.38
4.50
8.13
8.20
4.41
-3.29
-14.22
-26.76
-38.56
-47.31
-51.60
-51.45
-48.04
-42.98
-37.52
-32.21
-27.11
-22.23
-17.90
-14.63
-12.78
-12.30
-12.67
-13.27
-13.63
-13.63
-13.37
-13.00
-12.51
-11.76
-10.57
-8.78
-6.44
-3.79
-1.26
0.64
1.50
1.24
0.14
-1.20
-2.09
-2.09
-1.21
0.12
1.21
1.51
0.87
-0.37
-1.55
-2.00
-1.45
-0.10
1.52
2.80
3.43
3.39
2.91
2.19
1.33
0.38
-0.45
-0.82
-0.32
1.25
3.72
6.65
9.59
12.35
15.06
18.01
21.33
24.85
28.12
30.66
32.21
32.73
32.41
31.50
30.28
28.91
27.50
26.00
24.30
22.28
19.96
17.49
15.12
13.06
11.49
10.56
10.42
11.24
13.12
15.98
19.54
23.45
27.41
31.35
35.34
39.45
43.55
47.24
49.90
50.82
49.36
45.12
38.11
28.95
18.86
9.32
1.71
-3.12
-5.01
-4.38
-2.03
1.05
3.74
4.95
3.78
-0.04
-5.97
-12.84
-19.37
-24.77
-29.08
-32.91
-36.85
-40.94
-44.51
-46.58
-46.42
-43.92
-39.60
-34.30
-28.80
-23.60
-18.90
-14.75
-11.17
-8.27
-6.12
-4.65
-3.58
-2.46
-0.86
1.32
3.84
6.19
7.89
8.85
9.38
9.97
10.97
12.32
13.65
14.54
14.72
14.14
12.82
10.61
7.31
2.86
-2.37
-7.60
-11.92
-14.68
-15.77
-15.58
-14.82
-14.19
-14.14
-14.81
-15.98
-17.21
-17.99
-17.88
-16.77
-14.86
-12.55
-10.17
-7.82
-5.35
-2.56
0.49
3.48
6.01
7.86
9.19
10.50
12.29
14.71
17.32
19.21
19.38
17.21
12.81
7.03
1.14
-3.68
-6.80
-8.30
-8.81
-9.22
-10.27
-12.37
-15.54
-19.38
-23.11
-25.39
-24.55
-19.02
-8.17
6.92
23.22
36.47
42.58
39.39
27.58
10.56
-6.95
-20.73
-28.43
-29.94
-26.74
-20.77
-13.52
-5.80
1.95
9.21
15.21
19.08
20.36
19.39
17.18
15.04
13.91
13.96
14.49
14.38
12.66
9.08
4.28
-0.35
-3.32
-3.60
-1.07
3.38
8.19
11.78
13.14
12.15
9.53
6.44
3.96
2.61
2.26
2.37
2.27
1.58
0.25
-1.56
-3.44
-4.79
-4.74
-2.38
2.63
9.34
15.21
16.77
10.95
-3.39
-24.85
-50.05
-75.07
-96.73
-113.27
-123.91
-128.04
-124.83
-113.57
-94.56
-69.75
-42.50
-16.52
5.42
22.31
34.71
43.94
51.15
56.77
60.56
62.08
61.10
57.85
52.99
47.27
41.20
34.99
28.56
21.82
14.86
7.92
1.39
-4.36
-9.12
-12.83
-15.59
-17.55
-18.87
-19.55
-19.45
-18.32
-15.94
-12.35
-7.94
-3.35
0.81
4.18
6.84
9.19
11.60
14.22
16.85
18.99
20.18
20.05
18.52
15.80
12.35
8.77
5.72
3.64
2.69
2.66
3.10
3.51
3.58
3.28
2.77
2.28
1.95
1.79
1.66
1.42
0.96
0.26
-0.52
-1.20
-1.66
-1.88
-2.03
-2.29
-2.72
-3.13
-3.20
-2.58
-1.10
1.13
3.81
6.61
9.26
11.60
13.55
15.06
16.11
16.73
17.03
17.25
17.61
18.28
19.30
20.51
21.62
22.33
22.41
21.83
20.70
19.16
17.33
15.24
12.92
10.56
8.45
6.95
6.26
6.26
6.54
6.67
6.39
5.76
5.01
4.38
3.94
3.58
3.19
2.71
2.23
1.86
1.71
1.88
2.45
3.51
5.06
6.95
8.92
10.63
11.88
12.61
12.95
13.03
12.92
12.67
12.27
11.75
11.08
10.12
8.74
6.88
4.74
2.72
1.29
0.70
0.85
1.29
1.53
1.16
0.09
-1.48
-3.23
-4.88
-6.29
-7.48
-8.51
-9.44
-10.22
-10.81
-11.21
-11.46
-11.64
-11.84
-12.06
-12.22
-12.19
-11.95
-11.60
-11.29
-11.09
-10.85
-10.29
-9.17
-7.46
-5.36
-3.15
-1.01
0.96
2.74
4.29
5.48
6.15
6.19
5.63
4.58
3.18
1.46
-0.61
-3.08
-5.94
-9.08
-12.37
-15.70
-18.96
-22.05
-24.82
-27.05
-28.59
-29.38
-29.54
-29.25
-28.67
-27.82
-26.53
-24.56
-21.73
-18.09
-13.99
-10.00
-6.66
-4.24
-2.64
-1.41
-0.10
1.58
3.55
5.39
6.57
6.75
5.94
4.56
3.24
2.54
2.69
3.59
4.78
5.82
6.41
6.52
6.31
5.99
5.62
5.04
4.08
2.56
0.61
-1.46
-3.24
-4.56
-5.57
-6.68
-8.30
-10.50
-12.93
-14.97
-16.04
-15.90
-14.66
-12.60
-10.01
-7.06
-3.85
-0.56
2.52
5.04
6.67
7.31
7.01
5.98
4.55
3.18
2.36
2.54
3.96
6.48
9.64
12.73
14.94
15.70
14.70
12.10
8.46
4.59
1.23
-1.22
-2.90
-4.35
-6.14
-8.46
-11.04
-13.26
-14.60
-14.98
-14.80
-14.66
-14.98
-15.75
-16.47
-16.30
-14.34
-9.97
-3.17
5.32
14.02
21.12
25.13
25.45
22.57
17.77
12.43
7.50
3.24
-0.53
-4.15
-7.78
-11.23
-13.85
-14.44
-11.32
-2.89
11.46
30.46
50.58
66.97
75.07
72.55
60.26
41.82
21.98
4.66
-8.27
-17.09
-23.39
-28.91
-34.69
-40.73
-46.18
-49.68
-49.89
-45.89
-37.49
-25.55
-11.96
0.72
9.92
13.79
11.70
4.30
-6.85
-19.81
-32.55
-43.12
-49.66
-50.61
-45.26
-34.21
-19.59
-4.51
7.80
15.21
17.17
14.76
10.01
5.14
1.91
1.30
3.36
7.39
12.18
16.44
19.23
20.20
19.64
18.10
16.13
13.91
11.34
8.13
4.05
-0.90
-6.42
-12.01
-16.94
-20.48
-22.08
-21.57
-19.19
-15.40
-10.57
-4.78
2.19
10.61
20.52
31.62
43.15
54.06
63.17
69.39
71.94
70.45
65.04
56.21
44.79
31.78
18.42
6.01
-4.19
-11.35
-15.41
-17.20
-18.14
-19.56
-21.90
-24.43
-25.66
-24.02
-18.67
-9.88
1.02
11.85
20.04
23.16
19.74
9.98
-3.89
-18.12
-28.60
-32.47
-29.00
-19.67
-7.47
3.99
11.15
11.09
2.27
-14.59
-36.00
-56.26
-69.26
-70.97
-61.06
-43.03
-22.38
-4.19
8.74
16.03
18.54
16.88
10.76
-0.41
-16.33
-34.93
-52.66
-65.59
-70.75
-67.16
-56.02
-40.13
-22.83
-7.05
5.31
13.48
17.60
18.30
16.40
12.72
7.96
2.77
-2.32
-6.67
-9.59
-10.40
-8.75
-4.93
0.00
4.33
6.26
4.59
-0.62
-7.99
-15.16
-19.71
-20.00
-15.67
-7.57
2.65
13.21
22.65
30.00
34.74
36.66
35.71
31.91
25.49
17.06
7.76
-0.76
-6.64
-8.41
-5.61
0.93
9.35
17.45
23.62
27.32
29.12
30.17
31.54
33.72
36.54
39.30
41.18
41.57
40.43
38.48
37.11
38.13
43.15
52.94
66.94
82.99
97.93
108.37
111.77
107.19
95.51
79.03
60.59
42.60
26.36
11.71
-2.59
-18.06
-35.56
-54.40
-72.19
-85.34
-90.22
-84.58
-68.62
-45.03
-18.27
6.81
26.13
36.82
37.06
25.90
3.73
-27.11
-61.99
-94.83
-120.04
-134.56
-138.71
-135.29
-127.64
-117.64
-105.24
-89.28
-69.02
-45.41
-21.04
0.75
17.30
27.52
32.04
32.67
31.52
30.23
29.54
29.23
28.64
27.33
25.57
24.27
24.10
24.62
24.02
19.90
10.86
-2.38
-16.92
-28.81
-34.91
-34.27
-28.41
-20.54
-14.18
-11.77
-13.89
-19.32
-25.65
-30.36
-31.47
-27.97
-19.69
-7.05
9.17
27.84
47.49
66.13
81.58
91.94
96.19
94.65
88.80
80.73
72.33
64.70
58.09
52.13
46.33
40.25
33.51
25.77
16.67
6.06
-5.72
-17.72
-28.58
-36.92
-41.81
-43.07
-41.09
-36.55
-30.05
-22.12
-13.26
-4.13
4.50
11.88
17.55
21.40
23.57
24.35
24.04
22.91
21.30
19.56
17.93
16.41
14.78
12.62
9.73
6.15
2.29
-1.38
-4.55
-7.38
-10.41
-14.26
-19.33
-25.48
-32.04
-37.98
-42.20
-43.87
-42.59
-38.54
-32.50
-25.70
-19.54
-15.23
-13.34
-13.55
-14.66
-15.04
-13.29
-8.91
-2.65
3.75
8.25
9.43
6.99
1.87
-4.28
-9.89
-14.05
-16.71
-18.34
-19.34
-19.72
-19.05
-16.71
-12.40
-6.32
0.77
7.74
13.41
16.78
17.28
14.80
9.72
2.76
-5.03
-12.49
-18.51
-22.18
-23.00
-20.90
-16.38
-10.26
-3.49
3.21
9.52
15.51
21.34
26.98
31.96
35.52
36.84
35.47
31.54
25.76
19.11
12.57
6.85
2.30
-0.92
-2.83
-3.52
-3.30
-2.68
-2.32
-2.79
-4.36
-6.88
-9.91
-12.94
-15.57
-17.62
-18.91
-19.20
-18.09
-15.21
-10.63
-5.01
0.52
4.80
7.14
7.66
7.04
6.11
5.28
4.31
2.58
-0.42
-4.49
-8.63
-11.38
-11.52
-8.70
-3.61
2.35
7.77
11.73
14.10
15.26
15.62
15.23
13.56
9.93
3.81
-4.70
-14.95
-25.84
-36.13
-44.78
-51.08
-54.73
-55.87
-54.94
-52.44
-48.87
-44.59
-39.85
-34.89
-29.93
-25.17
-20.72
-16.60
-12.78
-9.30
-6.32
-4.08
-2.78
-2.48
-3.07
-4.28
-5.78
-7.21
-8.22
-8.60
-8.31
-7.65
-7.27
-8.12
-11.18
-17.19
-26.26
-37.61
-49.33
-58.52
-61.79
-56.33
-41.10
-17.81
9.12
33.88
51.14
57.94
54.62
44.37
31.82
21.29
15.68
16.23
22.98
35.44
52.94
74.58
98.93
123.91
147.08
166.25
180.02
188.02
190.47
187.41
178.24
161.82
137.40
105.55
68.45
29.25
-9.18
-45.19
-78.39
-108.70
-135.30
-156.08
-168.38
-170.34
-162.08
-145.98
-125.81
-105.30
-86.98
-71.80
-59.50
-49.48
-41.45
-35.57
-32.33
-32.05
-34.45
-38.63
-43.17
-46.73
-48.52
-48.62
-47.79
-46.99
-46.87
-47.54
-48.80
-50.60
-53.38
-57.69
-63.46
-69.10
-71.41
-66.31
-50.52
-23.17
13.51
54.82
95.18
130.08
157.09
175.84
187.14
191.91
190.60
183.40
170.73
153.67
133.98
113.58
93.89
75.50
58.11
41.10
24.16
7.71
-7.03
-18.58
-25.88
-28.81
-28.38
-26.25
-24.24
-23.66
-25.09
-28.36
-32.63
-36.50
-38.10
-35.36
-26.50
-10.70
11.28
37.02
62.85
84.91
100.09
106.84
105.26
96.71
83.07
66.04
46.84
26.29
5.13
-15.70
-35.13
-52.17
-66.21
-77.11
-85.11
-90.49
-93.48
-94.09
-92.18
-87.52
-79.84
-69.00
-55.09
-38.67
-20.70
-2.56
14.40
29.20
41.40
50.94
57.82
61.93
63.15
61.81
58.80
55.49
53.06
51.93
51.52
50.55
47.63
41.89
33.14
21.87
8.90
-4.78
-18.23
-30.47
-40.71
-48.50
-53.88
-57.34
-59.53
-60.94
-61.61
-61.33
-59.79
-56.98
-53.30
-49.39
-45.92
-43.24
-41.24
-39.34
-36.79
-33.05
-28.12
-22.63
-17.51
-13.55
-10.96
-9.23
-7.38
-4.48
0.01
5.96
12.85
19.95
26.50
31.71
34.68
34.53
30.61
22.85
11.95
-0.67
-13.09
-23.45
-30.44
-33.77
-34.29
-33.70
-33.90
-36.14
-40.47
-45.63
-49.54
-50.28
