1565139238.00
64.000000
-0.00
-0.00
-0.00
-0.00
-0.00
-0.00
-0.00
-0.00
-0.00
-0.00
0.00
0.01
0.01
-0.00
-0.03
-0.05
-0.05
0.00
0.13
0.36
0.66
1.01
1.37
1.72
2.06
2.40
2.79
3.24
3.80
4.43
5.08
5.70
6.28
6.81
7.37
8.04
8.85
9.92
11.16
12.47
13.72
14.87
15.96
17.15
18.65
20.62
23.27
26.42
29.79
33.09
36.16
39.08
42.18
45.91
50.57
56.58
63.56
71.02
78.39
85.34
91.96
98.77
106.47
115.59
126.66
139.17
152.34
165.33
177.64
189.37
201.17
214.39
227.72
243.44
262.13
283.94
307.72
330.61
348.35
356.28
351.00
331.59
300.42
261.32
218.67
175.79
134.33
94.59
56.35
19.68
-14.86
-46.19
-73.79
-97.70
-118.27
-135.87
-150.58
-162.40
-171.22
-177.24
-180.80
-182.75
-183.96
-185.14
-186.73
-188.64
-190.78
-193.15
-195.93
-199.22
-203.14
-207.59
-212.30
-217.08
-221.89
-227.03
-232.89
-239.70
-247.52
-256.42
-266.74
-279.03
-293.55
-309.37
-323.98
-333.57
-334.46
-324.85
-305.80
-280.85
-254.17
-228.61
-204.67
-181.17
-156.81
-131.87
-108.42
-89.18
-75.64
-66.81
-59.56
-50.39
-37.44
-21.55
-5.78
6.33
12.82
14.39
13.94
14.98
19.66
27.56
36.17
42.43
44.63
43.44
41.36
41.22
44.38
49.76
54.53
55.78
52.34
45.65
39.06
35.85
37.41
42.42
47.60
49.65
47.04
40.93
34.43
30.71
31.14
34.48
37.61
37.55
33.29
26.48
20.48
18.38
21.19
27.16
32.64
34.17
30.33
22.69
14.75
10.11
10.46
14.68
19.54
21.61
19.18
13.29
7.16
4.21
5.95
11.07
16.05
17.41
13.65
6.29
-0.98
-4.60
-3.12
1.88
6.79
8.12
4.51
-2.54
-9.66
-13.65
-13.23
-9.58
-5.67
-4.38
-7.01
-12.43
-17.95
-20.86
-19.94
-16.28
-12.44
-10.98
-12.89
-17.05
-20.78
-21.48
-18.07
-11.80
-5.59
-2.38
-3.42
-7.50
-11.61
-12.64
-9.21
-2.61
3.85
6.64
4.18
-2.16
-8.66
-11.38
-8.46
-1.14
6.92
11.77
11.38
6.76
1.12
-2.10
-1.15
3.12
8.04
10.92
10.69
8.43
6.68
7.71
12.21
18.73
24.42
26.65
24.51
19.44
14.47
12.71
15.54
21.91
28.89
33.27
33.41
30.14
26.33
25.22
28.36
34.71
41.22
44.66
43.57
39.28
35.10
34.41
38.45
45.55
51.95
53.93
50.03
41.81
32.93
27.18
26.40
29.67
33.87
35.54
32.85
26.44
19.05
13.90
12.86
15.43
19.15
21.00
19.26
14.51
9.32
6.71
8.21
12.92
17.99
20.31
18.36
13.11
7.41
4.24
4.94
8.37
11.68
12.02
8.33
1.98
-3.96
-6.59
-4.82
0.06
5.14
7.56
6.18
2.08
-2.08
-3.70
-1.79
2.51
6.66
8.12
5.90
1.06
-3.79
-5.92
-4.02
0.94
6.31
9.15
8.04
3.91
-0.47
-2.17
0.14
5.36
10.45
12.19
9.21
2.70
-3.96
-7.15
-5.16
0.88
7.53
11.05
9.46
3.65
-3.17
-7.33
-6.74
-2.12
3.52
6.61
5.14
-0.12
-6.10
-9.31
-7.87
-2.64
3.36
6.67
5.44
0.49
-5.22
-8.30
-6.97
-2.05
3.47
6.23
4.48
-0.91
-7.00
-10.38
-9.19
-4.06
2.16
6.12
5.85
1.90
-2.96
-5.38
-3.42
2.16
8.31
11.48
9.71
3.84
-2.98
-7.12
-6.60
-2.20
3.03
5.82
4.61
0.52
-3.37
-4.01
-0.27
6.25
12.00
13.61
9.83
2.33
-5.22
-9.21
-8.10
-3.19
2.13
4.48
2.40
-2.88
-8.26
-10.65
-8.73
-3.71
1.49
3.87
2.24
-2.08
-6.13
-7.09
-3.94
1.95
7.50
9.72
7.41
1.87
-3.89
-6.83
-5.59
-1.15
3.78
6.34
5.11
0.93
-3.64
-5.82
-4.12
0.73
6.21
9.36
8.53
4.32
-0.73
-3.60
-2.60
1.57
6.32
8.59
6.71
1.41
-4.58
-8.12
-7.53
-3.50
1.38
4.17
3.39
-0.14
-3.78
-4.78
-1.98
3.31
8.11
9.50
6.39
0.26
-5.72
-8.47
-6.78
-2.05
2.58
4.09
1.40
-4.04
-9.05
-10.61
-7.54
-1.38
4.50
6.73
3.94
-2.42
-8.89
-11.89
-9.87
-4.11
2.02
5.14
3.83
-0.48
-4.43
-4.83
-0.62
6.41
12.54
14.26
10.47
3.09
-4.04
-7.26
-5.20
0.52
6.31
8.71
6.43
0.99
-4.25
-6.15
-3.68
1.47
6.02
6.98
3.61
-2.13
-6.77
-7.32
-3.01
4.13
10.35
12.19
8.40
0.58
-7.58
-12.36
-11.90
-7.10
-1.00
2.95
2.85
-0.61
-4.77
-6.65
-4.74
0.07
5.00
7.14
5.35
0.99
-2.91
-3.52
-0.05
5.68
10.26
10.64
6.11
-1.25
-7.65
-9.85
-6.88
-0.52
5.65
8.31
6.23
0.75
-5.09
-8.23
-7.37
-3.51
0.70
2.52
0.75
-3.55
-7.68
-8.89
-6.00
-0.18
5.63
8.43
6.88
2.24
-2.36
-3.79
-0.79
5.12
10.50
12.00
8.29
0.94
-6.45
-10.26
-8.93
-3.76
1.95
4.72
2.96
-2.10
-7.26
-9.21
-6.51
-0.46
5.56
8.20
6.04
0.43
-5.33
-7.90
-5.92
-0.81
4.15
5.84
3.16
-2.26
-7.07
-8.21
-4.75
1.53
7.23
9.31
6.81
1.30
-4.16
-6.62
-5.01
-0.63
3.72
5.34
3.15
-1.66
-6.30
-7.90
-5.15
0.87
7.22
10.68
9.65
4.99
-0.40
-3.20
-1.77
2.90
7.77
9.59
6.97
1.19
-4.48
-6.73
-4.24
1.52
7.10
9.16
6.39
0.21
-6.09
-9.26
-7.97
-3.49
1.17
3.10
1.27
-2.92
-6.46
-6.53
-2.26
4.75
11.14
13.62
10.97
4.62
-1.99
-5.41
-4.07
0.81
5.93
7.89
5.17
-0.99
-7.35
-10.53
-9.00
-3.90
1.63
4.35
2.77
-1.93
-6.63
-8.20
-5.35
0.58
6.34
8.58
5.84
-0.54
-7.16
-10.46
-8.79
-3.25
2.94
6.31
5.18
0.64
-4.22
-6.23
-4.09
0.92
5.65
7.06
4.07
-1.84
-7.42
-9.59
-7.21
-1.65
4.02
6.82
5.47
0.97
-4.06
-6.91
-6.34
-3.11
0.56
2.26
0.84
-2.85
-6.43
-7.42
-4.71
0.61
5.76
7.94
5.93
1.05
-3.66
-5.21
-2.46
3.22
8.74
11.07
9.14
4.41
-0.03
-1.30
1.54
6.90
11.55
12.41
8.37
1.00
-6.25
-9.89
-8.37
-2.87
3.36
6.84
5.87
1.41
-3.50
-5.72
-3.90
0.74
5.14
6.26
2.88
-3.57
-9.88
-12.80
-10.84
-5.11
1.39
5.39
5.15
1.31
-3.51
-6.30
-5.32
-1.13
3.89
6.93
6.40
2.77
-1.71
-4.36
-3.73
-0.43
3.28
4.91
3.26
-0.85
-5.07
-6.90
-5.24
-1.10
3.09
4.91
3.50
0.04
-3.02
-3.43
-0.52
4.28
8.24
8.88
5.46
-0.63
-6.57
-9.53
-8.25
-3.73
1.26
3.64
1.86
-3.24
-8.87
-11.83
-10.29
-4.91
1.43
5.36
4.91
0.66
-4.67
-7.79
-6.85
-2.50
2.53
5.03
3.40
-1.42
-6.42
-8.43
-5.90
0.10
6.53
10.15
9.47
5.63
1.58
0.29
2.90
8.12
12.97
14.52
11.59
5.42
-1.05
-4.91
-4.69
-1.18
3.14
5.49
4.41
0.48
-4.11
-6.75
-6.08
-2.68
1.16
2.78
0.74
-4.30
-9.84
-13.05
-12.38
-8.53
-4.02
-1.72
-3.16
-7.57
-12.38
-14.71
-13.14
-8.48
-3.40
-0.98
-2.90
-8.47
-15.01
-19.41
-19.79
-16.59
-12.32
-10.18
-12.29
-18.41
-26.19
-32.50
-35.27
-34.66
-32.85
-32.71
-36.10
-42.78
-50.64
-56.93
-60.02
-60.32
-59.92
-61.30
-65.78
-72.68
-79.73
-84.61
-86.25
-85.45
-84.15
-83.96
-84.71
-84.14
-78.94
-66.65
-47.21
-22.92
2.80
27.27
49.90
72.34
97.41
127.72
164.37
206.35
251.27
296.08
337.45
371.99
396.14
406.05
397.74
369.25
319.90
252.00
171.92
89.42
15.22
-42.55
-81.14
-103.54
-117.24
-130.74
-149.46
-173.85
-200.02
-222.63
-237.71
-244.20
-243.32
-237.38
-227.09
-210.98
-186.58
-152.34
-108.76
-58.29
-4.14
51.05
105.33
156.79
202.61
238.91
261.60
268.07
258.49
235.63
204.16
168.93
133.88
101.63
73.86
51.56
34.74
21.84
9.55
-6.76
-31.76
-68.35
-116.02
-169.91
-220.87
-257.43
-269.26
-251.10
-205.59
-143.37
-79.88
-29.85
-2.18
2.69
-8.26
-24.51
-36.60
-39.35
-32.66
-19.93
-5.61
6.82
15.51
19.77
18.98
11.83
-3.33
-27.33
-58.73
-93.18
-123.88
-143.81
-148.18
-136.22
-111.39
-79.92
-48.57
-22.59
-4.67
5.34
9.85
12.56
16.97
24.79
34.79
43.17
45.18
37.60
20.55
-2.49
-26.33
-45.98
-57.69
-58.82
-47.39
-22.30
15.25
60.44
104.77
138.25
153.06
146.74
122.85
88.94
53.15
21.34
-3.72
-21.56
-32.76
-38.24
-39.19
-37.27
-34.49
-32.32
-30.68
-27.67
-19.99
-4.15
21.81
57.48
99.82
143.53
181.95
208.53
219.08
214.22
199.28
182.37
171.16
169.54
176.00
184.37
186.47
175.92
150.60
112.72
66.96
17.75
-32.53
-83.39
-134.96
-186.35
-235.05
-277.73
-312.11
-338.34
-359.12
-379.01
-401.98
-429.86
-461.39
-492.41
-517.55
-532.49
-535.62
-528.43
-515.34
-499.61
-482.03
-460.07
-428.68
-382.55
-318.39
-236.11
-138.38
-29.62
85.26
200.23
307.06
396.14
458.70
490.31
493.20
476.91
453.32
432.38
418.63
410.80
404.83
397.03
386.37
374.55
364.16
354.77
343.36
325.24
295.31
252.38
201.84
154.97
123.79
114.39
122.00
132.57
129.87
104.59
61.20
16.49
-9.59
-5.21
26.52
68.86
100.10
103.68
74.41
18.85
-49.35
-115.83
-169.54
-203.77
-215.13
-202.55
-167.61
-115.83
-56.94
-3.49
32.50
43.34
28.54
-4.97
-45.26
-79.70
-99.36
-101.45
-89.47
-70.88
-53.71
-43.45
-41.52
-45.23
-49.31
-48.20
-38.18
-19.11
5.20
28.16
42.49
42.84
27.92
1.17
-30.21
-57.48
-73.19
-73.50
-59.20
-35.08
-8.01
15.39
30.61
36.05
32.70
23.12
10.37
-2.75
-14.05
-22.07
-26.07
-26.13
-23.08
-18.30
-13.21
-8.74
-5.08
-1.86
1.28
4.26
6.25
6.03
2.67
-3.78
-11.97
-19.57
-24.04
-23.67
-18.42
-10.01
-1.53
3.78
3.75
-1.68
-10.20
-17.76
-20.14
-14.69
-1.89
14.45
28.18
33.18
26.01
7.67
-16.39
-38.25
-50.55
-49.41
-35.61
-13.84
9.63
29.45
42.60
48.54
48.13
42.55
32.91
20.42
6.82
-5.90
-16.27
-24.16
-30.65
-36.77
-41.91
-43.12
-36.39
-19.31
6.29
33.79
54.02
59.42
47.79
23.49
-4.60
-27.39
-39.49
-40.84
-35.31
-27.65
-20.62
-14.03
-5.77
6.03
21.19
36.98
49.16
53.88
49.30
36.45
18.62
0.02
-15.71
-26.49
-31.89
-32.47
-29.03
-22.24
-12.90
-2.55
6.24
10.36
7.43
-2.78
-17.50
-31.55
-39.23
-36.59
-23.44
-3.81
15.39
27.03
26.91
15.71
-1.28
-16.68
-24.71
-24.03
-18.19
-13.25
-13.89
-20.18
-27.24
-27.95
-17.37
3.90
29.29
49.23
55.63
45.74
23.15
-4.06
-26.95
-39.17
-38.83
-28.25
-12.25
4.08
16.99
24.73
27.20
25.26
20.05
12.69
4.36
-3.55
-9.55
-12.42
-11.84
-8.70
-4.87
-2.28
-1.95
-3.24
-4.22
-2.60
2.88
11.71
21.63
29.49
32.32
28.30
17.19
0.54
-18.53
-35.72
-46.42
-46.93
-35.86
-15.12
10.08
32.59
45.59
45.15
31.65
9.72
-13.54
-31.16
-38.60
-35.02
-23.02
-7.23
7.50
17.59
21.45
19.47
13.45
5.88
-0.86
-5.02
-5.92
-3.85
0.26
5.30
10.33
14.56
17.09
16.89
12.99
5.12
-5.68
-16.82
-24.76
-26.09
-19.00
-4.16
15.03
33.08
43.82
42.28
26.65
-0.46
-31.98
-58.20
-69.99
-62.37
-36.69
-0.43
35.55
61.06
70.11
62.46
42.84
18.65
-2.69
-15.72
-17.90
-9.94
4.49
19.51
28.53
26.49
11.95
-11.80
-37.55
-56.81
-63.27
-55.43
-37.06
-15.39
2.21
11.31
11.65
6.41
-0.26
-5.52
-8.87
-11.44
-14.22
-16.62
-16.31
-10.73
0.88
16.12
29.90
36.55
32.58
18.66
-0.53
-18.23
-28.62
-29.23
-21.68
-10.51
-0.71
4.62
5.35
3.78
2.78
3.97
6.88
9.55
9.96
7.38
2.74
-2.02
-5.29
-6.71
-7.16
-7.93
-9.63
-11.60
-12.14
-9.53
-3.18
5.76
14.73
20.82
22.15
18.75
12.49
6.18
2.00
0.54
0.58
-0.00
-2.88
-8.20
-14.53
-19.58
-21.40
-19.25
-13.69
-6.18
1.75
8.98
14.98
19.50
22.20
22.46
19.56
13.19
4.05
-6.04
-14.48
-18.81
-17.80
-11.99
-3.50
4.96
11.23
14.42
14.80
13.18
10.16
5.79
-0.10
-7.28
-14.74
-20.79
-23.74
-22.56
-17.37
-9.37
-0.42
7.51
12.89
14.87
13.38
9.19
3.73
-1.13
-3.64
-2.72
1.48
7.41
12.57
14.35
11.26
3.60
-6.39
-15.36
-20.19
-19.24
-13.04
-4.02
4.60
10.18
11.60
9.55
5.91
2.74
1.28
1.58
2.66
3.32
2.88
1.55
0.23
-0.20
0.48
1.61
1.98
0.60
-2.71
-7.05
-10.88
-12.72
-11.77
-8.35
-3.67
0.66
3.38
4.14
3.65
3.15
3.54
4.49
4.27
0.56
-8.03
-20.43
-32.86
-40.05
-37.50
-23.55
-0.30
27.13
52.48
70.18
76.69
70.78
53.48
27.79
-1.66
-29.16
-49.16
-57.69
-53.71
-39.43
-19.61
0.12
15.13
22.95
23.63
19.14
12.36
5.98
1.75
0.17
0.69
2.11
3.24
3.22
1.76
-0.91
-4.21
-7.35
-9.46
-9.78
-7.93
-4.11
0.74
5.14
7.57
7.01
3.46
-2.07
-7.95
-12.56
-14.80
-14.28
-11.18
-5.90
1.07
8.99
16.64
22.25
23.89
20.31
11.69
0.08
-11.18
-18.70
-20.49
-16.74
-9.63
-2.10
3.59
6.70
8.02
8.83
9.90
10.86
10.46
7.51
1.76
-5.65
-12.60
-16.93
-17.43
-14.22
-8.56
-2.12
3.68
7.87
9.86
9.17
5.38
-1.55
-10.75
-20.19
-26.82
-27.52
-20.32
-5.54
13.77
32.43
44.79
46.88
38.13
21.84
4.00
-9.24
-14.17
-11.03
-3.54
3.13
5.05
1.42
-5.54
-11.96
-14.58
-12.22
-6.01
1.61
8.38
13.10
15.71
16.72
16.40
14.50
10.56
4.64
-2.23
-8.09
-10.83
-9.23
-3.79
3.26
8.76
9.89
5.40
-3.74
-14.69
-23.83
-28.26
-26.97
-21.30
-14.26
-9.23
-8.34
-11.57
-16.64
-20.17
-19.17
-12.57
-1.84
9.43
17.01
17.89
11.83
1.76
-7.34
-10.75
-6.52
3.24
13.00
16.47
9.86
-6.11
-26.47
-44.38
-53.99
-52.51
-40.45
-20.67
2.53
24.04
38.28
40.50
28.84
6.56
-17.78
-33.14
-31.03
-10.36
20.90
48.81
60.17
49.30
21.49
-9.51
-28.28
-25.30
-1.70
31.33
57.75
63.82
43.86
2.40
-48.22
-92.86
-119.57
-123.57
-108.09
-81.92
-54.67
-32.97
-19.07
-12.71
-14.07
-25.46
-49.72
-85.97
-126.21
-156.10
-160.80
-132.69
-76.41
-7.48
54.95
96.98
115.51
118.04
117.13
123.32
140.48
165.67
192.56
215.43
231.42
240.82
245.24
246.10
243.75
237.98
228.90
217.35
205.22
194.57
186.96
182.76
180.95
179.58
176.55
170.54
161.22
149.94
137.81
125.75
114.16
102.92
91.62
80.10
68.76
58.32
49.96
44.71
43.18
45.37
50.64
57.93
66.02
73.76
79.80
83.13
83.10
79.31
71.91
61.49
48.74
33.98
19.24
5.12
-8.48
-21.76
-35.11
-48.14
-59.69
-68.38
-73.40
-74.92
-74.74
-75.34
-78.86
-87.33
-101.01
-118.78
-138.85
-159.98
-181.92
-206.28
-235.49
-272.02
-319.18
-378.81
-450.37
-530.20
-611.49
-685.28
-743.58
-782.02
-792.38
-774.13
-731.76
-671.84
-599.83
-518.53
-428.01
-329.56
-227.98
-132.10
-54.13
-4.67
11.22
-4.03
-44.75
-97.71
-147.93
-182.47
-192.82
-177.36
-140.14
-89.21
-34.20
16.12
56.47
84.93
102.67
112.72
118.66
122.74
126.24
129.77
133.75
139.15
146.72
157.07
170.72
187.72
208.28
232.99
262.02
293.65
323.36
343.51
345.73
324.75
281.67
224.59
166.22
118.90
90.16
81.22
88.80
108.96
139.88
181.51
232.48
287.16
335.01
363.64
363.80
333.09
276.99
207.01
137.12
80.33
45.87
37.55
52.82
83.53
118.11
145.36
158.20
155.72
142.41
125.08
109.28
97.48
89.74
85.57
85.60
91.58
104.83
124.52
147.28
168.35
183.44
190.50
190.19
185.30
179.00
173.40
168.66
163.23
154.81
141.71
123.78
102.51
80.39
59.77
41.92
26.56
12.23
-2.84
-19.82
-38.65
-58.11
-76.52
-92.62
-106.21
-118.30
-130.45
-144.03
-159.59
-176.98
-195.95
-216.69
-239.82
-265.59
-292.94
-318.90
-339.38
-350.44
-349.61
-336.31
-311.27
-275.59
-230.50
-177.97
-121.76
-68.11
-24.69
1.77
8.39
-2.11
-21.96
-41.13
-51.44
-49.66
-38.33
-23.95
-13.49
-11.38
-18.08
-31.15
-47.19
-63.66
-79.24
-92.94
-102.87
-106.12
-100.23
-84.80
-63.05
-41.25
-26.18
-22.02
-27.97
-38.03
-43.10
-34.49
-7.41
36.93
91.64
146.61
192.15
222.29
236.31
238.22
234.39
230.95
231.51
236.51
243.45
248.13
245.89
232.44
205.05
163.74
111.95
56.41
5.85
-32.03
-53.64
-60.70
-60.06
-60.89
-70.97
-93.81
-127.13
-163.57
-193.87
-210.42
-209.92
-195.25
-174.70
-159.06
-158.54
-179.06
-219.81
-274.19
-332.11
-382.37
-416.45
-429.97
-423.01
-399.90
-367.03
-330.56
-295.39
-264.25
-236.94
-212.38
-188.69
-159.87
-121.05
-68.78
-1.96
76.14
154.55
222.72
270.32
288.68
272.62
221.23
138.29
33.10
-82.57
-197.07
-299.61
-384.65
-451.84
-503.56
-542.47
-573.40
-594.64
-601.36
-588.98
-555.98
-502.51
-432.12
-348.87
-257.08
-161.03
-64.36
28.51
112.32
180.48
227.24
248.90
246.06
222.67
185.24
142.88
105.25
80.67
73.53
85.78
117.18
167.56
235.85
315.06
396.98
472.26
542.95
608.97
670.24
719.44
752.35
767.30
765.17
750.05
729.52
712.38
705.51
714.05
739.61
780.46
830.39
880.78
913.82
917.54
886.51
820.73
725.41
608.08
476.99
339.04
200.03
65.83
-56.34
-160.49
-244.07
-307.72
-354.55
-388.20
-411.98
-428.25
-438.18
-441.23
-437.14
-426.87
-412.16
-395.25
-377.89
-361.26
-345.72
-331.05
-316.08
-299.99
-282.66
-264.59
-246.58
-229.32
-213.23
-198.39
-184.66
-171.52
-158.66
-146.04
-133.78
-122.12
-111.17
-100.97
-91.45
-82.59
-74.39
-66.96
-60.40
-54.71
-49.66
-44.85
-39.88
-34.56
-29.07
-23.91
-19.78
-17.13
-15.94
-15.62
-15.24
-13.95
-11.31
-7.64
-3.69
-0.74
0.37
-0.34
-2.03
-3.28
-2.96
-0.48
3.77
8.78
13.21
16.02
16.46
13.97
8.52
1.17
-5.35
-7.11
-0.38
16.15
39.99
65.40
85.33
94.36
90.81
77.04
57.17
36.41
17.60
1.29
-13.01
-25.52
-35.56
-42.05
-44.34
-42.94
-39.35
-35.60
-33.28
-32.82
-33.54
-34.19
-33.60
-31.22
-27.43
-23.10
-19.42
-17.20
-16.51
-16.81
-17.19
-16.88
-15.51
-13.27
-10.67
-8.42
-6.95
-6.34
-6.27
-6.29
-6.00
-5.22
-4.04
-2.68
-1.46
-0.61
-0.14
0.03
0.09
0.17
0.32
0.52
0.69
0.74
0.61
0.27
-0.27
-0.96
-1.79
-2.73
-3.75
-4.83
-5.98
-7.22
-8.58
-10.11
-11.82
-13.72
-15.82
-18.07
-20.40
-22.82
-25.28
-27.86
-30.62
-33.63
-36.95
-40.64
-44.69
-49.00
-53.55
-58.28
-63.22
-68.34
-73.51
-78.50
-82.75
-85.48
-85.85
-83.07
-76.66
-66.45
-52.89
-36.44
-17.80
2.10
22.26
41.61
58.92
72.76
81.64
84.18
79.45
67.20
48.07
23.55
-4.05
-32.30
-59.05
-82.81
-102.71
-118.01
-128.05
-131.94
-128.04
-114.58
-90.22
-54.88
-10.14
40.33
90.88
134.91
166.48
182.28
182.92
172.62
157.75
144.55
137.19
136.83
141.65
147.59
149.36
141.83
121.70
88.93
47.55
4.79
-31.18
-54.28
-61.90
-55.77
-40.40
-20.53
0.32
20.38
38.77
54.63
67.01
75.35
79.89
81.80
82.57
83.53
85.22
87.22
88.50
87.97
84.95
79.26
71.13
61.27
49.78
36.79
22.47
7.28
-8.02
-22.49
-35.37
-46.28
-55.42
-63.14
-69.59
-74.52
-77.31
-77.40
-74.56
-69.41
-63.37
-58.62
-57.31
-61.41
-72.61
-91.72
-117.78
-147.22
-173.89
-189.01
-187.10
-167.52
-135.42
-99.90
-70.45
-53.13
-48.74
-53.65
-62.53
-71.49
-79.22
-86.61
-95.01
-104.47
-113.12
-117.94
-116.27
-106.93
-91.44
-72.29
-52.65
-35.24
-21.41
-10.76
-1.60
8.27
20.80
37.52
59.65
87.73
121.10
157.13
190.98
216.38
228.15
223.86
206.75
184.19
163.71
148.89
137.38
122.88
100.02
68.04
32.73
3.88
-9.77
-5.03
14.60
41.09
65.46
80.42
81.22
65.30
32.28
-15.31
-70.95
-124.00
-161.89
-174.28
-157.36
-115.65
-60.36
-4.89
39.85
68.11
79.52
76.88
63.70
42.61
15.76
-13.71
-40.85
-59.48
-64.91
-56.54
-39.01
-20.68
-9.90
-11.08
-22.71
-38.55
-51.11
-55.53
-51.23
-41.17
-29.25
-17.92
-7.78
1.26
8.63
12.63
11.49
5.13
-4.36
-13.59
-19.86
-22.65
-23.77
-26.07
-31.60
-40.45
-50.63
-59.13
-62.75
-58.71
-44.90
-20.23
14.30
54.43
92.49
119.12
127.17
115.51
90.28
62.21
41.31
31.52
28.86
24.06
8.37
-20.93
-58.42
-93.54
-116.08
-121.29
-111.53
-93.79
-75.16
-59.24
-45.17
-29.34
-8.22
19.46
52.04
85.24
113.32
130.67
133.13
119.48
92.24
57.33
22.55
-5.06
-21.71
-27.65
-26.30
-22.10
-18.45
-16.90
-17.59
-20.02
-23.58
-27.56
-30.69
-31.55
-28.98
-22.58
-12.82
-0.82
12.04
24.09
33.31
37.85
36.62
30.01
19.95
9.10
-0.34
-7.32
-11.68
-13.34
-12.00
-7.50
-0.75
6.14
10.82
12.28
11.69
11.51
13.54
17.32
20.18
19.19
13.34
4.38
-4.30
-9.93
-11.85
-11.39
-10.45
-10.05
-9.84
-8.77
-6.15
-2.06
2.77
7.36
10.74
12.00
10.52
6.58
1.72
-1.58
-1.19
3.17
9.35
13.73
13.20
7.07
-2.53
-12.00
-18.31
-20.48
-19.50
-17.08
-14.43
-11.69
-8.40
-4.25
0.51
5.25
9.29
12.13
13.26
12.17
8.71
3.61
-1.55
-5.00
-5.89
-4.90
-3.81
-4.14
-5.88
-7.50
-7.09
-4.08
0.08
2.88
2.60
-0.38
-3.79
-5.02
-3.02
1.02
4.52
5.21
2.54
-2.24
-6.81
-9.08
-7.97
-3.73
2.34
8.37
12.48
13.37
10.86
6.00
0.60
-3.63
-5.85
-6.36
-6.16
-6.22
-6.74
-7.21
-6.94
-5.68
-4.03
-3.07
-3.50
-5.12
-6.82
-7.18
-5.46
-2.12
1.32
3.20
2.76
0.47
-2.15
-3.45
-2.56
0.22
3.61
6.10
6.64
5.17
2.44
-0.28
-1.87
-1.89
-0.68
0.78
1.49
1.04
-0.10
-0.93
-0.62
0.90
2.89
4.34
4.67
4.10
3.37
3.11
3.35
3.47
2.79
1.17
-0.82
-2.15
-2.02
-0.39
1.98
4.03
4.96
4.54
3.04
0.90
-1.45
-3.57
-4.91
-4.98
-3.71
-1.79
-0.55
-1.31
-4.56
-9.42
-13.89
-15.85
-14.23
-9.66
-4.14
0.04
1.55
0.70
-0.91
-1.40
0.11
3.02
5.57
5.92
3.20
-2.03
-8.06
-12.93
-15.31
-14.91
-12.19
-7.67
-1.69
5.37
12.46
17.45
17.63
11.04
-2.07
-18.59
-33.31
-40.92
-38.21
-25.40
-6.14
13.97
29.49
37.08
36.45
29.97
21.29
13.70
8.83
6.39
4.96
3.16
0.54
-2.34
-4.55
-5.49
-5.24
-4.30
-3.18
-1.92
-0.33
1.64
3.72
5.32
5.69
4.08
-0.28
-7.95
-18.75
-31.04
-41.58
-46.27
-42.08
-28.97
-10.47
7.48
19.04
20.99
13.67
0.29
-14.63
-26.84
-33.18
-32.03
-23.44
-9.34
6.88
21.22
30.49
33.36
30.58
24.38
17.45
12.13
10.11
12.20
17.79
24.28
27.16
21.41
4.01
-23.60
-54.89
-80.27
-91.29
-85.50
-68.38
-51.52
-47.19
-61.73
-91.30
-122.40
-137.47
-122.86
-75.58
-5.18
70.30
131.90
167.18
173.87
158.86
134.26
112.71
103.79
112.49
138.74
177.62
220.93
259.15
283.56
288.28
271.59
236.44
189.98
141.82
101.03
73.05
57.26
47.19
33.48
8.76
-28.25
-72.03
-113.27
-144.29
-162.50
-170.24
-171.97
-170.29
-165.12
-155.46
-141.96
-127.89
-117.13
-111.31
-108.66
-105.36
-98.74
-89.92
-83.41
-83.91
-92.79
-106.58
-118.25
-121.04
-111.62
-90.80
-62.14
-29.88
2.18
30.57
51.87
63.46
64.83
58.52
49.67
43.67
43.61
48.60
54.20
54.91
46.96
29.94
6.73
-17.88
-38.88
-52.04
-54.47
-45.09
-25.29
0.71
26.46
45.32
52.99
49.29
38.27
26.22
18.44
16.74
18.91
20.60
18.24
11.20
1.86
-6.17
-10.48
-10.99
-9.63
-8.64
-9.01
-10.21
-11.01
-10.76
-9.98
-9.81
-10.99
-13.19
-15.42
-16.77
-17.08
-16.66
-15.67
-13.77
-10.54
-6.35
-2.84
-2.38
-6.48
-14.52
-23.53
-29.52
-29.67
-23.84
-14.53
-5.31
1.18
4.30
5.16
5.37
6.02
7.21
8.32
8.61
7.61
5.51
3.20
1.99
3.01
6.58
11.91
17.40
21.55
23.90
25.25
27.22
30.89
35.57
38.46
35.64
24.18
4.28
-19.84
-41.09
-52.49
-50.34
-36.07
-15.72
2.86
13.62
14.99
10.02
4.23
2.41
6.09
13.28
20.03
23.07
21.37
16.36
10.66
6.47
4.45
3.55
1.71
-2.86
-10.45
-19.37
-26.53
-28.93
-25.27
-16.78
-6.86
0.54
2.86
0.21
-4.97
-9.30
-10.24
-7.23
-1.83
3.34
5.68
3.52
-3.37
-13.62
-24.34
-31.69
-32.10
-23.66
-6.73
15.61
38.65
57.60
68.99
71.26
64.62
50.79
32.56
13.99
-0.84
-9.28
-11.69
-12.15
-16.28
-28.02
-46.46
-65.03
-73.98
-65.62
-38.61
1.00
42.38
75.92
97.75
110.92
121.62
136.14
157.12
182.55
207.53
226.62
237.45
240.70
238.61
233.02
224.23
211.01
192.03
169.11
143.72
118.80
97.10
80.16
67.99
58.88
50.13
39.12
23.81
2.36
-25.96
-61.72
-104.90
-155.13
-211.82
-274.17
-340.89
-407.25
-467.08
-512.39
-536.46
-535.91
-512.29
-471.66
-422.37
-371.92
-324.59
-284.05
-248.21
-213.95
-178.84
-142.17
-104.43
-66.28
-27.96
10.52
48.94
86.82
122.13
152.77
177.69
197.24
212.33
223.22
229.11
228.46
220.60
205.92
186.32
164.71
144.30
128.12
118.42
116.10
120.01
126.92
131.96
130.88
122.07
107.42
91.11
76.64
64.70
53.29
40.31
26.23
14.84
11.07
17.51
32.02
48.18
58.20
56.43
41.70
17.29
-10.79
-36.17
-54.25
-63.31
-64.27
-59.69
-52.37
-44.47
-37.70
-34.12
-36.52
-47.37
-66.88
-91.57
-114.40
-127.51
-125.77
-109.13
-82.20
-51.60
-23.04
-0.22
14.45
18.79
10.92
-8.88
-35.69
-60.02
-70.65
-59.59
-26.31
21.47
70.70
108.48
127.17
126.18
110.37
85.78
56.33
23.17
-12.67
-46.63
-69.34
-69.75
-41.62
10.89
71.91
119.45
135.46
114.93
68.71
18.42
-13.92
-15.84
10.71
52.01
89.65
108.00
100.05
68.88
25.82
-13.58
-35.26
-31.58
-4.53
34.87
70.26
86.03
73.50
34.00
-21.71
-77.72
-119.14
-137.22
-131.94
-111.31
-87.97
-73.42
-73.46
-86.00
-102.75
-113.65
-111.92
-96.83
-73.08
-47.61
-26.43
-13.20
-9.77
-17.17
-35.14
-60.48
-86.09
-102.03
-99.58
-75.69
-35.25
11.66
54.98
89.18
114.68
134.56
149.97
157.39
150.22
124.03
81.82
35.59
1.86
-6.08
14.85
55.44
98.19
125.42
126.93
103.71
66.30
28.94
2.88
-8.15
-8.81
-8.69
-16.62
-35.55
-60.45
-80.50
-84.61
-67.48
-33.40
4.87
31.93
37.37
21.33
-5.62
-28.32
-35.66
-26.74
-10.94
-1.85
-8.46
-29.33
-53.44
-66.84
-61.19
-38.73
-10.57
9.93
14.54
3.66
-15.45
-33.77
-44.93
-46.95
-41.10
-29.73
-15.23
-0.12
12.61
19.90
20.07
13.97
4.67
-4.21
-10.54
-14.60
-18.16
-22.69
-27.99
-31.94
-31.49
-24.20
-9.56
10.31
30.76
45.83
50.13
41.01
20.00
-7.13
-32.08
-47.03
-47.75
-35.35
-15.57
4.13
18.09
24.72
26.32
26.81
28.81
32.16
34.35
32.73
26.90
19.27
13.27
10.47
8.58
2.44
-12.04
-33.49
-53.59
-60.36
-44.64
-6.49
42.72
84.28
100.52
83.17
37.34
-21.15
-73.59
-106.28
-115.42
-106.39
-88.88
-71.17
-56.71
-43.88
-28.41
-6.73
22.28
56.35
90.34
118.78
137.95
147.03
148.50
147.06
146.94
151.67
162.71
179.22
198.60
218.22
236.42
252.69
268.03
280.47
284.92
274.88
245.73
197.75
136.97
73.33
17.23
-24.30
-50.64
-66.90
-80.69
-98.33
-122.23
-150.46
-178.50
-201.10
-213.90
-214.50
-202.71
-181.18
-156.05
-136.81
-133.82
-154.16
-197.34
-253.85
-307.71
-341.53
-342.67
-307.63
-243.15
-163.41
-85.25
-23.27
13.18
21.02
2.79
-34.51
-81.23
-126.90
-162.33
-181.74
-183.94
-172.44
-150.55
-124.05
-99.13
-79.95
-67.95
-62.32
-60.72
-60.18
-56.82
-48.76
-31.44
-0.61
45.04
102.10
162.38
215.15
250.97
265.57
261.25
245.43
227.15
212.99
204.28
197.16
185.26
162.76
126.65
77.34
18.01
-46.10
-107.50
-156.54
-183.08
-179.77
-145.62
-87.45
-18.10
48.14
100.67
136.04
158.06
173.99
190.60
210.66
232.22
251.08
263.36
266.86
260.67
245.24
221.84
191.89
157.07
119.49
81.59
45.75
13.63
-14.84
-41.87
-70.97
-104.81
-142.66
-179.18
-205.45
-213.09
-198.83
-166.88
-128.16
-96.47
-83.30
-94.26
-127.65
-175.05
-224.12
-261.83
-277.79
-267.06
-231.14
-177.45
-116.77
-60.16
-15.59
12.48
22.25
13.56
-12.13
-50.63
-94.13
-132.00
-154.23
-154.93
-135.89
-105.84
-76.67
-58.67
-56.89
-70.74
-93.58
-119.00
-142.50
-163.31
-182.62
-201.58
-219.64
-234.25
-242.17
-240.61
-232.11
-218.33
-201.31
-182.71
-162.68
-139.81
-111.75
-75.94
-29.97
27.73
97.73
177.57
261.99
343.58
414.52
468.93
501.98
513.53
507.90
491.92
471.42
449.49
426.54
401.71
374.69
346.15
317.29
289.03
261.11
232.05
200.33
165.61
128.99
92.55
60.37
33.05
9.78
-11.19
-31.86
-53.57
-76.60
-100.18
-123.11
-144.68
-165.12
-184.81
-204.57
-224.75
-244.65
-262.40
-275.36
-281.14
-276.75
-260.98
-231.75
-189.31
-135.70
-74.30
-9.11
55.71
116.16
168.47
209.61
237.95
252.82
255.06
246.94
231.72
212.60
193.83
174.81
153.10
125.65
89.15
40.90
-20.10
-91.90
-167.40
-235.66
-285.63
-309.44
-305.86
-281.31
-247.29
-215.69
-194.00
-183.72
-181.50
-182.08
-180.63
-174.21
-161.84
-144.05
-124.13
-104.06
-86.66
-75.01
-70.65
-71.65
-73.11
-67.96
-51.65
-23.64
12.87
52.30
89.29
120.31
143.90
159.76
167.86
168.19
161.54
150.01
136.42
123.52
113.29
106.25
101.48
97.30
91.88
84.28
74.88
64.81
55.55
48.27
43.30
40.14
37.75
34.91
30.95
25.88
20.24
14.87
10.53
7.55
5.77
4.71
3.70
2.32
0.45
-1.76
-3.94
-5.72
-6.91
-7.55
-7.81
-7.96
-8.19
-8.34
-8.56
-8.76
-8.84
-8.72
-8.45
-8.06
-7.64
-7.27
-6.96
-6.71
-6.43
-6.08
-5.58
-5.03
-4.51
-4.16
-4.07
-4.22
-4.50
-4.72
-4.66
-4.26
-3.62
-2.99
-2.67
-2.84
-3.49
-4.34
-5.01
-5.11
-4.51
-3.40
-2.22
-1.47
-1.46
-2.14
-3.14
-3.78
-3.61
-2.44
-0.56
1.53
3.27
4.35
4.58
4.01
2.76
1.35
0.82
2.74
8.65
19.31
34.04
50.70
66.56
79.29
87.80
92.47
94.39
94.36
92.52
88.65
82.10
73.11
62.67
51.95
41.56
31.11
19.35
5.07
-12.15
-31.28
-50.17
-66.47
-78.46
-85.40
-87.61
-86.25
-83.01
-79.72
-77.96
-78.77
-81.62
-84.81
-85.78
-82.04
-72.39
-57.62
-40.32
-23.80
-10.65
-1.91
2.89
5.07
5.97
6.30
6.18
5.48
4.31
3.10
2.57
3.17
4.82
6.96
8.69
9.42
8.92
7.57
6.09
5.18
5.18
6.02
7.21
8.19
8.50
8.03
7.01
5.89
5.08
4.82
5.05
5.56
5.98
6.12
5.85
5.31
4.70
4.23
4.03
4.08
4.30
4.52
4.66
4.66
4.56
4.43
4.33
4.30
4.33
4.41
4.47
4.50
4.46
4.37
4.23
4.04
3.83
3.57
3.31
3.04
2.77
2.50
2.24
1.97
1.70
1.40
1.06
0.69
0.27
-0.15
-0.58
-0.99
-1.41
-1.87
-2.46
-3.25
-4.31
-5.65
-7.24
-8.99
-10.85
-12.80
-14.90
-17.23
-19.94
-23.12
-26.76
-30.75
-35.01
-39.41
-43.94
-48.71
-53.89
-59.73
-66.34
-73.62
-81.30
-88.99
-96.37
-103.41
-110.31
-117.60
-125.87
-135.46
-146.17
-157.23
-167.48
-175.54
-180.42
-181.56
-178.79
-172.02
-161.18
-144.91
-121.25
-88.31
-45.12
7.54
67.03
129.30
189.49
242.89
286.67
320.38
345.62
364.88
380.50
393.82
404.36
409.99
408.08
394.67
366.48
322.57
266.26
203.76
144.23
97.10
68.31
57.96
60.16
65.73
65.86
55.93
36.38
11.46
-13.81
-36.10
-54.45
-69.34
-81.34
-89.47
-92.48
-89.67
-81.83
-71.36
-61.21
-53.86
-50.21
-49.39
-49.38
-48.05
-44.28
-38.29
-31.43
-25.55
-22.15
-21.75
-23.83
-27.09
-30.28
-32.76
-34.62
-36.67
-39.97
-45.39
-53.30
-63.52
-75.45
-88.55
-102.58
-117.68
-134.25
-152.81
-173.76
-197.23
-223.07
-250.75
-279.62
-308.91
-337.68
-364.80
-388.83
-408.12
-420.81
-425.58
-420.99
-406.02
-380.42
-344.77
-300.47
-249.57
-194.58
-138.14
-82.73
-30.41
17.19
59.00
94.50
123.62
146.72
164.40
177.30
186.10
191.42
193.74
193.42
190.73
185.93
179.25
170.89
161.13
150.25
138.57
126.36
113.89
101.40
89.10
77.13
65.67
54.84
44.70
35.31
26.67
18.74
11.45
4.71
-1.56
-7.45
-13.02
-18.33
-23.40
-28.20
-32.67
-36.73
-40.34
-43.45
-46.07
-48.23
-49.98
-51.40
-52.48
-53.17
-53.39
-53.08
-52.18
-50.69
-48.62
-45.99
-43.08
-40.00
-36.81
-33.45
-29.89
-26.18
-22.47
-19.03
-16.16
-14.07
-12.79
-12.16
-11.87
-11.65
-11.41
-11.30
-11.68
-12.99
-15.46
-18.90
-22.68
-25.89
-27.71
-27.73
-26.12
-23.57
-20.97
-18.90
-17.24
-15.21
-11.63
-5.46
3.64
15.13
27.83
40.47
52.34
63.59
75.17
88.39
104.61
125.15
151.21
183.58
221.89
263.61
303.78
335.84
353.74
354.36
338.84
312.14
280.80
250.39
223.73
200.87
180.44
161.20
142.83
125.45
108.64
90.69
69.06
41.92
9.87
-23.06
-49.97
-63.30
-57.79
-32.95
6.35
51.45
93.05
124.46
143.49
152.09
154.26
153.64
152.13
150.12
147.65
145.35
144.25
144.79
145.65
143.70
135.30
118.21
93.07
63.42
34.15
9.24
-9.83
-24.10
-35.74
-46.03
-54.30
-58.30
-55.86
-46.64
-32.84
-18.31
-6.75
0.34
4.51
9.60
19.77
37.55
62.64
92.08
121.40
146.23
163.60
172.42
173.03
166.55
154.17
136.27
112.32
81.17
41.65
-6.81
-63.79
-127.53
-194.61
-259.95
-317.18
-359.74
-382.47
-383.34
-364.61
-332.41
-295.07
-260.35
-232.84
-212.76
-196.92
-181.04
-162.51
-142.01
-122.78
-108.24
-99.54
-94.65
-89.54
-80.75
-67.68
-53.24
-41.98
-37.35
-39.41
-44.50
-47.05
-42.29
-28.56
-8.01
14.34
32.34
40.73
36.68
20.92
-1.65
-22.81
-33.70
-28.18
-6.21
25.40
55.37
72.42
69.88
47.93
12.79
-26.45
-61.67
-88.05
-104.15
-110.63
-108.66
-99.14
-83.05
-61.35
-35.33
-6.38
24.28
55.71
87.25
118.51
149.21
178.87
206.44
229.92
246.59
253.73
249.70
234.79
211.18
182.42
152.28
123.67
98.03
75.28
54.47
34.55
14.97
-4.03
-21.56
-36.61
-48.46
-57.01
-62.79
-66.69
-69.63
-72.24
-74.73
-76.90
-78.44
-79.02
-78.55
-77.15
-75.11
-72.74
-70.32
-68.00
-65.79
-63.61
-61.35
-58.97
-56.44
-53.79
-51.08
-48.38
-45.75
-43.20
-40.73
-38.34
-36.04
-33.80
-31.63
-29.52
-27.48
-25.53
-23.65
-21.88
-20.10
-18.40
-16.80
-15.33
-13.96
-12.71
-11.59
-10.54
-9.58
-8.70
-7.93
-7.24
-6.57
-5.85
-4.98
-3.99
-2.83
-1.63
-0.60
-0.01
-0.09
-0.96
-2.56
-4.73
-7.15
-9.49
-11.46
-12.93
-13.84
-14.25
-14.19
-13.64
-12.56
-10.89
-8.69
-6.19
-3.82
-2.04
-1.30
-1.70
-2.96
-4.44
-5.40
-5.32
-4.19
-2.58
-1.35
-1.46
-3.25
-6.36
-9.66
-11.81
-11.82
-9.67
-6.35
-3.57
-2.98
-5.30
-9.96
-15.18
-18.92
-19.52
-16.66
-11.44
-5.88
-2.24
-2.14
-6.41
-14.38
-23.70
-30.32
-29.32
-16.42
10.01
47.33
88.36
123.14
142.19
140.11
117.76
81.80
41.93
7.11
-17.41
-30.87
-35.82
-35.74
-33.20
-29.20
-23.90
-17.64
-11.61
-7.72
-7.33
-10.36
-15.16
-19.24
-20.57
-18.37
-13.58
-8.25
-4.51
-3.55
-5.27
-8.34
-10.97
-11.70
-10.02
-6.54
-2.57
0.50
1.89
1.63
0.41
-0.69
-0.80
0.40
2.63
5.18
7.17
8.20
8.27
7.76
7.44
8.02
9.98
13.47
18.50
24.61
31.57
39.18
47.07
54.97
62.14
67.21
68.37
63.96
52.51
33.70
8.44
-21.15
-51.76
-79.98
-102.98
-118.90
-127.14
-128.10
-122.46
-110.20
-92.83
-70.95
-45.57
-18.46
8.33
32.76
53.22
69.39
81.78
90.77
97.01
101.06
103.68
106.74
112.17
120.27
128.52
131.66
123.65
101.20
66.47
26.06
-11.60
-40.07
-57.24
-65.17
-67.96
-68.98
-69.39
-68.74
-66.69
-63.22
-59.56
-57.02
-56.10
-56.57
-57.54
-57.92
-57.39
-56.26
-55.06
-54.27
-53.96
-54.06
-54.23
-54.27
-54.17
-53.92
-53.74
-54.07
-55.61
-58.96
-63.68
-67.64
-67.25
-58.74
-40.17
-12.94
18.25
47.19
68.55
79.87
81.94
77.97
71.14
63.65
56.32
49.21
42.85
38.29
36.75
38.31
41.08
40.67
31.88
10.62
-23.49
-65.44
-106.74
-138.11
-153.18
-150.47
-133.41
-107.87
-78.22
-48.32
-18.39
12.45
44.16
74.72
101.09
120.58
132.32
137.35
137.77
136.00
133.08
128.39
120.03
105.95
84.99
57.47
25.15
-9.66
-43.87
-74.10
-96.45
-107.27
-104.37
-88.37
-63.53
-35.71
-11.54
4.72
12.16
12.89
10.28
7.02
4.08
1.15
-2.14
-5.81
-8.90
-10.35
-9.65
-7.30
-4.57
-2.94
-3.24
-5.40
-8.77
-12.35
-15.32
-17.42
-18.71
-19.74
-21.06
-22.55
-23.41
-22.48
-18.79
-12.15
-3.29
6.33
15.16
22.21
27.27
30.56
32.28
32.15
29.53
23.85
15.11
4.06
-7.95
-19.49
-29.66
-38.05
-44.78
-50.34
-55.17
-59.64
-64.14
-68.94
-74.25
-80.53
-87.90
-96.31
-105.63
-115.46
-124.95
-133.12
-138.06
-137.77
-130.56
-115.41
-92.39
-62.83
-28.94
6.57
40.97
72.13
99.13
121.82
140.40
154.96
165.16
170.47
170.56
166.32
158.66
149.41
140.49
133.55
129.69
129.37
132.17
135.99
137.18
131.23
114.48
86.17
49.49
11.18
-21.08
-41.86
-50.08
-48.98
-43.70
-38.54
-35.16
-33.21
-31.66
-30.38
-30.76
-35.10
-44.78
-59.18
-76.16
-92.77
-106.06
-113.37
-112.01
-99.73
-75.45
-40.63
0.51
41.61
76.18
99.63
110.72
111.32
104.66
93.83
80.28
64.31
45.10
24.13
3.02
-16.76
-34.74
-51.68
-68.73
-87.03
-106.79
-126.78
-144.70
-158.49
-166.11
-166.39
-159.39
-145.97
-127.40
-104.91
-79.49
-51.92
-23.48
4.50
30.50
52.94
70.56
82.66
89.41
91.72
90.90
88.31
85.06
81.77
78.68
75.75
73.00
70.76
69.50
69.50
71.23
74.13
77.40
80.22
82.15
82.47
81.21
78.69
75.30
71.08
65.58
58.29
48.90
37.57
25.16
13.18
3.32
-3.22
-6.23
-6.66
-6.01
-5.67
-6.59
-8.84
-11.77
-14.50
-16.14
-16.05
-13.64
-8.46
-1.05
6.50
10.66
7.75
-4.45
-23.69
-44.36
-59.36
-63.03
-53.77
-34.12
-9.10
16.27
38.80
57.77
73.10
84.33
90.25
89.46
81.26
66.34
46.54
24.07
1.57
-19.61
-38.86
-55.92
-70.51
-82.19
-90.45
-95.16
-96.64
-95.80
-93.99
-92.40
-91.56
-91.31
-91.20
-90.69
-89.65
-88.12
-86.44
-85.11
-84.89
-86.65
-90.93
-97.03
-102.36
-102.82
-94.10
-74.38
-44.89
-10.89
20.27
42.10
51.50
49.47
39.75
26.86
14.34
4.11
-3.04
-6.96
-7.25
-3.90
2.78
11.56
20.93
29.61
37.05
43.60
50.50
59.54
72.00
87.33
102.51
112.51
111.61
97.67
73.18
44.95
21.80
10.56
13.12
26.42
44.40
61.02
72.78
79.40
81.68
80.35
74.77
63.27
44.56
18.99
-11.09
-41.59
-67.71
-85.48
-92.93
-90.41
-80.31
-66.17
-51.67
-39.84
-32.88
-32.50
-39.69
-53.46
-71.08
-87.33
-96.35
-94.15
-80.55
-59.38
-37.23
-20.36
-12.05
-12.09
-17.65
-25.71
-34.82
-44.99
-56.86
-70.50
-84.67
-97.06
-106.02
-110.12
-109.17
-103.59
-94.01
-80.47
-62.76
-40.75
-14.86
13.19
41.23
66.71
87.38
101.83
109.94
112.64
111.40
107.79
103.09
98.18
93.39
89.15
85.05
81.03
77.11
73.22
69.27
65.23
61.30
57.88
55.30
53.74
53.29
53.63
54.11
54.26
53.98
53.61
54.19
56.65
61.31
67.69
74.77
80.23
82.43
80.46
74.48
65.67
55.64
45.77
37.30
31.17
27.64
26.02
23.92
17.69
3.84
-19.00
-48.72
-79.64
-104.27
-117.05
-116.38
-104.80
-87.12
-67.72
-48.78
-30.43
-11.50
8.25
27.73
45.09
58.81
68.20
73.57
75.64
75.00
71.71
65.14
54.31
38.83
19.65
-1.44
-22.07
-39.80
-53.00
-61.10
-64.68
-65.19
-64.18
-62.98
-62.25
-62.25
-62.16
-61.21
-59.15
-56.09
-52.71
-49.91
-48.71
-49.60
-52.54
-56.81
-61.38
-65.47
-68.57
-70.58
-71.90
-73.52
-75.12
-75.93
-74.61
-69.80
-60.83
-47.96
-32.81
-17.85
-5.67
1.66
2.61
-2.95
-15.18
-32.17
-49.96
-63.13
-66.57
-57.57
-37.49
-11.75
12.43
29.03
35.54
33.24
25.70
16.21
6.45
-3.87
-15.94
-30.27
-45.91
-60.98
-73.70
-83.14
-89.00
-91.38
-90.35
-85.40
-75.56
-59.99
-38.57
-12.41
16.01
43.76
68.03
86.79
99.27
105.90
107.97
107.41
105.10
101.74
97.66
92.83
87.26
81.13
74.86
68.93
63.76
59.29
55.47
52.09
48.80
45.44
41.94
38.42
35.05
31.99
29.30
27.05
25.34
24.14
23.63
23.88
24.99
26.96
29.68
32.79
35.87
38.83
40.83
41.45
40.44
37.86
34.00
29.32
24.28
19.30
14.62
10.31
6.43
2.95
-0.09
-2.53
-4.15
-4.76
-4.21
-2.59
0.03
3.60
7.97
13.10
18.92
25.17
31.21
36.05
38.41
36.43
30.17
20.10
7.39
-6.18
-18.12
-26.86
-31.07
-30.08
-24.06
-14.36
-3.63
4.95
8.60
6.11
-1.80
-12.44
-22.43
-28.90
-30.49
-27.96
-23.15
-18.19
-14.15
-11.16
-8.44
-5.39
-1.60
2.87
7.60
12.31
16.80
21.25
25.86
30.85
36.05
41.14
45.51
48.13
48.30
45.57
40.15
32.76
24.45
15.97
7.50
1.06
-2.47
-2.47
1.28
8.26
17.07
25.71
32.38
36.65
40.04
45.27
55.71
73.52
98.47
127.68
156.62
180.97
198.38
208.91
214.17
216.02
215.26
211.34
203.02
189.42
170.86
148.70
124.13
97.22
67.15
33.57
-1.91
-35.41
-62.00
-78.35
-84.64
-85.00
-85.90
-93.19
-109.75
-134.84
-164.88
-195.33
-222.63
-244.99
-262.37
-275.63
-285.67
-292.99
-297.99
-301.15
-303.19
-305.12
-307.57
-310.06
-310.90
-308.35
-301.96
-293.56
-286.30
-282.50
-281.63
-279.63
-271.10
-252.75
-226.14
-197.46
-174.22
-160.57
-154.87
-150.48
-139.41
-116.75
-82.74
-41.83
0.35
39.79
75.20
106.72
134.36
157.31
174.00
183.51
186.36
184.47
180.03
174.77
169.11
162.28
152.86
139.02
119.53
94.27
64.38
32.17
0.51
-27.81
-50.74
-67.03
-76.25
-77.99
-71.85
-57.33
-33.98
-1.52
39.84
89.22
145.01
204.74
265.24
322.32
371.06
406.15
422.55
416.62
386.86
334.88
265.48
186.20
105.81
32.60
-27.42
-71.48
-99.85
-115.05
-120.28
-118.22
-110.41
-97.33
-79.24
-57.00
-33.27
-12.00
2.53
6.99
-0.07
-17.58
-42.11
-68.84
-92.82
-110.80
-121.19
-123.70
-118.59
-106.26
-87.24
-62.31
-32.86
-0.94
30.18
57.79
80.92
100.77
119.41
138.63
159.15
180.70
202.74
222.86
240.09
255.75
272.42
291.04
309.83
325.15
333.69
334.02
322.00
296.12
259.23
217.33
175.81
137.17
101.64
68.63
37.40
-0.61
-52.45
-118.36
-191.80
-264.89
-332.83
-394.18
-449.51
-500.40
-558.88
-634.85
-728.72
-831.33
-931.35
-1021.34
-1098.30
-1161.95
-1148.29
-1021.93
-800.49
-544.27
-309.19
-119.53
25.19
135.05
220.35
286.43
330.97
347.94
337.32
307.10
267.43
225.94
188.17
159.18
141.60
130.94
120.89
108.03
92.65
75.29
55.02
30.82
3.25
-25.74
-58.40
-97.06
-140.03
-181.04
-212.95
-230.92
-233.47
-221.64
-198.23
-168.91
-139.25
-111.89
-86.21
-60.40
-33.41
-5.52
21.83
46.80
67.06
81.04
89.12
93.54
97.47
103.71
114.21
129.90
150.93
177.10
208.05
243.41
282.62
324.62
367.64
409.12
445.63
474.06
492.25
499.53
497.18
488.15
476.36
465.50
457.65
452.21
446.71
437.55
421.68
398.03
368.06
335.21
303.47
275.66
252.02
230.82
208.53
180.88
144.17
96.90
40.39
-20.40
-78.83
-128.86
-165.17
-185.04
-189.37
-182.08
-168.49
-153.57
-139.13
-124.72
-109.35
-89.05
-59.66
-19.85
28.78
82.66
137.56
190.86
239.36
276.30
297.70
301.04
284.28
247.39
194.00
130.73
67.96
14.63
-27.52
-56.70
-74.52
-87.24
-102.94
-126.47
-171.51
-233.80
-281.25
-300.91
-289.05
-243.80
-169.29
-75.07
27.87
127.86
217.18
291.46
326.11
309.54
249.67
168.39
86.02
12.62
-49.83
-114.00
-189.03
-279.95
-381.55
-486.32
-581.24
-657.98
-694.38
-677.88
-611.22
-511.25
-401.25
-295.65
-200.42
-117.43
-48.69
4.41
39.60
57.15
61.55
58.91
57.22
62.45
76.66
97.62
120.89
140.55
152.30
155.78
153.66
149.62
146.77
146.16
146.43
144.41
136.62
120.89
98.06
71.08
43.75
19.42
-0.34
-15.87
-29.60
-43.82
-59.52
-75.51
-88.99
-97.09
-97.95
-92.32
-75.63
-49.97
-19.74
9.54
32.29
43.92
42.09
27.94
6.09
-16.62
-35.07
-46.65
-52.75
-57.75
-66.43
-81.45
-101.78
-123.64
-142.46
-155.88
-163.36
-165.69
-163.80
-157.91
-147.60
-132.50
-113.20
-91.45
-70.21
-52.26
-39.27
-31.31
-27.09
-24.43
-21.06
-15.28
-6.24
5.82
20.24
36.02
51.98
66.68
78.69
86.90
90.70
89.94
84.60
74.44
58.85
37.30
10.33
-19.47
-47.21
-66.89
-73.69
-65.79
-45.51
-18.17
10.23
35.27
55.45
71.67
85.19
95.52
100.12
95.60
79.94
53.86
20.90
-13.64
-44.18
-66.80
-80.12
-84.72
-81.80
-72.22
-57.19
-38.53
-17.95
4.13
28.59
56.35
87.37
119.80
149.90
171.96
180.13
172.14
151.57
126.25
103.74
88.30
79.76
74.97
68.66
54.90
29.72
-7.62
-55.92
-115.51
-187.34
-270.27
-348.86
-396.37
-392.31
-337.74
-250.87
-153.33
-63.73
6.87
56.72
95.09
130.41
164.05
192.30
210.92
219.37
219.46
215.46
213.19
208.36
199.68
184.63
162.46
127.72
88.95
59.38
46.71
48.34
56.87
67.70
79.44
93.18
113.50
139.89
167.09
187.53
193.52
181.42
154.34
117.77
76.82
32.40
-10.49
-48.19
-78.57
-102.11
-120.14
-130.95
-134.54
-133.15
-130.84
-131.29
-138.24
-141.89
-137.27
-127.92
-118.15
-111.31
-107.97
-107.52
-108.56
-110.66
-113.33
-117.81
-133.60
-157.15
-184.08
-210.73
-234.60
-253.47
-266.29
-272.47
-252.94
-210.50
-152.63
-87.98
-23.03
38.05
93.24
141.81
183.93
219.16
245.90
264.72
275.91
279.80
276.41
265.69
247.57
222.38
187.29
144.41
98.71
54.74
15.99
-15.40
-38.64
-53.98
-62.27
-64.78
-63.98
-61.60
-58.78
-56.01
-53.37
-50.88
-48.52
-46.17
-43.50
-40.73
-38.19
-36.07
-34.44
-33.12
-32.06
-31.21
-30.46
-29.66
-28.74
-27.94
-27.40
-27.33
-27.53
-28.09
-29.00
-30.18
-31.34
-32.27
-33.00
-33.71
-34.82
-36.44
-39.12
-43.37
-49.60
-57.73
-67.61
-78.81
-90.67
-103.72
-115.74
-125.14
-130.34
-129.84
-122.22
-106.77
-83.54
-52.31
-16.56
20.95
57.58
91.35
121.09
146.65
168.33
186.35
200.54
210.33
214.59
212.17
202.41
185.14
160.74
130.17
95.29
58.89
24.69
-3.43
-23.15
-34.26
-38.70
-39.66
-40.06
-41.55
-44.04
-46.77
-48.79
-50.08
-51.29
-53.19
-55.54
-57.22
-55.86
-49.60
-38.39
-24.03
-9.67
1.50
7.63
8.87
7.07
4.57
3.00
2.59
2.50
1.59
-0.75
-4.16
-7.58
-9.78
-10.30
-9.51
-8.43
-8.38
-10.27
-14.27
-19.74
-25.47
-30.07
-32.80
-33.79
-33.91
-34.32
-35.92
-38.96
-42.80
-46.26
-48.18
-48.31
-47.56
-47.97
-51.85
-60.72
-74.37
-90.74
-106.62
-117.81
-120.90
-113.76
-95.51
-66.54
-28.41
15.14
58.16
93.82
116.80
125.62
123.45
116.26
109.27
104.24
98.57
87.47
67.48
39.12
7.00
-22.48
-44.34
-56.90
-61.61
-61.28
-57.97
-52.20
-43.65
-32.30
-19.06
-6.09
3.97
9.26
9.21
4.88
-1.46
-7.56
-11.67
-13.41
-13.69
-14.01
-15.65
-19.25
-24.58
-30.40
-35.55
-38.93
-40.36
-40.47
-40.18
-40.14
-40.60
-41.40
-41.34
-39.57
-35.22
-28.37
-19.83
-10.53
-1.03
8.74
19.62
34.43
52.06
72.47
94.92
118.11
140.60
161.21
179.26
194.66
209.58
226.15
246.58
271.69
300.67
331.62
361.97
388.54
396.94
377.39
326.21
248.23
153.86
54.41
-40.97
-126.45
-199.28
-258.78
-303.47
-333.44
-349.02
-350.53
-339.08
-316.34
-284.71
-247.96
-209.98
-172.56
-135.92
-98.29
-57.27
-10.87
43.26
107.97
184.27
271.68
367.86
466.80
559.19
634.19
682.02
697.41
681.31
636.59
568.42
482.43
383.10
273.70
156.90
35.07
-89.46
-214.29
-341.54
-473.48
-610.61
-750.21
-886.21
-1010.46
-1114.48
-1191.17
-1218.65
-1184.04
-1085.07
-932.80
-748.63
-556.92
-378.06
-225.48
-110.32
-29.79
17.26
32.91
22.18
-5.60
-37.76
-61.53
-67.91
-53.79
-21.96
17.00
52.12
76.13
87.35
88.53
84.20
78.09
72.32
68.15
64.33
60.16
55.80
52.03
49.47
48.34
48.09
48.51
50.00
52.10
54.65
57.58
60.75
63.82
66.36
68.02
69.81
73.29
79.47
88.64
100.11
112.42
123.96
133.52
140.71
148.06
158.55
174.33
195.58
220.20
244.68
265.56
280.81
290.19
298.44
310.92
331.64
361.38
397.30
434.60
468.72
497.20
519.94
542.84
572.43
613.81
669.02
736.56
812.15
889.81
962.26
994.70
959.45
842.20
651.23
416.34
176.00
-38.11
-209.56
-336.81
-427.33
-486.93
-519.81
-528.79
-517.53
-492.25
-460.80
-430.02
-403.94
-383.59
-365.00
-343.50
-316.35
-283.88
-248.83
-216.61
-191.95
-177.39
-173.21
-176.59
-184.04
-192.64
-200.94
-209.06
-217.68
-227.78
-239.86
-251.82
-262.38
-270.99
-277.81
-283.87
-291.06
-300.90
-313.75
-327.37
-336.65
-335.53
-319.72
-289.13
-248.58
-208.48
-174.54
-149.33
-131.42
-116.19
-98.46
-74.77
-44.32
-8.53
30.24
69.35
106.60
140.47
169.55
192.01
206.22
211.31
207.74
197.47
183.68
169.30
156.48
146.11
137.71
130.06
121.91
112.40
101.60
90.52
80.29
71.85
65.54
60.98
57.31
53.54
48.92
43.29
37.14
31.28
26.56
23.52
22.19
22.04
22.19
21.75
20.20
17.70
14.90
12.81
12.31
13.72
16.66
20.16
23.08
24.65
24.71
23.83
22.95
23.34
25.41
29.47
35.45
42.62
49.27
52.73
49.95
38.90
19.94
-3.80
-27.16
-45.00
-54.17
-54.54
-48.54
-39.78
-31.38
-24.96
-20.58
-17.47
-14.86
-12.71
-11.38
-11.35
-13.03
-16.46
-21.22
-26.42
-31.16
-34.91
-37.79
-40.37
-43.01
-45.52
-46.91
-45.93
-42.05
-36.09
-30.06
-26.21
-25.88
-28.46
-31.87
-33.47
-31.49
-25.82
-17.83
-9.48
-2.30
2.93
6.54
9.33
12.17
15.37
18.54
20.84
21.57
20.47
17.80
14.26
10.59
7.42
5.17
4.37
5.91
11.21
21.24
35.85
53.55
71.78
87.94
100.41
109.13
115.52
121.85
129.93
140.05
151.05
160.75
167.02
168.72
166.11
160.51
153.29
146.27
140.09
134.19
127.21
117.88
105.51
90.29
73.18
55.65
39.38
26.02
17.11
13.72
16.45
25.11
38.64
55.37
73.29
90.16
103.62
111.39
111.53
102.96
85.67
60.78
30.06
-4.62
-41.77
-80.67
-121.19
-163.70
-208.68
-256.49
-307.18
-359.73
-411.25
-456.74
-490.03
-505.50
-500.26
-475.26
-435.14
-386.72
-336.85
-290.45
-249.52
-213.11
-178.40
-142.19
-102.09
-57.58
-10.16
37.07
80.24
115.78
141.21
155.58
159.52
155.07
145.51
134.91
127.14
124.59
127.20
132.79
137.92
139.25
134.45
122.58
103.91
79.80
52.45
24.65
-0.66
-21.20
-36.17
-46.46
-54.11
-61.33
-69.30
-77.79
-85.33
-90.09
-90.82
-87.37
-80.66
-72.11
-63.16
-54.80
-47.82
-43.23
-42.52
-47.28
-57.91
-72.75
-87.85
-98.34
-100.48
-93.67
-80.83
-66.78
-55.30
-46.91
-38.74
-26.58
-7.71
17.11
43.57
65.82
79.30
82.83
78.69
71.12
64.17
60.13
59.28
60.55
62.60
64.61
66.28
67.15
65.97
60.67
48.99
29.56
2.86
-28.78
-61.71
-91.73
-115.25
-130.26
-136.56
-135.43
-128.90
-119.26
-108.94
-100.22
-94.16
-90.72
-89.35
-89.15
-89.22
-88.06
-84.12
-76.40
-64.85
-49.02
-28.39
-2.65
28.29
64.52
106.43
153.41
202.84
250.06
291.18
323.57
345.75
357.17
354.22
334.57
300.80
260.80
215.86
165.59
111.92
58.10
7.38
-37.57
-74.39
-101.62
-119.56
-130.39
-136.36
-139.91
-143.46
-148.50
-154.75
-159.79
-160.57
-155.16
-143.72
-126.80
-105.22
-79.73
-51.08
-20.71
9.08
34.75
52.24
58.27
52.48
37.09
15.72
-7.66
-29.50
-46.24
-54.61
-52.21
-38.72
-16.45
9.39
32.28
46.65
50.06
43.88
32.10
19.29
8.81
2.18
-0.80
-1.16
0.04
2.14
5.04
8.74
13.01
17.17
20.13
20.57
17.68
11.52
2.99
-6.42
-15.35
-22.82
-27.95
-29.55
-26.39
-17.94
-5.30
8.68
20.42
27.34
29.30
28.44
27.92
29.71
33.53
37.11
37.62
33.47
25.03
14.19
3.15
-6.43
-13.69
-18.20
-19.61
-17.95
-14.16
-10.50
-9.92
-15.00
-26.35
-41.82
-56.98
-66.41
-66.05
-54.56
-33.87
-8.25
17.12
37.69
50.41
54.26
50.53
42.14
32.87
25.99
22.95
22.93
23.32
21.19
14.60
3.71
-9.33
-21.03
-27.65
-26.41
-16.10
2.56
27.28
54.68
81.58
105.91
127.08
145.71
162.29
176.51
187.11
192.84
193.46
190.41
186.12
182.73
180.77
178.72
173.85
163.84
148.19
128.73
108.84
91.75
78.95
69.35
59.80
46.35
26.04
-2.09
-36.76
-75.15
-114.08
-151.08
-184.68
-214.27
-239.75
-261.10
-278.26
-291.28
-300.08
-304.42
-303.68
-297.05
-283.86
-264.27
-239.64
-212.64
-186.89
-166.04
-152.69
-146.96
-146.43
-146.64
-142.60
-130.74
-110.22
-83.32
-54.32
-27.99
-7.50
6.09
13.70
17.35
18.94
19.78
20.44
21.28
22.65
25.73
31.53
40.48
52.05
64.63
76.28
85.23
90.72
92.35
92.06
91.37
91.60
93.78
98.62
106.66
118.20
133.26
150.16
170.33
193.65
219.86
248.26
277.43
305.21
329.10
346.91
355.02
356.06
351.00
340.59
324.43
300.48
265.66
216.95
152.63
69.88
-25.23
-128.18
-233.64
-336.08
-430.14
-510.48
-571.87
-588.93
-582.95
-549.43
-489.32
-406.04
-305.60
-196.49
-88.83
7.24
83.61
132.81
158.42
164.62
157.40
142.55
124.24
104.59
84.37
64.23
43.21
26.36
16.58
15.93
24.79
41.30
61.95
82.65
99.95
110.62
116.27
117.80
115.93
110.72
101.82
89.50
75.48
62.53
52.48
47.05
44.83
42.40
35.96
23.45
5.70
-13.20
-27.16
-30.22
-17.68
11.78
56.04
109.93
166.65
219.49
263.12
294.24
311.57
315.07
305.62
285.05
256.39
223.77
191.48
162.43
137.06
113.44
88.63
60.51
29.18
-3.20
-33.67
-60.28
-82.86
-102.35
-119.63
-133.93
-142.89
-143.82
-135.72
-120.40
-102.31
-86.91
-78.89
-81.33
-95.98
-123.86
-165.11
-217.97
-277.24
-334.35
-379.25
-404.02
-405.67
-387.16
-355.49
-318.34
-281.16
-246.15
-213.26
-182.11
-153.44
-128.94
-110.39
-98.71
-93.52
-93.55
-97.07
-102.23
-106.90
-109.02
-106.72
-99.07
-86.55
-70.86
-54.38
-39.20
-26.31
-15.49
-5.84
3.67
13.59
23.86
34.19
44.29
54.11
63.67
72.87
81.16
87.66
91.37
91.62
88.47
82.67
75.46
68.24
62.02
57.27
53.87
51.41
49.29
47.27
45.33
43.65
42.53
42.10
42.21
42.45
42.21
40.84
37.93
33.32
27.12
19.64
11.29
2.44
-6.56
-15.51
-24.24
-32.46
-39.83
-45.81
-49.70
-50.77
-48.54
-42.96
-34.63
-24.62
-14.14
-4.25
4.40
11.65
17.56
22.13
25.24
26.62
26.08
23.86
20.52
16.85
13.54
10.90
8.84
6.98
4.92
2.48
-0.20
-2.85
-5.20
-7.24
-9.30
-11.81
-15.04
-18.77
-22.28
-24.38
-23.89
-20.00
-12.62
-2.48
9.07
20.35
29.77
36.12
38.98
38.75
36.68
34.46
33.61
34.99
38.53
43.31
48.12
52.04
54.75
56.59
58.08
59.43
60.39
60.30
58.48
54.68
49.04
42.00
34.11
25.72
16.98
7.98
-1.18
-10.22
-18.81
-26.64
-33.56
-39.24
-43.27
-45.13
-44.35
-40.92
-35.26
-28.20
-20.59
-13.09
-6.03
0.35
5.74
9.64
11.41
10.74
7.88
3.76
-0.38
-3.51
-5.33
-6.18
-6.94
-8.60
-11.80
-16.62
-22.69
-29.38
-36.15
-42.64
-48.69
-54.09
-58.90
-63.51
-68.44
-74.09
-80.27
-85.98
-89.42
-88.40
-80.90
-65.79
-43.36
-15.08
16.87
50.22
82.83
112.81
138.43
158.40
171.52
176.54
172.62
159.75
138.99
112.36
82.64
52.98
27.68
10.06
1.49
1.33
7.88
18.93
32.01
44.34
53.39
59.82
64.56
68.17
70.93
73.86
78.16
84.31
91.23
96.79
102.84
110.85
120.63
130.58
139.64
147.77
155.21
162.00
168.07
178.42
196.13
220.05
245.75
269.25
288.82
304.42
316.51
295.06
228.06
128.40
24.40
-62.27
-124.51
-164.50
-188.04
-201.55
-210.57
-214.04
-211.41
-204.61
-197.21
-191.76
-188.34
-185.67
-182.16
-177.62
-167.97
-152.62
-135.58
-123.29
-120.44
-127.28
-139.95
-152.33
-158.46
-152.36
-133.23
-105.25
-75.19
-48.93
-29.68
-18.52
-15.53
-19.93
-29.69
-43.31
-59.20
-75.41
-89.65
-100.12
-106.41
-109.67
-111.37
-107.03
-94.15
-73.44
-48.64
-23.95
-2.14
15.74
29.81
40.98
50.39
57.92
63.26
66.52
68.43
69.95
72.64
76.02
79.17
81.19
80.97
78.17
73.54
68.55
64.45
61.61
59.35
56.75
53.03
47.57
40.53
32.14
24.05
18.29
16.48
19.15
25.64
33.86
40.50
42.16
36.97
25.48
10.64
-3.26
-12.42
-14.77
-10.82
-3.13
4.98
11.05
14.17
14.63
13.35
11.18
8.82
6.88
6.05
7.05
10.43
16.26
23.98
32.51
40.73
47.89
53.71
58.36
62.27
65.94
69.69
73.49
76.74
78.28
76.72
70.71
59.64
43.91
25.07
5.28
-13.06
-27.96
-38.05
-42.60
-41.44
-34.71
-22.93
-6.81
12.58
33.98
55.93
77.07
96.23
112.36
124.75
132.84
136.35
135.12
129.33
119.33
105.87
89.85
72.16
53.53
34.25
14.27
-6.66
-28.78
-52.04
-76.05
-100.10
-123.37
-144.88
-163.77
-179.33
-191.08
-198.85
-202.78
-203.30
-200.99
-196.47
-190.13
-182.35
-173.42
-163.66
-153.44
-143.14
-133.11
-123.57
-114.72
-106.52
-98.80
-91.19
-83.23
-74.47
-64.67
-53.87
-42.34
-30.48
-18.69
-7.28
3.58
13.69
22.80
30.58
36.54
40.32
41.79
41.18
39.13
36.42
33.69
31.32
29.39
27.79
26.53
25.69
25.41
25.77
26.63
27.71
28.58
28.78
27.92
25.77
22.23
17.30
11.19
4.19
-3.32
-11.14
-19.24
-27.71
-36.47
-45.18
-53.19
-59.66
-64.00
-66.06
-66.26
-65.28
-63.66
-61.49
-58.46
-54.16
-48.42
-41.62
-34.60
-28.32
-23.37
-19.84
-17.31
-15.25
-13.33
-11.53
-10.05
-8.99
-8.33
-7.74
-6.96
-5.98
-4.93
-3.92
-2.92
-1.52
0.81
4.38
9.01
14.02
18.43
21.46
22.84
22.77
21.79
20.43
18.96
17.34
15.28
12.42
8.62
4.01
-1.06
-5.96
-10.13
-13.19
-14.91
-15.31
-14.58
-12.81
-10.21
-6.94
-3.09
1.28
6.05
11.13
16.34
21.39
26.03
29.98
33.09
35.34
36.77
37.25
36.72
35.02
32.16
28.47
24.47
20.89
18.32
16.99
16.66
16.77
16.57
15.50
13.46
10.62
7.40
4.18
0.98
-2.21
-5.48
-8.82
-12.04
-14.74
-16.58
-17.28
-16.57
-14.27
-10.22
-4.36
3.01
11.26
19.56
26.86
32.39
35.81
37.23
37.04
35.79
33.84
31.42
28.62
25.43
21.93
18.29
14.71
11.41
8.51
6.02
3.92
2.11
0.58
-0.67
-1.65
-2.53
-3.46
-4.65
-6.17
-7.82
-9.24
-10.03
-9.83
-8.55
-6.45
-3.86
-1.15
1.37
3.60
5.54
7.21
8.59
9.65
10.26
10.36
9.95
9.10
7.94
6.68
5.49
4.43
3.44
2.39
1.21
-0.16
-1.67
-3.24
-4.85
-6.54
-8.48
-10.76
-13.44
-16.38
-19.35
-22.00
-23.97
-24.85
-24.32
-22.23
-18.52
-13.45
-7.37
-0.79
5.69
11.53
16.32
19.76
21.70
22.19
21.35
19.46
16.91
14.06
11.29
8.85
6.80
5.09
3.67
2.43
1.37
0.53
-0.20
-0.88
-1.60
-2.47
-3.55
-4.84
-6.44
-8.38
-10.57
-12.82
-14.69
-15.73
-15.55
-13.99
-11.13
-7.33
-2.99
1.49
5.73
9.51
12.55
14.63
15.60
15.41
14.19
12.28
10.10
8.09
6.63
5.78
5.47
5.42
5.26
4.63
3.29
1.18
-1.60
-4.69
-7.80
-10.61
-13.03
-15.13
-17.03
-18.79
-20.24
-21.06
-20.85
-19.39
-16.63
-12.72
-7.91
-2.42
3.46
9.37
14.78
19.08
21.75
22.61
21.83
19.98
17.78
15.79
14.29
13.36
12.81
12.44
12.02
11.33
10.20
8.60
6.60
4.32
1.88
-0.78
-3.77
-7.19
-10.85
-14.45
-17.49
-19.55
-20.42
-20.16
-18.83
-16.21
-11.80
-5.14
3.60
13.50
22.92
30.21
34.08
34.25
31.36
26.64
21.28
16.02
11.22
7.16
4.05
1.93
0.55
-0.41
-1.41
-2.70
-4.81
-7.85
-11.42
-14.97
-18.18
-21.04
-23.28
-24.74
-24.81
-24.22
-23.50
-22.94
-22.43
-22.12
-22.23
-22.29
-22.00
-20.57
-19.53
-20.27
-23.56
-29.14
-36.69
-46.09
-56.72
-69.21
-84.27
-105.01
-132.46
-164.02
-194.03
-217.40
-232.50
-241.23
-249.87
-246.46
-224.80
-186.59
-139.34
-89.41
-40.74
-0.90
33.04
63.17
92.11
119.99
147.22
171.77
191.68
205.08
211.04
211.05
206.72
200.45
192.27
182.02
170.28
158.84
149.41
142.80
139.39
137.51
135.21
129.49
118.46
102.27
83.01
63.26
45.24
30.73
20.02
12.90
8.17
4.52
1.02
-2.82
-7.30
-12.44
-17.76
-22.70
-26.36
-28.15
-27.90
-25.82
-22.38
-18.39
-14.53
-11.25
-8.82
-7.19
-6.13
-5.43
-4.80
-4.02
-3.04
-1.90
-0.84
-0.12
0.01
-0.57
-1.83
-3.58
-5.48
-7.29
-8.68
-9.54
-9.94
-10.08
-10.25
-10.61
-11.20
-11.80
-12.14
-11.82
-10.55
-8.18
-4.74
-0.45
4.33
9.10
13.38
16.70
18.74
19.29
18.34
16.07
12.79
8.92
4.87
1.09
-2.13
-4.61
-6.42
-7.74
-8.84
-9.94
-11.15
-12.47
-13.84
-15.21
-16.53
-17.83
-19.17
-20.55
-21.93
-23.11
-23.88
-23.98
-23.18
-21.36
-18.52
-14.81
-10.47
-5.85
-1.20
3.12
6.89
9.92
12.07
13.26
13.41
12.58
10.88
8.65
6.22
4.00
2.25
1.09
0.52
0.48
0.93
1.73
2.77
3.77
4.38
4.20
2.93
0.45
-3.08
-7.34
-11.91
-16.23
-19.77
-22.10
-22.92
-22.13
-19.77
-16.03
-11.29
-5.99
-0.63
4.31
8.41
11.42
13.17
13.82
13.57
12.75
11.70
10.65
9.69
8.81
7.94
6.97
5.90
4.81
3.76
2.83
1.99
1.06
-0.09
-1.62
-3.65
-6.21
-9.28
-12.77
-16.48
-20.09
-23.07
-24.83
-24.84
-22.86
-19.06
-13.95
-8.25
-2.62
2.38
6.45
9.42
11.21
11.86
11.51
10.46
9.10
7.90
7.13
6.88
7.09
7.42
7.56
7.17
5.99
3.90
0.97
-2.56
-6.31
-9.81
-12.77
-15.14
-17.15
-19.24
-21.69
-24.48
-27.22
-29.24
-29.81
-28.49
-25.28
-20.51
-14.79
-8.74
-2.90
2.44
7.07
10.89
13.76
15.51
16.02
15.32
13.67
11.51
9.38
7.74
6.78
6.49
6.66
6.98
7.27
7.42
7.45
7.34
7.10
6.72
6.20
5.57
4.87
4.03
2.88
1.26
-0.94
-3.53
-6.10
-8.04
-8.84
-8.25
-6.33
-3.41
0.06
3.64
6.95
9.67
11.62
12.70
12.96
12.63
11.93
11.15
10.42
9.81
9.31
8.87
8.51
8.14
7.67
6.98
5.99
4.65
2.89
0.72
-1.89
-4.87
-8.20
-11.72
-15.29
-18.66
-21.55
-23.64
-24.58
-24.07
-21.88
-18.17
-13.23
-7.67
-2.05
3.08
7.34
10.51
12.50
13.44
13.39
12.59
11.28
9.63
7.87
6.15
4.61
3.34
2.38
1.69
1.11
0.50
-0.32
-1.35
-2.54
-3.79
-5.13
-6.67
-8.59
-11.02
-13.83
-16.68
-18.94
-20.05
-19.52
-17.26
-13.47
-8.58
-3.17
2.20
7.06
11.05
13.91
15.55
16.06
15.65
14.72
13.66
12.77
12.14
11.63
11.02
10.07
8.64
6.79
4.75
2.77
1.03
-0.49
-2.06
-3.99
-6.57
-9.95
-13.97
-18.29
-22.52
-26.10
-28.54
-29.39
-28.33
-25.27
-20.50
-14.59
-8.34
-2.55
2.28
5.94
8.48
10.05
10.87
11.03
10.58
9.74
8.74
7.89
7.40
7.27
7.35
7.37
7.10
6.48
5.54
4.42
3.16
1.67
-0.30
-3.00
-6.60
-10.98
-15.73
-20.26
-23.86
-25.87
-25.88
-23.69
-19.44
-13.48
-6.35
1.35
9.02
16.11
22.12
26.69
29.60
30.76
30.37
28.72
26.30
23.60
21.06
18.95
17.34
16.18
15.22
14.21
12.91
11.20
9.08
6.68
4.13
1.54
-1.04
-3.71
-6.56
-9.66
-12.93
-16.15
-18.88
-20.61
-20.81
-19.14
-15.49
-10.19
-3.80
2.85
9.12
14.47
18.72
21.82
23.83
24.85
24.96
24.34
23.16
21.74
20.28
18.97
17.81
16.75
15.73
14.59
13.27
11.65
9.69
7.38
4.72
1.72
-1.59
-5.17
-9.05
-13.14
-17.39
-21.67
-25.74
-29.33
-32.02
-33.42
-33.01
-30.56
-25.98
-19.57
-11.93
-3.88
3.74
10.23
15.11
18.28
19.81
20.03
19.32
18.08
16.67
15.39
14.46
14.02
14.15
14.76
15.63
16.40
16.68
16.18
14.84
12.75
10.14
7.29
4.30
1.28
-1.81
-4.97
-8.11
-11.13
-13.80
-15.97
-17.39
-17.97
-17.57
-16.13
-13.64
-10.13
-5.77
-0.85
4.21
8.94
12.82
15.46
16.73
16.68
15.53
13.61
11.20
8.59
6.00
3.58
1.46
-0.35
-1.87
-3.15
-4.20
-5.01
-5.58
-5.93
-6.21
-6.58
-7.30
-8.52
-10.32
-12.76
-15.72
-19.07
-22.51
-25.61
-27.76
-28.47
-27.44
-24.76
-20.81
-16.15
-11.34
-6.66
-2.40
1.31
4.22
6.03
6.61
6.07
4.83
3.49
2.65
2.56
3.18
4.10
4.86
5.18
4.89
4.15
3.03
1.68
0.05
-1.98
-4.58
-7.86
-11.75
-16.00
-20.16
-23.58
-25.51
-25.46
-23.22
-19.08
-13.65
-7.71
-2.01
3.02
7.23
10.75
13.67
16.06
17.83
18.87
19.09
18.57
17.58
16.43
15.43
14.68
14.07
13.39
12.41
10.97
9.09
6.90
4.53
2.01
-0.71
-3.78
-7.26
-11.21
-15.53
-20.07
-24.57
-28.75
-32.10
-34.10
-34.18
-31.97
-27.54
-21.32
-14.09
-6.62
0.36
6.40
11.27
14.93
17.42
18.86
19.44
19.36
18.89
18.25
17.63
17.14
16.79
16.55
16.37
16.17
15.89
15.44
14.74
13.67
12.08
9.88
7.08
3.75
0.05
-3.81
-7.65
-11.46
-15.28
-19.21
-23.31
-27.55
-31.65
-35.17
-37.44
-37.86
-36.06
-31.92
-25.75
-18.19
-9.99
-1.88
5.59
12.05
17.31
21.22
23.87
25.32
25.75
25.42
24.61
23.63
22.68
21.90
21.34
21.03
20.85
20.62
20.21
19.40
18.09
16.20
13.81
11.00
7.99
4.91
1.91
-0.83
-3.28
-5.46
-7.52
-9.69
-12.29
-15.52
-19.42
-23.66
-27.53
-30.20
-30.78
-28.82
-24.39
-18.04
-10.68
-3.23
3.65
9.62
14.57
18.51
21.46
23.29
24.04
23.82
22.91
21.74
20.68
19.85
19.28
18.90
18.54
18.14
17.69
17.17
16.55
15.76
14.55
12.71
10.11
6.77
3.00
-0.83
-4.32
-7.26
-9.70
-11.91
-14.16
-16.71
-19.48
-22.19
-24.38
-25.54
-25.26
-23.28
-19.64
-14.55
-8.54
-2.25
3.69
8.76
12.65
15.34
17.05
17.98
18.39
18.34
17.87
17.06
16.02
14.98
14.09
13.48
13.08
12.83
12.56
12.14
11.47
10.48
9.16
7.47
5.47
3.28
1.11
-0.95
-2.83
-4.56
-6.27
-8.12
-10.27
-12.80
-15.64
-18.52
-21.05
-22.77
-23.23
-22.14
-19.46
-15.39
-10.27
-4.60
1.14
6.51
11.16
14.88
17.47
18.85
19.05
18.26
16.80
15.06
13.49
12.35
11.66
11.17
10.63
9.81
8.67
7.35
5.99
4.72
3.51
2.25
0.79
-0.91
-2.81
-4.75
-6.60
-8.28
-9.83
-11.44
-13.29
-15.48
-17.95
-20.48
-22.62
-23.87
-23.75
-21.96
-18.56
-13.90
-8.56
-3.19
1.62
5.50
8.33
10.14
11.05
11.19
10.64
9.57
8.24
6.95
5.99
5.48
5.39
5.50
5.50
5.18
4.40
3.25
1.99
0.79
-0.17
-0.90
-1.47
-2.08
-2.78
-3.64
-4.65
-5.73
-6.89
-8.23
-9.91
-12.03
-14.57
-17.19
-19.42
-20.69
-20.54
-18.83
-15.62
-11.31
-6.38
-1.33
3.28
7.00
9.43
10.37
9.83
8.21
6.03
3.84
2.07
0.94
0.41
0.42
0.86
1.54
2.40
3.21
3.75
3.84
3.47
2.68
1.67
0.68
-0.20
-0.87
-1.43
-2.01
-2.74
-3.82
-5.51
-7.94
-11.19
-15.08
-19.10
-22.66
-25.12
-25.93
-24.89
-22.12
-17.92
-12.70
-6.96
-1.10
4.32
8.82
12.07
13.83
14.16
13.31
11.70
9.71
7.74
5.94
4.41
3.22
2.36
1.85
1.69
1.79
2.02
2.25
2.25
1.92
1.20
0.08
-1.32
-2.86
-4.37
-5.80
-7.11
-8.41
-9.84
-11.54
-13.56
-15.78
-17.87
-19.43
-20.03
-19.37
-17.44
-14.40
-10.66
-6.74
-3.05
0.05
2.39
3.95
4.87
5.30
5.48
5.63
5.86
6.23
6.63
6.88
6.81
6.37
5.57
4.54
3.43
2.35
1.32
0.28
-0.83
-1.98
-3.16
-4.37
-5.56
-6.77
-8.03
-9.28
-10.52
-11.76
-12.98
-14.17
-15.23
-15.88
-15.76
-14.49
-11.79
-7.72
-2.72
2.57
7.44
11.28
13.77
14.88
14.80
13.88
12.52
11.03
9.63
8.40
7.31
6.20
4.91
3.36
1.59
-0.33
-2.23
-3.95
-5.46
-6.74
-7.78
-8.60
-9.20
-9.71
-10.34
-11.34
-12.81
-14.81
-17.22
-19.81
-22.35
-24.52
-26.04
-26.55
-25.73
-23.37
-19.45
-14.23
-8.28
-2.20
3.38
7.93
11.18
13.03
13.47
12.63
10.67
7.81
4.34
0.65
-2.80
-5.65
-7.69
-8.93
-9.57
-9.87
-10.11
-10.39
-10.71
-10.96
-11.11
-11.21
-11.45
-12.04
-13.16
-14.98
-17.48
-20.57
-24.01
-27.42
-30.26
-32.00
-32.09
-30.12
-26.01
-20.04
-12.79
-5.04
2.43
9.02
14.32
18.22
20.77
22.06
22.24
21.50
20.13
18.43
16.70
15.13
13.77
12.59
11.55
10.67
9.98
9.48
8.99
8.26
7.04
5.29
3.15
0.89
-1.16
-3.00
-4.80
-7.00
-9.88
-13.49
-17.54
-21.41
-24.42
-25.84
-25.28
-22.58
-17.94
-11.74
-4.49
3.21
10.80
17.72
23.55
27.91
30.67
31.86
31.72
30.62
28.95
27.08
25.30
23.82
22.72
22.10
21.85
21.83
21.87
21.67
21.00
19.71
17.73
15.07
11.91
8.37
4.58
0.66
-3.37
-7.48
-11.63
-15.74
-19.74
-23.42
-26.60
-28.99
-30.20
-29.79
-27.48
-23.23
-17.31
-10.29
-2.80
4.46
10.96
16.34
20.34
22.86
23.89
23.53
22.05
19.82
17.22
14.69
12.55
10.97
10.06
9.66
9.58
9.65
9.76
9.83
9.80
9.54
8.79
7.35
5.05
2.03
-1.50
-5.21
-8.90
-12.50
-16.11
-19.80
-23.53
-27.06
-29.96
-31.78
-32.16
-30.88
-27.89
-23.35
-17.49
-10.68
-3.46
3.63
10.03
15.25
19.11
21.63
23.03
23.55
23.42
22.81
21.82
20.67
19.60
18.87
18.63
18.83
19.24
19.60
19.68
19.35
18.60
17.44
15.84
13.74
11.04
7.78
4.11
0.22
-3.66
-7.40
-11.00
-14.57
-18.27
-22.15
-26.05
-29.63
-32.26
-33.31
-32.19
-28.65
-22.94
-15.69
-7.84
-0.31
6.16
11.18
14.71
16.85
17.74
17.45
16.09
13.87
11.19
8.55
6.41
5.08
4.63
4.87
5.48
6.14
6.52
6.38
5.62
4.22
2.33
0.12
-2.17
-4.42
-6.66
-9.07
-11.82
-14.95
-18.35
-21.69
-24.48
-26.15
-26.14
-24.08
-19.91
-13.87
-6.51
1.39
8.98
15.59
20.79
24.43
26.56
27.33
26.94
25.59
23.50
21.00
18.48
16.39
15.09
14.69
15.02
15.59
15.90
15.59
14.62
13.22
11.67
10.11
8.38
6.08
2.78
-1.72
-7.29
-13.49
-19.78
-25.67
-30.75
-34.56
-36.60
-36.36
-33.44
-27.80
-19.92
-10.65
-1.13
7.58
14.76
20.08
23.60
25.59
26.35
26.10
25.07
23.52
21.76
20.20
19.15
18.83
19.18
19.87
20.36
20.18
18.97
16.66
13.38
9.43
5.10
0.73
-3.48
-7.36
-10.70
-13.47
-15.74
-17.61
-19.32
-21.04
-22.66
-23.87
-24.15
-22.88
-19.67
-14.47
-7.58
0.22
8.02
15.00
20.54
24.39
26.50
27.04
26.20
24.27
21.55
18.45
15.42
12.87
10.98
9.73
8.92
8.30
7.71
7.03
6.28
5.52
4.71
3.77
2.55
0.89
-1.24
-3.77
-6.52
-9.29
-11.89
-14.22
-16.25
-18.16
-20.12
-22.21
-24.27
-25.82
-26.14
-24.54
-20.60
-14.29
-6.17
2.84
11.72
19.62
25.95
30.49
33.20
34.16
33.58
31.74
29.00
25.80
22.63
19.91
17.87
16.53
15.80
15.40
15.07
14.55
13.71
12.52
11.03
9.32
7.38
5.16
2.58
-0.40
-3.65
-6.93
-10.02
-12.81
-15.31
-17.72
-20.19
-22.78
-25.23
-27.10
-27.73
-26.61
-23.48
-18.37
-11.80
-4.52
2.61
8.88
13.79
17.20
19.14
19.80
19.51
18.50
17.06
15.45
13.94
12.68
11.76
11.11
10.56
9.83
8.72
7.20
5.40
3.57
1.95
0.64
-0.40
-1.27
-2.05
-2.80
-3.55
-4.45
-5.82
-7.95
-10.92
-14.38
-17.50
-19.28
-18.88
-15.94
-10.73
-4.03
3.07
9.56
14.72
18.19
20.01
20.44
19.84
18.47
16.55
14.14
11.41
8.68
6.40
5.00
4.74
5.46
6.63
7.54
7.58
6.47
4.27
1.40
-1.72
-4.68
-7.40
-9.96
-12.54
-15.34
-18.38
-21.66
-25.01
-28.26
-31.16
-33.45
-34.82
-34.88
-33.30
-29.90
-24.84
-18.55
-11.71
-4.98
1.09
6.14
9.99
12.42
13.29
12.42
9.89
6.06
1.61
-2.60
-5.81
-7.59
-7.97
-7.23
-5.89
-4.40
-3.01
-1.89
-1.10
-0.74
-0.91
-1.76
-3.30
-5.46
-8.03
-10.71
-13.29
-15.60
-17.47
-18.65
-18.82
-17.59
-14.80
-10.48
-5.01
0.89
6.48
11.12
14.47
16.51
17.43
17.45
16.74
15.47
13.72
11.70
9.67
7.89
6.51
5.56
4.91
4.35
3.69
2.72
1.30
-0.59
-2.94
-5.58
-8.36
-11.15
-13.94
-16.78
-19.73
-22.62
-25.10
-26.69
-26.87
-25.31
-22.01
-17.25
-11.48
-5.34
0.64
5.94
10.15
13.06
14.65
14.99
14.27
12.83
10.95
8.94
7.05
5.46
4.28
3.55
3.14
2.88
2.61
2.14
1.32
0.07
-1.62
-3.69
-6.14
-8.85
-11.77
-14.83
-17.92
-20.89
-23.51
-25.49
-26.41
-25.95
-23.85
-20.10
-14.91
-8.74
-2.12
4.35
10.09
14.69
17.84
19.50
19.79
18.99
17.39
15.35
13.15
11.01
9.12
7.64
6.60
5.93
5.33
4.53
3.28
1.61
-0.33
-2.28
-4.06
-5.66
-7.24
-9.07
-11.31
-14.03
-17.01
-19.81
-21.83
-22.55
-21.60
-18.85
-14.52
-9.09
-3.19
2.53
7.57
11.55
14.27
15.59
15.58
14.38
12.28
9.74
7.13
4.85
3.11
1.95
1.30
1.02
0.96
0.98
0.94
0.65
-0.00
-1.08
-2.59
-4.43
-6.54
-8.96
-11.79
-15.10
-18.82
-22.58
-25.71
-27.50
-27.29
-24.83
-20.28
-14.18
-7.34
-0.66
5.09
9.35
11.80
12.56
11.92
10.45
8.71
7.29
6.54
6.75
7.92
9.88
12.25
14.52
16.15
16.70
16.01
14.18
11.57
8.52
5.31
1.97
-1.72
-6.09
-11.28
-17.13
-23.03
-28.11
-31.50
-32.50
-30.88
-26.85
-20.99
-14.08
-6.99
-0.41
5.13
9.39
12.43
14.48
15.81
16.66
17.16
17.28
16.94
15.99
14.38
12.19
9.66
7.14
4.99
3.38
2.32
1.63
1.05
0.25
-1.00
-2.89
-5.58
-9.13
-13.45
-18.16
-22.59
-25.87
-27.16
-25.87
-22.01
-16.09
-9.10
-2.12
4.01
8.93
12.84
16.23
19.59
23.13
26.70
29.86
32.07
32.97
32.40
30.57
27.85
24.68
21.47
18.51
15.91
13.69
11.72
9.93
8.17
6.35
4.39
2.13
-0.60
-3.87
-7.64
-11.80
-16.06
-20.21
-24.07
-27.60
-30.68
-33.10
-34.41
-34.04
-31.48
-26.53
-19.48
-11.02
-2.18
6.10
13.13
18.68
22.82
25.81
27.88
29.12
29.53
29.11
28.02
26.65
25.45
24.74
24.62
24.93
25.31
25.42
25.08
24.31
23.19
21.77
20.01
17.74
14.85
11.34
7.42
3.46
-0.16
-3.20
-5.73
-8.07
-10.66
-13.83
-17.70
-22.02
-26.25
-29.72
-31.77
-31.92
-29.95
-25.94
-20.31
-13.74
-6.89
-0.40
5.33
10.04
13.64
16.05
17.30
17.56
17.12
16.48
16.07
16.15
16.72
17.57
18.35
18.77
18.71
18.17
17.23
16.01
14.63
13.12
11.51
9.75
7.76
5.50
2.97
0.22
-2.67
-5.69
-8.87
-12.33
-16.10
-20.06
-23.84
-26.98
-28.92
-29.28
-27.91
-24.86
-20.44
-15.07
-9.16
-3.19
2.33
7.02
10.66
13.18
14.76
15.62
15.91
15.72
15.10
14.08
12.87
11.81
11.18
11.19
11.78
12.64
13.37
13.59
13.13
11.93
10.13
7.83
5.19
2.31
-0.76
-3.95
-7.24
-10.48
-13.52
-16.27
-18.73
-20.92
-22.97
-24.91
-26.56
-27.55
-27.29
-25.29
-21.36
-15.80
-9.24
-2.61
3.30
8.05
11.49
13.80
15.27
16.19
16.66
16.73
16.40
15.69
14.77
13.82
13.04
12.51
12.21
11.98
11.58
10.84
9.71
8.27
6.65
4.92
3.03
0.87
-1.67
-4.59
-7.71
-10.85
-13.90
-16.90
-20.01
-23.35
-26.80
-29.87
-31.85
-31.96
-29.72
-25.04
-18.38
-10.62
-2.78
4.19
9.72
13.61
16.02
17.16
17.24
16.35
14.54
11.98
9.08
6.37
4.38
3.37
3.28
3.75
4.36
4.74
4.75
4.38
3.64
2.54
0.98
-1.06
-3.56
-6.45
-9.55
-12.79
-16.17
-19.74
-23.44
-26.97
-29.71
-30.89
-29.87
-26.37
-20.66
-13.52
-6.03
0.83
6.37
10.34
12.82
14.08
14.39
13.86
12.60
10.70
8.39
6.01
3.96
2.57
1.95
1.98
2.30
2.52
2.29
1.45
0.06
-1.66
-3.52
-5.43
-7.38
-9.57
-12.12
-15.11
-18.49
-22.04
-25.44
-28.23
-29.90
-29.92
-27.94
-23.86
-18.00
-11.03
-3.84
2.68
7.98
11.83
14.29
15.58
15.91
15.50
14.57
13.33
12.10
11.11
10.48
10.18
9.96
9.63
8.96
7.87
6.41
4.70
2.89
1.13
-0.54
-2.21
-4.02
-6.24
-9.05
-12.53
-16.59
-20.96
-25.22
-28.93
-31.55
-32.58
-31.65
-28.52
-23.30
-16.46
-8.81
-1.19
5.54
10.89
14.66
16.93
17.99
18.14
17.61
16.56
15.17
13.64
12.17
10.96
10.12
9.66
9.51
9.54
9.57
9.37
8.76
7.59
5.75
3.28
0.31
-2.95
-6.29
-9.60
-12.88
-16.22
-19.74
-23.42
-27.04
-30.14
-32.08
-32.19
-30.00
-25.42
-18.80
-10.76
-2.19
6.01
13.11
18.62
22.34
24.32
24.78
24.03
22.46
20.46
18.35
16.36
14.65
13.26
12.11
11.11
10.22
9.44
8.88
8.62
8.62
8.65
8.40
7.50
5.73
3.04
-0.48
-4.58
-8.97
-13.40
-17.66
-21.61
-25.02
-27.66
-29.25
-29.55
-28.36
-25.63
-21.48
-16.27
-10.53
-4.89
0.11
4.10
6.95
8.79
9.87
10.47
10.77
10.94
11.10
11.44
12.15
13.36
15.01
16.82
18.41
19.38
19.49
18.71
17.16
15.00
12.39
9.44
6.31
3.17
0.28
-2.20
-4.18
-5.79
-7.32
-9.09
-11.32
-14.08
-17.11
-19.84
-21.57
-21.67
-19.76
-15.87
-10.47
-4.28
1.91
7.45
11.94
15.23
17.37
18.45
18.63
18.04
16.81
15.06
12.98
10.82
8.84
7.41
6.74
6.90
7.73
8.84
9.72
9.98
9.36
7.83
5.60
2.99
0.30
-2.27
-4.65
-6.98
-9.41
-12.12
-15.15
-18.32
-21.27
-23.40
-24.20
-23.24
-20.37
-15.71
-9.67
-2.86
3.98
10.12
15.00
18.25
19.77
19.75
18.42
16.09
13.08
9.67
6.14
2.89
0.29
-1.35
-1.92
-1.62
-0.83
-0.06
0.29
-0.01
-0.86
-2.14
-3.72
-5.62
-8.03
-11.08
-14.79
-18.88
-22.86
-25.99
-27.69
-27.51
-25.38
-21.54
-16.48
-10.77
-4.95
0.50
5.20
8.89
11.41
12.72
12.89
12.12
10.71
9.05
7.52
6.47
6.07
6.36
7.16
8.07
8.66
8.64
7.87
6.40
4.47
2.24
-0.16
-2.79
-5.83
-9.53
-13.96
-19.05
-24.45
-29.49
-33.34
-35.20
-34.48
-31.03
-25.16
-17.59
-9.26
-1.04
6.38
12.59
17.43
20.87
22.96
23.78
23.43
22.05
19.94
17.52
15.15
13.13
11.54
10.27
9.09
7.76
6.14
4.31
2.46
0.77
-0.69
-2.06
-3.63
-5.78
-8.73
-12.50
-16.83
-21.19
-24.89
-27.14
-27.32
-25.03
-20.32
-13.63
-5.77
2.27
9.57
15.50
19.82
22.58
23.98
24.26
23.59
22.09
19.98
17.61
15.38
13.67
12.72
12.48
12.69
12.99
13.09
12.78
12.04
10.83
9.12
6.87
4.01
0.54
-3.54
-8.18
-13.29
-18.61
-23.74
-28.07
-30.90
-31.59
-29.75
-25.35
-18.79
-10.78
-2.23
5.95
13.04
18.54
22.23
24.12
24.41
23.38
21.44
18.99
16.46
14.28
12.74
11.90
11.62
11.57
11.37
10.70
9.40
7.47
5.11
2.56
0.07
-2.25
-4.41
-6.51
-8.75
-11.28
-14.18
-17.41
-20.80
-24.01
-26.60
-27.99
-27.64
-25.17
-20.53
-14.11
-6.65
1.00
8.07
13.99
18.48
21.38
22.66
22.39
20.76
18.18
15.22
12.48
10.41
9.14
8.55
8.30
8.10
7.75
7.15
6.34
5.31
3.98
2.17
-0.18
-3.13
-6.56
-10.29
-14.23
-18.29
-22.36
-26.16
-29.20
-30.78
-30.29
-27.32
-21.98
-14.78
-6.53
1.84
9.52
15.93
20.70
23.79
25.37
25.73
25.19
23.99
22.32
20.28
18.03
15.76
13.73
12.13
11.04
10.29
9.65
8.84
7.60
5.82
3.50
0.76
-2.20
-5.17
-8.09
-10.99
-14.06
-17.48
-21.24
-25.01
-28.17
-29.87
-29.37
-26.29
-20.73
-13.31
-5.00
3.20
10.43
16.14
20.14
22.51
23.47
23.31
22.26
20.55
18.45
16.23
14.19
12.64
11.70
11.30
11.21
11.02
10.42
9.26
7.57
5.53
3.28
0.86
-1.88
-5.05
-8.70
-12.70
-16.83
-20.89
-24.67
-27.94
-30.33
-31.33
-30.31
-26.84
-20.88
-12.98
-4.10
4.58
12.03
17.61
21.14
22.88
23.31
22.93
22.05
20.73
18.97
16.76
14.28
11.90
10.04
8.97
8.63
8.68
8.65
8.18
7.14
5.69
4.07
2.40
0.61
-1.60
-4.47
-8.16
-12.57
-17.42
-22.21
-26.46
-29.65
-31.34
-31.20
-28.93
-24.40
-17.83
-9.79
-1.18
6.97
13.83
18.86
21.93
23.18
22.97
21.68
19.68
17.31
14.90
12.74
11.08
9.99
9.39
9.13
8.95
8.62
7.88
6.52
4.49
1.91
-1.03
-4.07
-7.04
-9.91
-12.75
-15.74
-19.06
-22.68
-26.37
-29.67
-31.88
-32.32
-30.57
-26.55
-20.64
-13.57
-6.23
0.57
6.28
10.55
13.26
14.40
14.08
12.59
10.38
8.02
6.01
4.73
4.24
4.28
4.42
4.26
3.47
2.02
0.10
-2.03
-4.07
-5.87
-7.43
-8.87
-10.40
-12.24
-14.67
-17.82
-21.70
-26.00
-30.02
-32.79
-33.33
-31.04
-25.86
-18.38
-9.67
-0.91
6.90
13.18
17.65
20.33
21.29
20.76
19.08
16.68
14.09
11.76
9.98
8.82
8.15
7.74
7.36
6.84
6.12
5.17
3.99
2.60
0.91
-1.19
-3.82
-7.18
-11.32
-16.06
-20.93
-25.27
-28.28
-29.27
-27.85
-24.07
-18.40
-11.51
-4.22
2.86
9.25
14.67
18.86
21.68
22.99
22.85
21.47
19.26
16.73
14.39
12.60
11.51
11.07
11.01
10.98
10.65
9.84
8.51
6.79
4.86
2.79
0.57
-1.98
-5.14
-9.03
-13.62
-18.59
-23.35
-27.11
-29.10
-28.72
-25.76
-20.44
-13.39
-5.47
2.44
9.55
15.35
19.48
21.89
22.60
21.84
19.94
17.39
14.75
12.55
11.19
10.72
10.89
11.22
11.24
10.58
9.20
7.29
5.11
2.88
0.62
-1.75
-4.41
-7.49
-11.07
-15.14
-19.58
-24.13
-28.25
-31.23
-32.24
-30.76
-26.69
-20.44
-12.75
-4.49
3.60
10.91
17.02
21.68
24.73
26.18
26.22
25.21
23.47
21.30
18.93
16.55
14.44
12.93
12.19
12.13
12.36
12.40
11.92
10.82
9.26
7.53
5.78
3.94
1.77
-1.05
-4.79
-9.42
-14.78
-20.51
-26.08
-30.83
-34.08
-35.15
-33.56
-29.21
-22.40
-13.83
-4.56
4.40
12.08
17.86
21.43
22.84
22.34
20.38
17.56
14.55
12.08
10.63
10.41
11.18
12.41
13.41
13.63
12.77
10.87
8.24
5.19
2.00
-1.23
-4.50
-7.90
-11.49
-15.30
-19.33
-23.33
-26.89
-29.33
-29.85
-27.79
-22.96
-15.77
-7.18
1.48
9.05
14.78
18.50
20.48
21.14
20.77
19.53
17.50
14.80
11.77
8.85
6.50
4.95
4.11
3.60
2.96
1.89
0.28
-1.66
-3.66
-5.51
-7.23
-9.03
-11.24
-14.08
-17.58
-21.52
-25.40
-28.53
-30.12
-29.50
-26.27
-20.56
-12.98
-4.52
3.74
11.02
16.78
20.87
23.25
23.97
23.11
20.89
17.76
14.31
11.21
8.87
7.48
6.83
6.54
6.20
5.52
4.40
2.89
1.15
-0.72
-2.68
-4.80
-7.29
-10.35
-14.08
-18.47
-23.26
-27.97
-31.92
-34.33
-34.49
-31.95
-26.65
-19.10
-10.15
-0.91
7.66
14.84
20.30
23.95
25.81
26.05
24.80
22.36
19.18
15.86
12.94
10.83
9.67
9.24
9.18
9.10
8.75
8.07
7.15
6.03
4.74
3.12
0.95
-2.02
-5.87
-10.50
-15.67
-20.97
-25.84
-29.57
-31.45
-30.83
-27.41
-21.33
-13.20
-3.96
5.28
13.56
20.22
24.96
27.82
29.07
29.09
28.23
26.80
25.00
22.92
20.72
18.53
16.55
14.88
13.55
12.43
11.31
10.00
8.33
6.20
3.61
0.61
-2.70
-6.23
-9.92
-13.73
-17.73
-21.97
-26.46
-30.99
-35.04
-37.83
-38.51
-36.46
-31.46
-23.90
-14.63
-4.79
4.51
12.35
18.22
22.00
23.91
24.41
24.05
23.32
22.54
21.83
21.13
20.30
19.28
18.12
16.97
16.03
15.36
14.87
14.32
13.41
11.96
9.92
7.36
4.49
1.43
-1.72
-5.00
-8.52
-12.41
-16.77
-21.62
-26.83
-32.04
-36.66
-39.91
-40.95
-39.15
-34.26
-26.60
-17.02
-6.77
2.89
10.98
16.92
20.64
22.40
22.69
21.93
20.53
18.74
16.78
14.82
13.02
11.52
10.46
9.92
9.83
10.01
10.11
9.81
8.88
7.27
5.08
2.49
-0.34
-3.34
-6.54
-9.97
-13.67
-17.53
-21.45
-25.20
-28.55
-31.20
-32.69
-32.51
-30.24
-25.69
-19.13
-11.22
-2.91
4.79
11.16
15.80
18.67
19.95
19.91
18.90
17.26
15.41
13.67
12.31
11.39
10.85
10.50
10.12
9.56
8.68
7.40
5.68
3.49
0.88
-2.04
-5.15
-8.36
-11.73
-15.37
-19.38
-23.75
-28.30
-32.61
-36.13
-38.18
-38.15
-35.59
-30.43
-23.02
-14.19
-4.95
3.64
10.83
16.28
20.02
22.31
23.34
23.27
22.13
20.13
17.57
14.89
12.57
10.91
10.02
9.71
9.75
9.80
9.58
8.90
7.61
5.69
3.14
0.04
-3.51
-7.38
-11.49
-15.75
-20.12
-24.59
-29.04
-33.27
-36.87
-39.26
-39.72
-37.66
-32.79
-25.35
-16.11
-6.19
3.27
11.40
17.74
22.28
25.21
26.82
27.37
27.02
25.92
24.27
22.34
20.34
18.48
16.88
15.60
14.63
13.90
13.31
12.68
11.89
10.73
9.09
6.83
3.93
0.49
-3.28
-7.12
-10.90
-14.58
-18.37
-22.45
-26.83
-31.13
-34.64
-36.45
-35.74
-32.14
-25.83
-17.54
-8.28
0.95
9.36
16.49
22.11
26.16
28.58
29.41
28.77
26.97
24.54
22.02
19.87
18.36
17.50
17.10
16.95
16.78
16.43
15.74
14.54
12.72
10.25
7.20
3.68
-0.11
-3.97
-7.74
-11.31
-14.73
-18.13
-21.61
-25.30
-29.08
-32.50
-34.83
-35.24
-33.05
-28.04
-20.54
-11.42
-1.84
7.02
14.22
19.28
22.15
23.17
22.85
21.70
20.18
18.57
17.08
15.89
15.13
14.94
15.36
16.24
17.26
18.02
18.14
17.41
15.80
13.39
10.43
7.08
3.58
-0.01
-3.63
-7.29
-10.96
-14.64
-18.34
-22.05
-25.72
-29.16
-32.02
-33.72
-33.60
-31.12
-26.05
-18.75
-10.08
-1.22
6.71
12.96
17.25
19.71
20.60
20.15
18.52
15.86
12.45
8.81
5.54
3.20
2.07
2.01
2.63
3.43
3.96
3.99
3.49
2.51
1.08
-0.82
-3.20
-6.01
-9.12
-12.38
-15.67
-18.96
-22.22
-25.35
-28.03
-29.69
-29.72
-27.58
-23.11
-16.62
-8.78
-0.51
7.22
13.70
18.49
21.41
22.56
22.19
20.59
18.12
15.16
12.11
9.40
7.37
6.19
5.81
6.00
6.30
6.29
5.64
4.26
2.27
-0.12
-2.79
-5.71
-8.96
-12.69
-16.99
-21.81
-26.89
-31.76
-35.76
-38.16
-38.22
-35.46
-29.82
-21.79
-12.29
-2.51
6.43
13.73
18.99
22.18
23.53
23.34
22.01
19.92
17.46
15.03
12.92
11.28
10.15
9.42
8.88
8.30
7.53
6.43
4.98
3.13
0.89
-1.74
-4.78
-8.26
-12.23
-16.69
-21.61
-26.72
-31.50
-35.17
-36.78
-35.56
-31.16
-23.91
-14.63
-4.45
5.50
14.40
21.77
27.42
31.32
33.50
33.98
32.88
30.47
27.23
23.79
20.71
18.39
16.85
15.84
14.98
13.94
12.51
10.58
8.21
5.47
2.45
-0.76
-4.14
-7.73
-11.64
-16.08
-21.23
-26.94
-32.80
-38.01
-41.54
-42.39
-39.95
-34.14
-25.53
-15.27
-4.64
5.12
13.23
19.40
23.75
26.54
27.95
28.04
26.83
24.47
21.36
18.18
15.62
14.18
13.94
14.58
15.54
16.20
16.11
15.04
13.02
10.19
6.70
2.74
-1.48
-5.85
-10.30
-14.90
-19.73
-24.79
-29.82
-34.35
-37.56
-38.60
-36.77
-31.81
-23.98
-14.11
-3.37
6.95
15.72
22.25
26.32
28.17
28.29
27.19
25.29
22.91
20.29
17.77
15.75
14.52
14.21
14.63
15.34
15.71
15.31
13.89
11.53
8.46
4.99
1.34
-2.27
-5.77
-9.17
-12.60
-16.34
-20.64
-25.51
-30.71
-35.51
-38.94
-40.07
-38.26
-33.40
-25.94
-16.74
-6.78
2.92
11.59
18.68
23.83
26.89
27.95
27.29
25.35
22.74
20.02
17.66
15.98
15.02
14.62
14.58
14.53
14.19
13.33
11.83
9.73
7.11
4.15
0.99
-2.26
-5.59
-9.05
-12.79
-16.97
-21.58
-26.46
-31.18
-34.96
-36.96
-36.45
-33.08
-26.98
-18.80
-9.42
0.17
9.08
16.65
22.45
26.19
27.85
27.59
25.74
22.86
19.53
16.36
13.79
12.03
11.08
10.72
10.62
10.40
9.76
8.46
6.48
3.84
0.69
-2.75
-6.24
-9.63
-12.94
-16.36
-20.20
-24.74
-30.02
-35.74
-41.14
-45.17
-46.76
-45.19
-40.21
-32.21
-22.09
-11.02
-0.15
9.55
17.46
23.36
27.31
29.65
30.73
30.85
30.21
28.93
27.12
24.95
22.68
20.57
18.83
17.44
16.20
14.85
13.14
10.98
8.39
5.58
2.65
-0.29
-3.32
-6.61
-10.31
-14.58
-19.42
-24.78
-30.35
-35.72
-40.28
-43.21
-43.76
-41.34
-35.79
-27.46
-17.29
-6.45
3.84
12.67
19.60
24.62
27.99
29.99
30.89
30.81
29.91
28.43
26.69
25.00
23.58
22.49
21.68
21.09
20.64
20.22
19.67
18.73
17.11
14.64
11.29
7.30
2.99
-1.32
-5.46
-9.47
-13.52
-17.85
-22.68
-28.12
-34.06
-40.04
-45.22
-48.47
-48.69
-45.23
-38.10
-28.09
-16.53
-4.89
5.64
14.35
21.00
25.69
28.59
29.97
30.16
29.55
28.57
27.59
26.78
26.09
25.36
24.43
23.31
22.11
21.00
20.04
19.12
17.94
16.17
13.55
9.99
5.68
0.95
-3.80
-8.24
-12.24
-15.89
-19.45
-23.21
-27.37
-31.90
-36.48
-40.52
-43.17
-43.64
-41.26
-35.75
-27.41
-17.03
-5.87
4.75
13.75
20.46
24.72
26.79
27.18
26.44
25.05
23.36
21.58
19.86
18.33
17.09
16.28
15.96
16.08
16.46
16.75
16.57
15.62
13.76
10.99
7.47
3.36
-1.17
-5.92
-10.69
-15.25
-19.38
-23.06
-26.38
-29.57
-32.78
-35.87
-38.22
-38.93
-37.07
-32.12
-24.25
-14.37
-3.83
5.89
13.76
19.33
22.75
24.42
24.79
24.12
22.52
20.10
17.07
13.87
11.07
9.09
8.09
7.82
7.77
7.37
6.29
4.44
2.08
-0.48
-3.03
-5.54
-8.15
-11.08
-14.46
-18.29
-22.49
-26.86
-31.13
-34.99
-37.90
-39.23
-38.36
-34.88
-28.79
-20.54
-11.01
-1.23
7.76
15.17
20.52
23.73
24.93
24.47
22.75
20.20
17.28
14.38
11.89
10.04
8.92
8.42
8.27
8.10
7.63
6.69
5.23
3.30
0.98
-1.70
-4.77
-8.33
-12.47
-17.27
-22.72
-28.69
-34.86
-40.71
-45.58
-48.68
-49.24
-46.69
-40.94
-32.33
-21.71
-10.26
0.79
10.43
18.01
23.34
26.59
28.07
28.20
27.39
26.04
24.47
22.95
21.66
20.60
19.72
18.83
17.76
16.33
14.42
12.02
9.21
6.08
2.75
-0.79
-4.59
-8.72
-13.26
-18.19
-23.39
-28.66
-33.75
-38.20
-41.47
-42.82
-41.58
-37.35
-30.28
-21.03
-10.72
-0.53
8.58
16.01
21.55
25.34
27.58
28.50
28.38
27.49
26.10
24.55
23.08
21.85
20.94
20.30
19.82
19.34
18.64
17.52
15.82
13.37
10.14
6.15
1.63
-3.13
-7.78
-12.09
-16.15
-20.21
-24.71
-29.72
-34.94
-39.50
-42.18
-41.82
-37.76
-30.10
-19.70
-8.01
3.56
13.82
22.12
28.28
32.38
34.54
34.90
33.58
30.81
27.10
23.06
19.34
16.44
14.51
13.46
13.05
13.01
13.02
12.84
12.24
11.00
9.04
6.34
3.02
-0.81
-4.98
-9.38
-13.95
-18.62
-23.39
-28.20
-32.91
-37.09
-40.13
-41.16
-39.46
-34.64
-26.93
-17.18
-6.60
3.51
12.21
18.91
23.52
26.14
27.04
26.50
24.86
22.54
20.06
17.94
16.57
16.10
16.41
17.16
17.94
18.35
18.14
17.19
15.47
12.99
9.83
6.10
1.94
-2.44
-6.83
-11.07
-15.15
-19.17
-23.30
-27.42
-31.20
-33.95
-34.79
-32.95
-28.17
-20.80
-11.77
-2.32
6.46
13.80
19.31
22.90
24.64
24.59
22.92
19.97
16.29
12.57
9.49
7.50
6.76
7.11
8.13
9.28
10.05
10.03
9.03
7.04
4.27
0.99
-2.55
-6.26
-10.15
-14.35
-18.97
-23.94
-28.98
-33.62
-37.15
-38.83
-37.99
-34.26
-27.75
-19.09
-9.24
0.65
9.51
16.55
21.37
23.84
24.13
22.59
19.73
16.15
12.46
9.22
6.77
5.23
4.48
4.29
4.35
4.42
4.29
3.81
2.84
1.24
-1.10
-4.26
-8.21
-12.90
-18.22
-24.03
-30.02
-35.66
-40.18
-42.68
-42.35
-38.82
-32.27
-23.44
-13.40
-3.28
6.08
14.07
20.40
24.87
27.41
27.99
26.72
23.98
20.42
16.86
13.98
12.18
11.41
11.27
11.18
10.67
9.59
7.96
6.04
3.92
1.60
-1.10
-4.34
-8.25
-12.88
-18.17
-23.98
-29.88
-35.22
-39.11
-40.61
-39.06
-34.20
-26.48
-16.79
-6.41
3.45
11.80
18.16
22.44
24.90
26.02
26.17
25.61
24.43
22.75
20.78
18.87
17.34
16.39
15.99
15.85
15.60
14.90
13.61
11.83
9.70
7.40
4.92
2.12
-1.17
-5.12
-9.83
-15.28
-21.20
-27.21
-32.57
-36.38
-37.71
-35.92
-30.82
-22.89
-13.18
-2.93
6.68
14.87
21.28
25.95
29.01
30.64
31.00
30.18
28.36
25.87
23.20
20.85
19.22
18.47
18.43
18.68
18.74
18.13
16.56
13.94
10.36
6.02
1.25
-3.64
-8.34
-12.70
-16.83
-21.03
-25.63
-30.70
-35.86
-40.24
-42.77
-42.50
-38.95
-32.30
-23.29
-13.03
-2.63
6.92
14.83
20.68
24.35
25.98
25.92
24.62
22.53
20.04
17.51
15.20
13.40
12.26
11.79
11.81
12.04
12.15
11.92
11.17
9.85
7.94
5.48
2.58
-0.63
-4.04
-7.65
-11.56
-15.94
-20.88
-26.21
-31.45
-35.81
-38.27
-37.98
-34.48
-27.85
-18.74
-8.29
2.22
11.60
19.01
24.10
26.87
27.63
26.77
24.72
21.88
18.72
15.70
13.29
11.80
11.27
11.43
11.71
11.59
10.63
8.74
6.13
3.08
-0.20
-3.69
-7.47
-11.70
-16.39
-21.44
-26.61
-31.65
-36.24
-39.96
-42.18
-42.15
-39.17
-32.94
-23.81
-12.79
-1.32
9.12
17.47
23.33
26.89
28.71
29.34
29.13
28.20
26.58
24.43
22.16
20.29
19.28
19.21
19.80
20.39
20.30
19.08
16.69
13.45
9.80
5.99
2.06
-2.19
-7.01
-12.51
-18.62
-25.05
-31.47
-37.41
-42.40
-45.72
-46.62
-44.46
-38.87
-30.09
-18.89
-6.52
5.69
16.57
25.37
31.81
35.94
38.07
38.56
37.82
36.18
33.99
31.60
29.29
27.34
25.83
24.78
24.00
23.27
22.32
20.97
19.08
16.58
13.50
9.88
5.88
1.66
-2.60
-6.75
-10.75
-14.65
-18.62
-22.76
-27.05
-31.08
-34.21
-35.66
-34.73
-31.07
-24.88
-16.91
-8.26
-0.10
6.56
11.21
13.72
14.31
13.41
11.44
8.77
5.76
2.72
0.03
-1.93
-2.87
-2.70
-1.60
0.01
1.58
2.65
2.86
2.16
0.68
-1.33
-3.63
-6.08
-8.64
-11.42
-14.47
-17.84
-21.37
-24.72
-27.33
-28.54
-27.64
-24.11
-17.86
-9.25
0.80
11.17
20.63
28.19
33.19
35.42
34.96
32.21
27.84
22.67
17.61
13.44
10.63
9.29
9.13
9.60
10.09
10.16
9.47
7.97
5.74
2.91
-0.37
-4.07
-8.17
-12.70
-17.64
-22.97
-28.54
-34.15
-39.36
-43.54
-45.84
-45.46
-41.91
-35.26
-26.19
-15.84
-5.42
4.09
12.15
18.51
23.13
25.93
26.82
25.87
23.45
20.21
16.92
14.25
12.53
11.67
11.28
10.93
10.33
9.39
8.19
6.92
5.68
4.44
3.02
1.12
-1.61
-5.46
-10.58
-16.75
-23.39
-29.49
-33.94
-35.68
-34.10
-29.17
-21.43
-11.84
-1.51
8.55
17.49
24.69
29.81
32.66
33.31
32.08
29.52
26.34
23.21
20.70
19.12
18.42
18.33
18.44
18.36
17.84
16.79
15.20
13.12
10.52
7.25
3.20
-1.78
-7.66
-14.32
-21.46
-28.64
-35.17
-40.17
-42.63
-41.75
-37.22
-29.38
-19.26
-8.17
2.47
11.60
18.55
22.97
24.85
24.31
21.69
17.60
12.83
8.19
4.38
1.77
0.40
0.02
0.23
0.59
0.78
0.53
-0.25
-1.50
-3.12
-4.96
-6.95
-9.11
-11.56
-14.49
-18.03
-22.11
-26.34
-30.01
-32.23
-32.09
-29.01
-22.94
-14.42
-4.48
5.65
14.82
22.06
26.79
28.77
28.12
25.28
20.99
16.19
11.79
8.51
6.67
6.24
6.80
7.86
8.93
9.68
9.91
9.56
8.65
7.20
5.30
2.93
0.14
-3.07
-6.78
-11.06
-15.97
-21.25
-26.42
-30.58
-32.80
-32.27
-28.64
-22.23
-13.91
-4.98
3.35
10.08
14.69
17.06
17.37
15.95
13.21
9.63
5.71
2.07
-0.78
-2.44
-2.86
-2.31
-1.33
-0.53
-0.35
-0.99
-2.38
-4.37
-6.77
-9.59
-12.94
-16.93
-21.57
-26.62
-31.56
-35.66
-38.12
-38.20
-35.39
-29.62
-21.24
-10.99
0.05
10.73
20.03
27.10
31.47
32.98
31.78
28.26
23.09
17.07
11.12
6.03
2.28
0.04
-0.89
-0.98
-0.72
-0.59
-0.87
-1.71
-3.16
-5.25
-8.02
-11.54
-15.87
-20.94
-26.53
-32.22
-37.37
-41.13
-42.69
-41.38
-37.02
-29.95
-21.09
-11.70
-2.98
4.25
9.71
13.59
16.24
17.93
18.79
18.86
18.25
17.21
16.13
15.25
14.61
13.95
12.87
11.08
8.51
5.31
1.83
-1.70
-5.21
-8.79
-12.68
-17.08
-22.03
-27.35
-32.51
-36.64
-38.76
-37.94
-33.59
-25.80
-15.38
-3.62
7.98
18.24
26.45
32.44
36.31
38.28
38.40
36.82
33.75
29.66
25.18
20.90
17.19
14.07
11.39
8.82
6.24
3.65
1.12
-1.22
-3.33
-5.25
-7.06
-8.88
-10.90
-13.29
-16.25
-19.87
-23.99
-28.12
-31.44
-32.95
-31.78
-27.45
-20.10
-10.52
0.05
10.30
19.14
26.03
30.80
33.71
35.09
35.29
34.59
33.22
31.45
29.54
27.75
26.23
25.04
24.09
23.17
22.00
20.28
17.80
14.57
10.79
6.82
3.00
-0.53
-3.85
-7.28
-11.18
-15.75
-20.82
-25.88
-30.09
-32.54
-32.47
-29.50
-23.74
-15.76
-6.51
2.93
11.52
18.47
23.36
26.10
26.85
25.92
23.69
20.54
17.00
13.64
11.06
9.66
9.50
10.22
11.13
11.56
11.07
9.59
7.32
4.60
1.69
-1.39
-4.65
-8.17
-11.85
-15.62
-19.45
-23.45
-27.72
-32.08
-35.94
-38.25
-37.88
-34.05
-26.77
-16.92
-5.99
4.48
13.38
20.19
24.96
27.88
29.14
28.76
26.82
23.61
19.76
16.07
13.28
11.81
11.57
12.08
12.70
12.86
12.27
10.94
9.08
6.93
4.61
2.12
-0.69
-3.91
-7.55
-11.51
-15.66
-19.84
-23.97
-27.85
-31.02
-32.76
-32.13
-28.37
-21.30
-11.48
-0.21
10.84
20.20
26.91
30.79
32.19
31.71
29.82
26.82
22.85
18.15
13.24
8.82
5.61
3.97
3.82
4.55
5.43
5.81
5.35
4.12
2.34
0.22
-2.17
-4.94
-8.28
-12.28
-16.91
-22.07
-27.54
-32.98
-37.92
-41.72
-43.67
-43.12
-39.73
-33.64
-25.49
-16.27
-7.05
1.29
8.18
13.37
16.82
18.55
18.72
17.54
15.37
12.63
9.76
7.13
5.00
3.51
2.68
2.36
2.24
1.92
1.00
-0.67
-3.05
-5.80
-8.55
-11.09
-13.45
-15.96
-18.95
-22.51
-26.36
-29.75
-31.70
-31.37
-28.21
-22.23
-13.98
-4.42
5.40
14.47
22.04
27.67
31.16
32.60
32.23
30.34
27.34
23.66
19.84
16.39
13.78
12.30
11.94
12.44
13.28
13.91
13.88
12.97
11.18
8.62
5.42
1.68
-2.60
-7.33
-12.39
-17.67
-22.96
-28.05
-32.64
-36.28
-38.37
-38.28
-35.52
-29.92
-21.91
-12.36
-2.50
6.50
13.73
18.85
21.94
23.38
23.65
23.07
21.85
20.14
18.10
16.04
14.30
13.19
12.81
13.00
13.35
13.45
12.97
11.78
10.02
7.93
5.72
3.47
1.12
-1.55
-4.80
-8.80
-13.62
-19.11
-24.90
-30.39
-34.79
-37.19
-36.85
-33.35
-26.78
-17.76
-7.41
2.96
12.12
19.20
23.88
26.24
26.74
25.93
24.31
22.26
20.03
17.79
15.71
13.98
12.80
12.25
12.27
12.57
12.70
12.19
10.69
8.11
4.65
0.75
-3.21
-6.93
-10.37
-13.63
-16.88
-20.29
-23.95
-27.78
-31.53
-34.67
-36.39
-35.79
-32.10
-25.11
-15.43
-4.35
6.47
15.50
21.87
25.42
26.55
25.87
23.89
20.94
17.28
13.33
9.64
6.93
5.66
5.87
7.08
8.57
9.65
9.84
9.11
7.64
5.70
3.49
1.07
-1.55
-4.40
-7.55
-11.13
-15.33
-20.26
-25.77
-31.32
-35.97
-38.59
-38.25
-34.55
-27.76
-18.71
-8.59
1.46
10.52
18.00
23.61
27.25
28.94
28.79
27.07
24.19
20.70
17.21
14.22
12.04
10.76
10.20
10.03
9.88
9.35
8.15
6.21
3.61
0.59
-2.53
-5.54
-8.39
-11.29
-14.56
-18.50
-23.17
-28.29
-33.18
-36.93
-38.62
-37.51
-33.27
-26.12
-16.75
-6.28
4.04
13.11
20.17
24.88
27.29
27.67
26.33
23.60
19.88
15.68
11.62
8.30
6.06
4.88
4.34
3.83
2.79
0.95
-1.64
-4.73
-8.03
-11.38
-14.78
-18.34
-22.19
-26.44
-31.09
-36.03
-40.94
-45.29
-48.30
-49.12
-46.96
-41.48
-32.82
-21.75
-9.46
2.72
13.53
21.96
27.47
29.92
29.56
26.89
22.60
17.40
12.00
7.02
2.90
-0.06
-1.78
-2.48
-2.52
-2.37
-2.46
-3.04
-4.15
-5.70
-7.51
-9.55
-11.95
-15.00
-19.01
-24.17
-30.24
-36.41
-41.47
-44.09
-43.28
-38.68
-30.70
-20.38
-9.07
1.97
11.73
19.59
25.25
28.69
30.08
29.75
28.11
25.64
22.82
20.10
17.80
16.10
14.96
14.19
13.51
12.65
11.49
10.07
8.43
6.61
4.54
2.04
-1.16
-5.28
-10.48
-16.73
-23.65
-30.49
-36.15
-39.41
-39.23
-35.15
-27.37
-16.87
-5.12
6.35
16.28
24.00
29.37
32.70
34.41
34.91
34.46
33.19
31.31
29.04
26.79
24.87
23.45
22.42
21.42
20.04
17.97
15.28
12.11
8.87
5.78
2.89
-0.05
-3.41
-7.57
-12.68
-18.54
-24.74
-30.46
-34.77
-36.68
-35.45
-30.84
-23.16
-13.32
-2.58
7.79
16.81
23.87
28.84
31.90
33.31
33.39
32.40
30.63
28.33
25.84
23.49
21.60
20.50
20.28
20.81
21.64
22.15
21.71
19.91
16.73
12.45
7.59
2.61
-2.17
-6.71
-11.11
-15.59
-20.37
-25.53
-31.02
-36.52
-41.42
-44.82
-45.74
-43.34
-37.27
-27.87
-16.13
-3.49
8.57
18.85
26.67
31.81
34.51
35.15
34.26
32.31
29.79
27.09
24.55
22.42
20.81
19.77
19.26
19.14
19.17
19.03
18.32
16.73
14.07
10.36
5.86
0.93
-4.06
-8.84
-13.36
-17.73
-22.22
-27.04
-32.19
-37.38
-41.97
-45.03
-45.56
-42.81
-36.54
-27.11
-15.49
-3.03
8.89
19.10
26.89
32.07
34.84
35.64
35.00
33.38
31.13
28.52
25.80
23.24
21.17
19.84
19.34
19.51
19.97
20.22
19.80
18.40
15.97
12.62
8.61
4.24
-0.29
-4.80
-9.29
-13.83
-18.58
-23.61
-28.97
-34.40
-39.38
-43.15
-44.79
-43.42
-38.56
-30.27
-19.29
-6.91
5.31
15.97
24.13
29.49
32.26
32.93
32.04
30.04
27.29
24.14
20.97
18.17
16.06
14.76
14.18
14.08
14.08
13.86
13.15
11.86
9.97
7.59
4.88
1.94
-1.16
-4.43
-7.94
-11.82
-16.14
-20.95
-26.16
-31.46
-36.29
-39.89
-41.39
-40.03
-35.49
-27.98
-18.26
-7.51
3.00
12.20
19.33
24.10
26.54
26.87
25.47
22.73
19.10
15.12
11.38
8.41
6.59
5.94
6.21
6.90
7.42
7.27
6.18
4.10
1.12
-2.50
-6.55
-10.77
-14.97
-19.10
-23.20
-27.40
-31.82
-36.41
-40.78
-44.14
-45.49
-43.84
-38.65
-30.03
-18.85
-6.50
5.46
15.78
23.70
29.00
31.84
32.50
31.30
28.54
24.61
20.12
15.79
12.35
10.29
9.66
10.07
10.89
11.41
11.16
9.99
8.02
5.47
2.48
-0.90
-4.82
-9.38
-14.59
-20.39
-26.58
-32.95
-39.19
-44.77
-48.92
-50.64
-48.98
-43.38
-34.10
-22.16
-9.20
3.10
13.44
21.23
26.54
29.83
31.59
32.14
31.62
30.12
27.82
25.08
22.34
20.03
18.35
17.24
16.41
15.48
14.13
12.23
9.87
7.21
4.33
1.24
-2.18
-6.04
-10.44
-15.29
-20.46
-25.82
-31.28
-36.68
-41.65
-45.54
-47.47
-46.54
-42.22
-34.56
-24.28
-12.65
-1.14
9.09
17.28
23.30
27.36
29.82
30.96
30.94
29.86
27.91
25.45
22.94
20.92
19.73
19.41
19.71
20.08
19.98
18.99
16.96
14.02
10.47
6.59
2.49
-1.82
-6.42
-11.28
-16.35
-21.54
-26.81
-32.14
-37.41
-42.25
-45.91
-47.46
-45.98
-40.97
-32.54
-21.56
-9.34
2.62
13.02
21.04
26.45
29.49
30.70
30.61
29.64
28.04
26.00
23.74
21.63
19.99
19.01
18.70
18.77
18.85
18.53
17.59
15.89
13.46
10.39
6.79
2.80
-1.44
-5.80
-10.21
-14.62
-19.11
-23.80
-28.81
-34.13
-39.43
-44.01
-46.87
-46.95
-43.49
-36.36
-26.24
-14.39
-2.32
8.63
17.59
24.24
28.67
31.14
31.92
31.29
29.49
26.85
23.75
20.62
17.85
15.78
14.58
14.28
14.68
15.40
15.91
15.68
14.35
11.80
8.20
3.91
-0.70
-5.35
-9.94
-14.49
-19.12
-23.97
-29.13
-34.57
-40.00
-44.83
-48.13
-48.90
-46.23
-39.78
-29.90
-17.69
-4.72
7.40
17.35
24.43
28.56
30.12
29.72
28.05
25.67
23.00
20.44
18.32
16.94
16.43
16.76
17.61
18.53
19.06
18.82
17.69
15.75
13.24
10.37
7.30
4.03
0.46
-3.45
-7.75
-12.35
-17.21
-22.25
-27.34
-32.27
-36.56
-39.55
-40.37
-38.29
-32.94
-24.59
-14.14
-2.93
7.57
16.22
22.46
26.29
28.07
28.28
27.24
25.12
22.04
18.24
14.12
10.25
7.09
4.87
3.52
2.77
2.25
1.72
1.04
0.19
-0.83
-2.05
-3.55
-5.48
-7.94
-11.00
-14.66
-18.89
-23.59
-28.61
-33.68
-38.25
-41.56
-42.73
-40.93
-35.76
-27.47
-16.95
-5.53
5.35
14.60
21.61
26.31
28.94
29.82
29.19
27.26
24.30
20.77
17.34
14.67
13.21
12.97
13.51
14.14
14.09
12.88
10.30
6.54
1.92
-3.13
-8.24
-13.24
-18.08
-22.95
-28.08
-33.64
-39.40
-44.80
-48.84
-50.41
-48.65
-43.21
-34.38
-23.04
-10.49
1.92
12.99
21.83
27.96
31.32
32.16
30.98
28.41
25.10
21.64
18.58
16.28
14.89
14.31
14.18
14.07
13.50
12.24
10.27
7.76
4.97
2.08
-0.93
-4.16
-7.80
-12.01
-16.82
-21.97
-27.04
-31.37
-34.07
-34.34
-31.57
-25.62
-16.97
-6.62
4.10
13.91
21.86
27.53
30.94
32.37
32.13
30.52
27.82
24.40
20.74
17.42
14.95
13.54
13.12
13.31
13.60
13.45
12.51
10.65
7.96
4.68
1.02
-2.84
-6.80
-10.87
-15.09
-19.53
-24.22
-29.09
-33.83
-37.88
-40.47
-40.73
-37.95
-31.83
-22.66
-11.37
0.61
11.85
21.11
27.71
31.51
32.80
31.98
29.44
25.58
20.88
16.11
12.17
9.96
9.95
11.98
15.29
18.78
21.39
22.47
21.95
20.06
17.25
13.88
10.10
5.92
1.27
-3.87
-9.49
-15.44
-21.48
-27.12
-31.65
-34.24
-34.11
-30.85
-24.50
-15.74
-5.59
4.70
14.05
21.67
27.09
30.13
30.83
29.35
26.06
21.51
16.44
11.71
8.13
6.23
6.12
7.40
9.35
11.16
12.20
12.14
11.03
9.07
6.56
3.73
0.73
-2.44
-5.93
-9.92
-14.61
-20.03
-25.89
-31.52
-36.00
-38.35
-37.81
-34.17
-27.76
-19.37
-10.05
-0.84
7.34
13.84
18.24
20.38
20.23
18.10
14.46
9.99
5.48
1.69
-0.76
-1.60
-0.90
0.84
2.99
4.87
6.05
6.35
5.92
4.98
3.72
2.16
0.15
-2.46
-5.79
-9.82
-14.41
-19.28
-23.99
-27.94
-30.41
-30.63
-28.03
-22.43
-14.24
-4.40
5.81
15.07
22.34
27.00
28.90
28.20
25.29
20.69
15.06
9.17
3.82
-0.27
-2.71
-3.50
-3.04
-1.99
-1.03
-0.64
-1.04
-2.17
-3.88
-6.03
-8.58
-11.65
-15.38
-19.88
-25.04
-30.50
-35.56
-39.34
-40.89
-39.45
-34.76
-27.09
-17.28
-6.57
3.78
12.65
19.28
23.30
24.69
23.68
20.70
16.38
11.41
6.52
2.36
-0.69
-2.53
-3.38
-3.67
-3.90
-4.47
-5.57
-7.22
-9.31
-11.70
-14.38
-17.45
-21.06
-25.35
-30.24
-35.37
-40.00
-43.19
-43.86
-41.21
-35.03
-25.71
-14.30
-2.22
9.11
18.62
25.65
30.00
31.79
31.30
28.95
25.29
20.97
16.65
12.93
10.13
8.27
7.08
6.12
5.00
3.46
1.48
-0.84
-3.40
-6.19
-9.25
-12.82
-17.07
-22.09
-27.70
-33.29
-38.02
-40.75
-40.53
-36.72
-29.39
-19.31
-7.78
3.66
13.68
21.43
26.59
29.25
29.75
28.55
26.06
22.83
19.41
16.39
14.16
12.89
12.40
12.27
12.05
11.31
9.88
7.73
5.02
1.85
-1.77
-5.90
-10.73
-16.25
-22.28
-28.23
-33.22
-36.22
-36.34
-33.16
-26.82
-18.06
-7.91
2.46
12.12
20.38
26.89
31.47
34.06
34.72
33.61
31.10
27.76
24.24
21.13
18.80
17.34
16.55
16.04
15.36
14.14
12.26
9.81
7.02
4.12
1.18
-1.93
-5.48
-9.75
-14.87
-20.65
-26.46
-31.38
-34.31
-34.27
-30.74
-23.82
-14.29
-3.38
7.51
17.29
25.22
31.10
35.04
37.26
38.01
37.48
35.91
33.58
30.87
28.12
25.70
23.84
22.54
21.62
20.67
19.30
17.23
14.37
10.91
7.19
3.48
-0.08
-3.65
-7.53
-12.05
-17.32
-23.16
-29.06
-34.30
-38.04
-39.48
-38.04
-33.51
-26.19
-16.90
-6.73
3.09
11.58
18.19
22.78
25.49
26.60
26.33
24.90
22.60
19.81
17.03
14.72
13.20
12.47
12.31
12.25
11.83
10.72
8.84
6.32
3.38
0.28
-2.86
-6.01
-9.33
-13.03
-17.29
-22.20
-27.57
-32.95
-37.49
-40.15
-39.93
-36.24
-29.17
-19.55
-8.79
1.65
10.56
17.40
22.16
25.18
26.82
27.23
26.45
24.52
21.70
18.47
15.43
13.12
11.79
11.36
11.45
11.49
11.01
9.76
7.70
5.02
1.93
-1.40
-4.95
-8.79
-13.07
-17.90
-23.31
-29.19
-35.16
-40.63
-44.70
-46.41
-45.02
-40.20
-32.27
-22.06
-10.74
0.54
10.91
19.77
26.84
31.97
35.12
36.37
35.95
34.24
31.70
28.79
25.90
23.28
21.05
19.25
17.73
16.34
14.87
13.16
11.13
8.77
6.18
3.43
0.54
-2.54
-5.90
-9.64
-13.81
-18.38
-23.29
-28.41
-33.44
-37.92
-41.18
-42.38
-40.81
-36.09
-28.44
-18.62
-7.79
2.85
12.30
20.01
25.78
29.66
31.81
32.41
31.74
30.16
28.09
25.91
23.91
22.24
20.98
20.13
19.70
19.67
19.93
20.23
20.21
19.53
17.90
15.20
11.53
7.09
2.20
-2.87
-7.89
-12.74
-17.38
-21.92
-26.53
-31.42
-36.60
-41.71
-45.96
-48.27
-47.59
-43.34
-35.71
-25.59
-14.33
-3.30
6.46
14.42
20.43
24.59
27.10
28.19
28.21
27.56
26.74
26.08
25.77
25.73
25.70
25.44
24.78
23.77
22.56
21.32
20.13
18.86
17.28
15.13
12.23
8.59
4.40
-0.08
-4.52
-8.70
-12.50
-15.97
-19.31
-22.84
-26.86
-31.50
-36.57
-41.49
-45.33
-47.06
-45.90
-41.48
-34.10
-24.53
-13.92
-3.49
5.77
13.18
18.43
21.57
22.88
22.81
21.84
20.42
18.85
17.33
15.94
14.72
13.74
13.06
12.77
12.92
13.37
13.86
14.02
13.48
12.00
9.51
6.16
2.23
-1.91
-5.95
-9.74
-13.31
-16.85
-20.56
-24.55
-28.74
-32.87
-36.41
-38.73
-39.17
-37.14
-32.38
-25.04
-15.84
-5.92
3.38
10.95
16.20
19.15
20.26
20.06
18.95
17.08
14.50
11.36
8.10
5.36
3.74
3.58
4.68
6.42
7.97
8.61
7.94
5.97
3.05
-0.39
-3.99
-7.62
-11.32
-15.21
-19.40
-23.90
-28.61
-33.31
-37.73
-41.42
-43.83
-44.28
-42.15
-37.11
-29.32
-19.45
-8.60
1.96
11.13
18.17
22.83
25.33
26.14
25.80
24.77
23.28
21.45
19.37
17.17
15.12
13.49
12.48
12.06
11.97
11.81
11.16
9.78
7.57
4.68
1.26
-2.51
-6.51
-10.67
-15.02
-19.57
-24.35
-29.38
-34.54
-39.56
-43.89
-46.77
-47.33
-44.85
-39.05
-30.25
-19.37
-7.75
3.24
12.51
19.50
24.19
26.98
28.39
28.82
28.53
27.59
26.04
24.03
21.87
19.96
18.66
18.04
17.88
17.70
16.99
15.45
13.10
10.23
7.18
4.15
1.12
-2.05
-5.58
-9.57
-14.05
-19.06
-24.58
-30.45
-36.27
-41.30
-44.53
-45.02
-42.17
-35.93
-26.83
-15.86
-4.26
6.75
16.17
23.31
27.91
30.15
30.51
29.63
28.10
26.27
24.30
22.22
20.13
18.19
16.69
15.78
15.46
15.50
15.53
15.15
14.06
12.16
9.48
6.15
2.34
-1.80
-6.06
-10.32
-14.53
-18.72
-23.02
-27.48
-31.94
-35.96
-38.76
-39.48
-37.39
-32.22
-24.25
-14.39
-3.90
5.92
14.05
19.97
23.70
25.59
26.11
25.68
24.54
22.79
20.56
18.10
15.76
13.92
12.83
12.51
12.73
13.07
13.09
12.46
10.97
8.64
5.57
1.95
-2.04
-6.16
-10.29
-14.34
-18.32
-22.40
-26.65
-31.08
-35.40
-39.00
-41.05
-40.67
-37.26
-30.76
-21.72
-11.22
-0.57
9.01
16.69
22.05
25.07
25.93
24.90
22.32
18.66
14.50
10.54
7.39
5.43
4.70
4.92
5.55
6.06
6.03
5.26
3.78
1.75
-0.68
-3.41
-6.45
-9.91
-13.90
-18.48
-23.59
-29.01
-34.28
-38.74
-41.55
-41.88
-39.09
-33.03
-24.25
-13.82
-3.11
6.65
14.66
20.64
24.69
27.07
28.01
27.65
26.16
23.83
21.17
18.69
16.80
15.62
15.01
14.64
14.17
13.35
12.04
10.21
7.80
4.82
1.27
-2.76
-7.11
-11.65
-16.38
-21.39
-26.79
-32.50
-38.07
-42.68
-45.28
-44.94
-41.12
-33.94
-24.14
-12.88
-1.49
8.89
17.46
23.87
28.16
30.58
31.49
31.19
29.91
27.86
25.37
22.83
20.71
19.38
18.93
19.16
19.53
19.49
18.59
16.74
14.01
10.72
7.12
3.41
-0.44
-4.55
-9.03
-14.02
-19.55
-25.58
-31.78
-37.62
-42.20
-44.47
-43.49
-38.71
-30.36
-19.34
-7.14
4.70
14.90
22.72
28.01
31.01
32.17
31.90
30.56
28.51
26.11
23.68
21.54
19.94
18.95
18.49
18.33
18.16
17.63
16.48
14.60
12.08
9.13
5.99
2.79
-0.56
-4.22
-8.51
-13.62
-19.54
-25.95
-32.21
-37.47
-40.76
-41.23
-38.40
-32.30
-23.55
-13.16
-2.31
7.89
16.67
23.57
28.41
31.22
32.12
31.39
29.44
26.75
23.84
21.19
19.11
17.73
17.02
16.82
16.79
16.53
15.63
13.84
11.14
7.76
4.05
0.37
-3.10
-6.39
-9.73
-13.40
-17.59
-22.31
-27.38
-32.36
-36.55
-39.13
-39.27
-36.40
-30.45
-21.93
-11.89
-1.66
7.51
14.72
19.61
22.21
22.86
21.94
19.83
16.93
13.66
10.56
8.10
6.65
6.24
6.62
7.31
7.75
7.56
6.57
4.81
2.47
-0.25
-3.24
-6.46
-9.98
-13.93
-18.42
-23.47
-28.88
-34.19
-38.70
-41.53
-41.87
-39.19
-33.42
-25.01
-14.88
-4.08
6.22
15.11
21.89
26.26
28.21
27.94
25.89
22.56
18.59
14.61
11.21
8.82
7.58
7.35
7.68
8.02
7.90
7.04
5.43
3.23
0.64
-2.28
-5.58
-9.47
-14.19
-19.86
-26.38
-33.25
-39.63
-44.40
-46.39
-44.71
-39.06
-29.84
-18.17
-5.58
6.42
16.60
24.32
29.44
32.18
32.97
32.24
30.40
27.89
25.17
22.70
20.79
19.58
18.96
18.62
18.21
17.37
15.86
13.64
10.78
7.46
3.88
0.14
-3.77
-8.00
-12.79
-18.36
-24.66
-31.39
-37.78
-42.75
-45.21
-44.21
-39.41
-31.12
-20.33
-8.38
3.29
13.59
21.86
27.88
31.81
33.96
34.65
34.16
32.82
30.88
28.69
26.55
24.74
23.41
22.56
22.03
21.54
20.77
19.42
17.33
14.44
10.88
6.82
2.50
-1.92
-6.33
-10.73
-15.21
-19.91
-24.98
-30.51
-36.31
-41.88
-46.38
-48.72
-47.91
-43.37
-35.22
-24.31
-12.02
0.20
11.13
20.04
26.64
31.01
33.33
33.92
33.16
31.56
29.72
28.16
27.21
26.85
26.91
27.01
26.90
26.40
25.48
24.11
22.24
19.76
16.58
12.71
8.22
3.37
-1.59
-6.37
-10.75
-14.64
-18.06
-21.25
-24.59
-28.43
-32.86
-37.48
-41.42
-43.49
-42.64
-38.29
-30.67
-20.74
-9.88
0.56
9.60
16.68
21.64
24.60
25.77
25.52
24.28
22.57
20.87
19.57
18.92
18.91
19.48
20.45
21.68
22.90
23.85
24.16
23.49
21.69
18.73
14.78
10.05
4.78
-0.84
-6.63
-12.45
-18.15
-23.59
-28.71
-33.37
-37.45
-40.66
-42.54
-42.50
-39.99
-34.75
-26.90
-17.12
-6.50
3.73
12.46
19.03
23.25
25.31
25.62
24.59
22.51
19.66
16.34
12.95
10.00
7.98
7.17
7.49
8.53
9.54
9.82
8.85
6.49
3.04
-1.00
-5.13
-9.10
-12.86
-16.64
-20.64
-25.01
-29.76
-34.70
-39.46
-43.45
-45.91
-45.99
-43.04
-36.75
-27.44
-16.07
-4.00
7.31
16.69
23.55
27.83
29.91
30.31
29.44
27.60
25.04
22.01
18.95
16.32
14.50
13.55
13.24
13.10
12.58
11.30
9.10
6.06
2.45
-1.48
-5.51
-9.55
-13.65
-17.96
-22.66
-27.87
-33.56
-39.45
-44.91
-49.02
-50.69
-49.02
-43.52
-34.42
-22.62
-9.56
3.11
13.97
22.13
27.37
30.03
30.78
30.31
29.14
27.57
25.72
23.73
21.75
20.00
18.68
17.87
17.42
17.05
16.40
15.19
13.28
10.68
7.52
3.91
-0.02
-4.24
-8.75
-13.57
-18.80
-24.51
-30.69
-37.06
-42.98
-47.43
-49.24
-47.44
-41.61
-32.18
-20.29
-7.55
4.53
14.80
22.75
28.30
31.68
33.14
32.95
31.40
28.89
25.95
23.17
21.04
19.80
19.38
19.50
19.74
19.69
19.07
17.71
15.52
12.53
8.81
4.58
0.08
-4.45
-8.85
-13.12
-17.45
-22.13
-27.33
-32.96
-38.43
-42.78
-44.83
-43.61
-38.74
-30.50
-19.90
-8.29
2.94
12.74
20.50
26.04
29.52
31.25
31.61
30.92
29.49
27.59
25.53
23.66
22.26
21.46
21.17
21.13
20.98
20.46
19.42
17.81
15.63
12.82
9.31
5.04
0.15
-5.09
-10.34
-15.37
-20.16
-24.91
-29.89
-35.16
-40.38
-44.81
-47.40
-47.13
-43.30
-35.85
-25.40
-13.16
-0.61
10.90
20.41
27.41
31.83
33.85
33.79
32.05
29.03
25.20
21.07
17.12
13.77
11.30
9.78
9.12
9.02
9.13
9.10
8.65
7.75
6.44
4.86
3.06
0.96
-1.60
-4.80
-8.78
-13.62
-19.28
-25.57
-32.10
-38.22
-43.03
-45.52
-44.83
-40.54
-32.87
-22.65
-11.12
0.34
10.57
18.77
24.57
27.96
29.16
28.43
26.16
22.70
18.55
14.24
10.31
7.24
5.26
4.38
4.35
4.77
5.13
5.07
4.34
2.82
0.54
-2.41
-5.90
-9.80
-14.03
-18.66
-23.74
-29.29
-35.06
-40.40
-44.40
-45.95
-44.18
-38.67
-29.76
-18.37
-5.90
6.19
16.70
24.78
30.16
32.98
33.62
32.56
30.24
26.99
23.13
19.09
15.41
12.67
11.25
11.13
11.82
12.56
12.54
11.29
8.81
5.45
1.70
-2.12
-6.01
-10.17
-14.93
-20.43
-26.62
-33.17
-39.60
-45.25
-49.31
-50.91
-49.26
-43.93
-35.06
-23.45
-10.45
2.33
13.50
22.21
28.22
31.77
33.33
33.30
31.97
29.58
26.41
22.92
19.64
17.08
15.46
14.74
14.53
14.39
13.94
12.99
11.51
9.59
7.29
4.54
1.20
-2.87
-7.70
-13.24
-19.29
-25.61
-31.92
-37.85
-42.82
-46.06
-46.63
-43.76
-37.13
-27.15
-14.94
-2.09
9.85
19.72
26.98
31.69
34.19
34.91
34.22
32.37
29.66
26.50
23.32
20.62
18.69
17.59
17.15
17.08
17.02
16.69
15.91
14.57
12.65
10.11
6.99
3.32
-0.78
-5.18
-9.78
-14.59
-19.77
-25.45
-31.62
-37.88
-43.43
-47.16
-47.95
-45.04
-38.30
-28.38
-16.41
-3.87
7.87
17.74
25.16
30.03
32.56
33.19
32.41
30.75
28.63
26.44
24.46
22.92
21.93
21.42
21.18
20.88
20.16
18.68
16.29
13.01
9.05
4.72
0.35
-3.78
-7.54
-10.89
-14.00
-17.09
-20.44
-24.37
-28.89
-33.71
-38.12
-41.08
-41.52
-38.67
-32.37
-23.22
-12.40
-1.40
8.40
16.07
21.20
23.94
24.68
23.92
22.04
19.39
16.26
13.04
10.22
8.28
7.55
8.02
9.29
10.65
11.36
10.84
8.87
5.64
1.53
-3.01
-7.66
-12.32
-17.03
-21.92
-27.11
-32.58
-38.07
-43.10
-46.93
-48.71
-47.66
-43.28
-35.56
-25.03
-12.78
-0.18
11.35
20.71
27.33
31.17
32.54
31.94
29.83
26.62
22.75
18.74
15.20
12.69
11.49
11.48
12.15
12.78
12.73
11.67
9.58
6.67
3.16
-0.79
-5.16
-10.02
-15.43
-21.40
-27.85
-34.62
-41.32
-47.34
-51.86
-53.90
-52.59
-47.47
-38.70
-27.17
-14.23
-1.45
9.90
18.99
25.59
29.87
32.18
32.79
31.90
29.69
26.55
23.03
19.80
17.41
16.13
15.82
16.05
16.25
15.86
14.54
12.17
8.87
4.91
0.55
-3.99
-8.67
-13.55
-18.84
-24.64
-30.90
-37.27
-43.04
-47.21
-48.70
-46.65
-40.68
-31.19
-19.21
-6.29
6.06
16.69
25.00
30.90
34.58
36.40
36.58
35.36
32.99
29.86
26.50
23.47
21.18
19.72
18.91
18.30
17.40
15.92
13.80
11.23
8.43
5.53
2.47
-0.98
-5.03
-9.82
-15.39
-21.68
-28.41
-35.11
-40.93
-44.79
-45.52
-42.27
-34.94
-24.27
-11.74
0.90
12.18
21.27
27.99
32.59
35.38
36.49
35.89
33.61
29.95
25.52
21.19
17.74
15.62
14.74
14.61
14.54
13.95
12.61
10.61
8.28
5.83
3.26
0.31
-3.37
-8.05
-13.72
-20.16
-26.96
-33.64
-39.56
-43.98
-46.01
-44.82
-39.95
-31.61
-20.72
-8.69
2.96
12.97
20.58
25.54
28.00
28.26
26.77
24.03
20.64
17.22
14.36
12.47
11.69
11.86
12.46
12.81
12.23
10.30
7.06
2.92
-1.44
-5.49
-9.04
-12.37
-15.98
-20.39
-25.80
-31.91
-37.96
-42.90
-45.65
-45.35
-41.64
-34.62
-24.90
-13.43
-1.31
10.38
20.73
29.01
34.75
37.72
38.02
36.07
32.58
28.35
24.16
20.59
17.88
16.01
14.68
13.45
11.85
9.53
6.32
2.34
-2.09
-6.59
-10.86
-14.85
-18.77
-23.02
-27.96
-33.66
-39.70
-45.20
-48.96
-49.78
-46.89
-40.14
-30.24
-18.41
-6.06
5.57
15.65
23.87
30.17
34.62
37.29
38.27
37.70
35.93
33.45
30.74
28.26
26.23
24.64
23.30
21.88
20.00
17.43
14.19
10.44
6.47
2.51
-1.45
-5.63
-10.39
-16.08
-22.80
-30.35
-38.19
-45.39
-50.78
-53.09
-51.28
-44.89
-34.32
-20.81
-6.18
7.71
19.46
28.38
34.47
38.15
39.95
40.22
39.12
36.76
33.39
29.46
25.62
22.50
20.56
19.83
19.96
20.25
20.03
18.81
16.45
13.16
9.27
5.06
0.64
-4.04
-9.15
-14.75
-20.84
-27.30
-33.88
-40.24
-45.80
-49.71
-50.95
-48.58
-42.12
-31.74
-18.38
-3.51
11.25
24.45
35.08
42.65
47.14
48.84
48.33
46.23
43.16
39.64
36.06
32.68
29.71
27.34
25.66
24.70
24.23
23.86
23.16
21.78
19.54
16.48
12.81
8.72
4.36
-0.17
-4.85
-9.58
-14.42
-19.55
-25.15
-31.31
-37.69
-43.34
-46.90
-46.95
-42.53
-33.63
-21.22
-6.97
7.24
19.77
29.65
36.47
40.27
41.39
40.27
37.31
32.86
27.23
20.75
13.86
7.14
1.32
-2.94
-5.18
-5.40
-4.09
-2.09
-0.30
0.58
0.24
-1.28
-3.71
-6.72
-10.07
-13.58
-17.06
-20.41
-23.57
-26.65
-29.86
-33.27
-36.67
-39.30
-39.96
-37.46
-31.11
-21.13
-8.64
4.57
16.76
26.59
33.44
37.30
38.54
37.74
35.46
32.35
29.01
26.01
23.71
22.24
21.51
21.27
21.33
21.48
21.55
21.30
20.43
18.65
15.83
12.00
7.43
2.46
-2.59
-7.56
-12.36
-17.01
-21.56
-26.03
-30.40
-34.50
-37.90
-39.88
-39.58
-36.28
-29.69
-20.20
-8.89
2.78
13.32
21.66
27.27
30.17
30.66
29.18
26.16
22.10
17.59
13.25
9.73
7.45
6.50
6.65
7.40
8.18
8.53
8.12
6.79
4.61
1.67
-1.76
-5.44
-9.20
-12.95
-16.76
-20.82
-25.37
-30.48
-36.05
-41.60
-46.36
-49.34
-49.47
-46.02
-38.81
-28.44
-16.14
-3.52
7.86
16.86
22.84
25.76
25.84
23.55
19.45
14.26
8.78
3.84
0.09
-2.16
-2.94
-2.73
-2.15
-1.78
-2.00
-2.96
-4.50
-6.38
-8.39
-10.34
-12.25
-14.20
-16.38
-18.98
-22.17
-25.85
-29.65
-32.88
-34.63
-34.00
-30.41
-23.82
-14.85
-4.55
5.86
15.21
22.68
27.73
30.11
29.86
27.22
22.69
17.01
11.10
5.84
1.91
-0.51
-1.67
-2.11
-2.44
-3.15
-4.44
-6.27
-8.54
-11.11
-13.97
-17.23
-21.04
-25.55
-30.80
-36.60
-42.43
-47.40
-50.36
-50.24
-46.32
-38.58
-27.78
-15.26
-2.60
8.73
17.67
23.73
26.85
27.39
25.94
23.16
19.73
16.16
12.86
10.03
7.79
6.11
4.90
3.93
2.89
1.47
-0.56
-3.25
-6.50
-10.13
-14.03
-18.22
-22.79
-27.80
-33.02
-37.79
-41.12
-41.92
-39.33
-33.09
-23.66
-12.18
-0.11
11.14
20.48
27.29
31.34
32.66
31.52
28.32
23.72
18.48
13.42
9.22
6.27
4.58
3.83
3.48
2.97
1.93
0.25
-1.92
-4.34
-6.81
-9.36
-12.29
-15.97
-20.68
-26.31
-32.22
-37.34
-40.41
-40.31
-36.37
-28.64
-17.88
-5.32
7.56
19.34
28.95
35.69
39.27
39.84
37.80
33.80
28.67
23.31
18.50
14.84
12.57
11.55
11.31
11.20
10.60
9.12
6.75
3.79
0.73
-2.05
-4.51
-6.98
-10.05
-14.25
-19.78
-26.25
-32.81
-38.24
-41.36
-41.24
-37.43
-30.06
-19.77
-7.71
4.74
16.15
25.34
31.59
34.72
35.07
33.28
30.06
26.11
22.03
18.31
15.38
13.46
12.52
12.26
12.14
11.70
10.65
8.98
6.85
4.49
1.95
-0.89
-4.35
-8.74
-14.27
-20.87
-28.14
-35.30
-41.18
-44.45
-43.95
-39.01
-29.81
-17.40
-3.47
10.11
21.80
30.66
36.42
39.20
39.37
37.32
33.56
28.69
23.55
18.97
15.59
13.65
12.90
12.81
12.77
12.33
11.30
9.75
7.81
5.58
3.10
0.21
-3.25
-7.48
-12.50
-18.32
-24.62
-30.87
-36.22
-39.57
-39.89
-36.45
-29.20
-18.85
-6.80
5.37
16.23
24.91
31.12
34.93
36.54
36.10
33.75
29.81
24.92
19.92
15.71
12.91
11.71
11.83
12.63
13.36
13.37
12.30
10.11
7.07
3.62
0.09
-3.36
-6.84
-10.63
-15.09
-20.34
-26.26
-32.34
-37.72
-41.36
-42.20
-39.47
-32.93
-23.12
-11.20
1.19
12.50
21.57
27.83
31.27
32.19
31.00
28.06
23.82
18.80
13.76
9.50
6.64
5.39
5.49
6.27
6.93
6.90
5.94
4.18
1.87
-0.76
-3.68
-7.01
-10.93
-15.60
-21.05
-27.15
-33.52
-39.46
-43.99
-46.00
-44.54
-39.16
-30.19
-18.61
-5.88
6.49
17.33
25.92
31.98
35.47
36.52
35.26
31.97
27.11
21.43
15.84
11.22
8.16
6.72
6.42
6.43
5.93
4.36
1.66
-1.79
-5.44
-8.75
-11.55
-13.98
-16.49
-19.57
-23.64
-28.81
-34.73
-40.59
-45.12
-46.97
-45.02
-38.82
-28.85
-16.37
-3.06
9.45
20.02
28.09
33.62
36.86
38.14
37.71
35.88
33.04
29.68
26.36
23.57
21.60
20.40
19.70
19.03
18.02
16.43
14.24
11.57
8.57
5.27
1.60
-2.47
-6.98
-11.90
-17.21
-22.91
-28.95
-35.15
-41.01
-45.63
-47.92
-46.85
-41.83
-33.08
-21.56
-8.77
3.69
14.55
23.14
29.37
33.48
35.86
36.76
36.37
34.83
32.39
29.44
26.45
23.86
21.92
20.71
20.07
19.65
19.16
18.27
16.85
14.87
12.34
9.26
5.57
1.18
-3.93
-9.62
-15.62
-21.68
-27.68
-33.64
-39.62
-45.38
-50.17
-52.84
-52.16
-47.34
-38.44
-26.42
-12.91
0.33
11.86
20.85
27.08
30.80
32.44
32.57
31.70
30.29
28.78
27.45
26.51
26.03
26.01
26.30
26.72
27.05
27.00
26.37
24.95
22.62
19.33
15.13
10.12
4.50
-1.43
-7.36
-12.92
-17.89
-22.26
-26.28
-30.37
-34.99
-40.25
-45.77
-50.57
-53.29
-52.67
-47.96
-39.36
-27.92
-15.31
-3.21
7.05
14.77
19.87
22.67
23.70
23.50
22.55
21.24
19.94
18.93
18.41
18.46
19.06
20.15
21.60
23.20
24.65
25.53
25.47
24.17
21.52
17.65
12.85
7.52
2.06
-3.24
-8.21
-12.82
-17.19
-21.53
-26.06
-30.80
-35.36
-38.88
-40.19
-38.22
-32.37
-22.86
-10.74
2.37
14.73
24.91
32.10
36.06
37.01
35.49
32.11
27.56
22.56
17.76
13.69
10.67
8.74
7.73
7.36
7.34
7.40
7.37
7.12
6.52
5.46
3.86
1.65
-1.16
-4.54
-8.41
-12.64
-17.11
-21.75
-26.52
-31.42
-36.29
-40.74
-44.00
-45.01
-42.79
-36.82
-27.37
-15.55
-3.02
8.42
17.36
23.12
25.66
25.45
23.17
19.58
15.35
11.18
7.61
5.09
3.87
3.95
5.07
6.76
8.50
9.77
10.22
9.66
8.06
5.57
2.45
-1.04
-4.66
-8.37
-12.26
-16.53
-21.35
-26.75
-32.37
-37.42
-40.85
-41.51
-38.59
-31.92
-22.05
-10.22
2.04
13.28
22.46
29.03
32.97
34.48
33.92
31.69
28.22
24.02
19.68
15.77
12.73
10.86
10.08
10.08
10.36
10.38
9.71
8.16
5.79
2.83
-0.44
-3.88
-7.47
-11.33
-15.60
-20.36
-25.63
-31.24
-36.88
-42.06
-46.00
-47.80
-46.66
-42.10
-34.22
-23.81
-12.13
-0.62
9.49
17.43
22.98
26.28
27.66
27.44
25.87
23.21
19.88
16.42
13.43
11.45
10.76
11.21
12.37
13.59
14.26
13.94
12.51
10.08
6.89
3.22
-0.69
-4.76
-9.01
-13.50
-18.29
-23.41
-28.71
-33.83
-38.15
-40.83
-40.99
-38.00
-31.71
-22.61
-11.74
-0.43
9.99
18.55
24.74
28.49
30.01
29.62
27.68
24.61
20.87
17.02
13.62
11.16
9.83
9.41
9.38
9.01
7.70
5.14
1.47
-2.89
-7.37
-11.53
-15.15
-18.27
-21.18
-24.21
-27.69
-31.72
-36.05
-40.08
-42.95
-43.72
-41.72
-36.72
-28.91
-18.94
-7.70
3.77
14.35
23.03
29.04
31.98
31.95
29.49
25.43
20.67
16.02
12.11
9.35
7.97
7.90
8.82
10.21
11.48
12.16
12.03
11.06
9.35
7.09
4.35
1.15
-2.65
-7.29
-12.91
-19.45
-26.42
-32.88
-37.57
-39.34
-37.49
-32.13
-24.09
-14.70
-5.42
2.45
7.95
10.51
10.04
6.91
1.91
-3.94
-9.61
-14.31
-17.58
-19.14
-18.78
-16.33
-11.77
-5.41
1.87
8.84
14.28
17.40
18.17
17.19
15.25
12.90
10.13
6.42
1.18
-5.78
-13.93
-22.04
-28.50
-31.93
-31.55
-27.42
-20.34
-11.54
-2.17
6.87
15.08
22.17
27.88
31.85
33.71
33.25
30.66
26.60
22.10
18.14
15.39
13.88
13.13
12.44
11.16
9.00
6.01
2.45
-1.41
-5.43
-9.67
-14.30
-19.47
-25.28
-31.58
-37.98
-43.78
-47.97
-49.45
-47.36
-41.35
-31.79
-19.78
-6.79
5.69
16.55
25.26
31.75
36.23
38.90
39.82
39.00
36.55
32.82
28.35
23.84
19.80
16.46
13.72
11.26
8.78
6.15
3.43
0.74
-1.90
-4.67
-7.90
-12.03
-17.36
-23.86
-31.11
-38.27
-44.21
-47.80
-48.13
-44.80
-38.08
-28.81
-18.20
-7.47
2.38
10.78
17.49
22.53
26.05
28.23
29.29
29.50
29.14
28.58
28.12
28.02
28.39
29.18
30.16
30.91
30.98
29.97
27.67
24.14
19.62
14.42
8.77
2.73
-3.87
-11.24
-19.44
-28.17
-36.64
-43.64
-47.84
-48.12
-43.90
-35.40
-23.60
-10.05
3.56
15.75
25.60
32.81
37.60
40.44
41.84
42.13
41.56
40.26
38.39
36.22
33.98
31.92
30.13
28.57
27.10
25.48
23.47
20.89
17.66
13.85
9.58
5.01
0.25
-4.64
-9.63
-14.69
-19.79
-24.90
-30.03
-35.13
-40.02
-44.17
-46.69
-46.53
-42.79
-35.15
-24.14
-11.03
2.54
15.01
25.37
33.21
38.63
41.95
43.52
43.59
42.43
40.31
37.63
34.80
32.12
29.82
27.98
26.63
25.75
25.23
24.92
24.53
23.74
22.17
19.57
15.87
11.21
5.86
0.17
-5.58
-11.26
-16.94
-22.83
-29.16
-35.90
-42.65
-48.57
-52.53
-53.45
-50.62
-43.98
-34.18
-22.41
-10.14
1.31
10.96
18.37
23.54
26.73
28.33
28.70
28.15
26.96
25.42
23.84
22.53
21.65
21.18
20.94
20.64
20.01
18.88
17.21
15.03
12.40
9.39
6.08
2.47
-1.39
-5.51
-9.91
-14.59
-19.63
-25.04
-30.73
-36.38
-41.34
-44.73
-45.56
-43.05
-36.92
-27.61
-16.18
-4.10
7.18
16.60
23.62
28.22
30.65
31.26
30.37
28.31
25.45
22.20
19.05
16.38
14.43
13.19
12.48
12.04
11.62
11.03
10.14
8.90
7.26
5.17
2.60
-0.45
-3.92
-7.69
-11.67
-15.85
-20.31
-25.19
-30.50
-35.97
-40.93
-44.42
-45.44
-43.27
-37.79
-29.47
-19.33
-8.62
1.53
10.28
17.21
22.25
25.59
27.38
27.80
26.93
24.93
22.09
18.84
15.69
13.09
11.30
10.26
9.71
9.26
8.58
7.45
5.81
3.68
1.13
-1.78
-5.04
-8.57
-12.34
-16.27
-20.32
-24.47
-28.71
-32.94
-36.88
-39.94
-41.34
-40.32
-36.42
-29.74
-20.98
-11.26
-1.82
6.37
12.82
17.42
20.32
21.73
21.80
20.64
18.46
15.62
12.57
9.78
7.52
5.79
4.37
2.97
1.32
-0.65
-2.88
-5.28
-7.73
-10.24
-12.86
-15.66
-18.70
-21.98
-25.47
-29.12
-32.90
-36.65
-40.12
-42.86
-44.21
-43.49
-40.19
-34.15
-25.78
-15.94
-5.74
3.72
11.65
17.75
22.02
24.69
25.97
26.00
24.88
22.86
20.38
17.98
16.12
14.98
14.42
14.00
13.19
11.60
9.12
5.86
2.14
-1.72
-5.54
-9.27
-13.06
-17.14
-21.70
-26.77
-32.24
-37.76
-42.84
-46.88
-49.12
-48.84
-45.48
-38.87
-29.42
-18.05
-6.06
5.24
14.83
22.24
27.44
30.74
32.55
33.18
32.78
31.41
29.12
25.98
22.24
18.21
14.28
10.77
7.85
5.47
3.43
1.51
-0.50
-2.67
-4.93
-7.16
-9.23
-11.14
-13.08
-15.43
-18.56
-22.74
-27.85
-33.46
-38.71
-42.63
-44.35
-43.30
-39.34
-32.74
-24.11
-14.30
-4.19
5.36
13.64
20.15
24.65
27.22
28.11
27.76
26.63
25.17
23.67
22.33
21.28
20.61
20.35
20.52
21.02
21.66
22.22
22.39
21.89
20.46
17.89
14.06
9.04
3.04
-3.56
-10.34
-16.96
-23.29
-29.44
-35.68
-42.27
-49.23
-56.19
-62.37
-66.69
-68.04
-65.58
-59.02
-48.69
-35.56
-20.99
-6.46
6.74
17.75
26.20
32.14
35.85
37.71
37.98
36.80
34.30
30.68
26.32
21.76
17.54
14.04
11.39
9.48
8.07
7.02
6.24
5.75
5.52
5.37
5.02
4.15
2.57
0.32
-2.38
-5.31
-8.42
-11.89
-16.09
-21.35
-27.73
-34.85
-41.78
-47.29
-50.04
-49.03
-43.94
-35.24
-24.15
-12.19
-0.87
8.82
16.44
22.09
26.10
28.79
30.38
31.09
31.13
30.80
30.46
30.39
30.66
31.17
31.63
31.79
31.53
30.84
29.76
28.23
26.05
22.87
18.47
12.78
6.03
-1.25
-8.49
-15.20
-21.16
-26.43
-31.26
-35.85
-40.34
-44.65
-48.47
-51.28
-52.37
-50.96
-46.36
-38.30
-27.07
-13.62
0.55
13.77
24.64
32.34
36.77
38.43
38.04
36.37
33.98
31.29
28.66
26.37
24.71
23.88
23.95
24.82
26.35
28.25
30.25
32.04
33.31
33.74
33.07
31.09
27.69
22.93
16.94
10.04
2.62
-4.88
-12.12
-18.94
-25.40
-31.71
-38.04
-44.24
-49.78
-53.69
-54.89
-52.37
-45.66
-34.98
-21.29
-6.05
9.08
22.66
33.73
41.81
46.97
49.48
49.76
48.19
45.24
41.40
37.26
33.35
30.03
27.45
25.54
24.11
23.00
22.14
21.50
21.04
20.65
20.10
19.12
17.45
14.91
11.45
7.15
2.21
-3.14
-8.73
-14.51
-20.59
-27.14
-34.26
-41.68
-48.75
-54.41
-57.44
-56.86
-52.21
-43.77
-32.42
-19.42
-6.09
6.41
17.26
25.93
32.18
35.94
37.33
36.66
34.34
30.93
26.97
23.01
19.52
16.89
15.33
14.82
15.16
15.87
16.38
16.17
14.91
12.52
9.18
5.23
1.01
-3.19
-7.27
-11.20
-15.08
-19.04
-23.20
-27.58
-32.05
-36.20
-39.34
-40.64
-39.28
-34.77
-27.22
-17.38
-6.48
4.06
13.01
19.60
23.56
25.04
24.35
21.87
18.06
13.50
8.89
4.95
2.21
0.83
0.60
1.01
1.50
1.63
1.21
0.19
-1.38
-3.40
-5.83
-8.60
-11.72
-15.27
-19.38
-24.18
-29.66
-35.49
-41.01
-45.27
-47.23
-46.11
-41.57
-33.86
-23.77
-12.44
-1.07
9.34
18.01
24.54
28.72
30.55
30.18
27.93
24.35
20.11
15.96
12.46
9.92
8.29
7.22
6.24
4.93
3.13
0.86
-1.66
-4.29
-6.95
-9.73
-12.85
-16.52
-20.94
-26.13
-31.93
-37.94
-43.49
-47.67
-49.49
-48.12
-43.13
-34.73
-23.74
-11.42
0.79
11.65
20.32
26.46
30.11
31.59
31.23
29.41
26.48
22.94
19.34
16.22
13.89
12.25
10.86
9.05
6.29
2.39
-2.48
-7.82
-13.15
-18.13
-22.72
-27.16
-31.73
-36.68
-42.07
-47.53
-52.31
-55.32
-55.31
-51.30
-42.83
-30.25
-14.62
2.43
19.18
34.12
46.30
55.34
61.35
64.71
65.80
64.94
62.33
58.18
52.75
46.48
39.85
33.35
27.36
22.08
17.49
13.44
9.71
6.02
2.25
-1.63
-5.46
-9.02
-12.13
-14.77
-17.14
-19.58
-22.51
-26.18
-30.55
-35.22
-39.39
-42.06
-42.29
-39.41
-33.22
-24.15
-13.07
-1.10
10.60
21.10
29.79
36.35
40.67
42.84
43.06
41.72
39.37
36.64
34.13
32.25
31.08
30.45
30.05
29.61
29.00
28.22
27.36
26.41
25.24
23.58
21.11
17.61
13.05
7.65
1.80
-4.07
-9.63
-14.76
-19.50
-24.08
-28.76
-33.74
-39.07
-44.61
-49.99
-54.57
-57.48
-57.74
-54.54
-47.61
-37.36
-24.89
-11.70
0.76
11.47
19.96
26.22
30.43
32.75
33.33
32.38
30.39
28.08
26.22
25.33
25.48
26.28
27.14
27.57
27.42
26.83
26.11
25.42
24.71
23.78
22.39
20.48
18.17
15.69
13.22
10.84
8.42
5.69
2.37
-1.83
-7.16
-13.63
-20.95
-28.43
-35.02
-39.55
-41.02
-38.93
-33.47
-25.42
-15.98
-6.39
2.31
9.37
14.42
17.34
18.24
17.46
15.47
12.86
10.23
8.13
6.88
6.64
7.35
8.81
10.74
12.79
14.58
15.71
15.89
14.90
12.77
9.60
5.60
1.04
-3.86
-8.94
-14.10
-19.28
-24.45
-29.56
-34.44
-38.79
-42.16
-43.98
-43.71
-40.89
-35.37
-27.36
-17.45
-6.61
4.04
13.39
20.64
25.34
27.50
27.38
25.38
22.00
17.76
13.22
8.99
5.65
3.50
2.58
2.56
2.93
3.16
2.83
1.74
-0.08
-2.48
-5.26
-8.20
-11.18
-14.16
-17.25
-20.63
-24.52
-28.97
-33.72
-38.12
-41.26
-42.05
-39.70
-33.94
-25.17
-14.40
-3.00
7.73
16.78
23.60
28.00
30.06
30.01
28.22
25.12
21.35
17.58
14.39
12.19
11.03
10.65
10.60
10.41
9.71
8.34
6.36
3.90
1.17
-1.76
-4.88
-8.30
-12.14
-16.57
-21.62
-27.16
-32.87
-38.15
-42.22
-44.19
-43.28
-39.06
-31.65
-21.82
-10.77
0.12
9.73
17.34
22.78
26.23
28.06
28.57
28.00
26.51
24.30
21.76
19.31
17.35
16.06
15.35
14.86
14.11
12.70
10.49
7.64
4.50
1.41
-1.50
-4.42
-7.77
-12.01
-17.46
-24.06
-31.28
-38.25
-43.84
-46.94
-46.68
-42.72
-35.32
-25.33
-13.93
-2.34
8.37
17.49
24.66
29.77
32.89
34.19
33.94
32.43
30.06
27.21
24.25
21.55
19.36
17.84
16.89
16.25
15.47
14.18
12.13
9.37
6.08
2.56
-1.00
-4.54
-8.17
-12.10
-16.49
-21.43
-26.73
-31.90
-36.15
-38.42
-37.79
-33.67
-26.22
-16.26
-5.16
5.66
14.99
22.11
26.78
29.10
29.34
27.77
24.62
20.16
14.76
8.99
3.58
-0.73
-3.38
-4.18
-3.48
-1.96
-0.44
0.42
0.27
-0.86
-2.76
-5.23
-8.09
-11.33
-14.91
-18.79
-22.94
-27.28
-31.67
-35.80
-39.17
-40.98
-40.49
-37.14
-30.86
-22.16
-11.93
-1.23
8.94
17.80
24.88
29.90
32.78
33.61
32.62
30.16
26.70
22.78
19.00
15.89
13.79
12.77
12.49
12.38
11.79
10.32
7.93
4.88
1.46
-2.10
-5.83
-9.90
-14.49
-19.62
-25.17
-30.82
-36.09
-40.36
-42.87
-42.88
-39.88
-33.76
-25.00
-14.56
-3.65
6.62
15.43
22.42
27.48
30.70
32.18
32.05
30.55
28.07
25.16
22.40
20.25
18.96
18.48
18.55
18.73
18.59
17.73
15.88
12.96
9.14
4.76
0.22
-4.26
-8.71
-13.39
-18.61
-24.50
-30.74
-36.59
-41.02
-42.94
-41.57
-36.68
-28.60
-18.16
-6.56
5.00
15.45
24.09
30.55
34.82
37.00
37.31
36.00
33.37
29.82
25.85
22.04
18.89
16.76
15.71
15.55
15.84
16.03
15.64
14.38
12.17
9.10
5.45
1.48
-2.59
-6.64
-10.70
-14.88
-19.38
-24.35
-29.78
-35.34
-40.39
-43.96
-45.09
-42.98
-37.39
-28.73
-17.96
-6.40
4.59
13.95
21.05
25.70
28.07
28.55
27.65
25.93
23.91
22.01
20.48
19.47
18.96
18.90
19.15
19.54
19.84
19.75
18.94
17.22
14.52
10.94
6.71
2.05
-2.80
-7.66
-12.42
-17.06
-21.64
-26.34
-31.31
-36.52
-41.55
-45.56
-47.48
-46.29
-41.52
-33.34
-22.68
-10.88
0.63
10.73
18.74
24.46
28.00
29.63
29.66
28.41
26.28
23.67
21.06
18.83
17.24
16.33
15.91
15.67
15.22
14.28
12.71
10.57
8.03
5.25
2.38
-0.56
-3.56
-6.69
-9.96
-13.39
-17.00
-20.88
-25.09
-29.55
-33.98
-37.68
-39.75
-39.28
-35.57
-28.50
-18.63
-7.04
4.84
15.65
24.34
30.37
33.75
34.83
34.22
32.56
30.42
28.32
26.56
25.29
24.55
24.21
24.07
23.88
23.36
22.26
20.42
17.73
14.22
10.01
5.27
0.25
-4.85
-9.86
-14.71
-19.37
-23.94
-28.50
-33.14
-37.86
-42.47
-46.48
-49.11
-49.41
-46.53
-40.07
-30.32
-18.27
-5.44
6.59
16.55
23.76
28.12
30.02
29.98
28.51
26.03
22.89
19.46
16.13
13.28
11.13
9.75
9.02
8.69
8.51
8.28
7.91
7.32
6.51
5.43
4.01
2.21
-0.03
-2.70
-5.84
-9.52
-13.85
-18.92
-24.64
-30.62
-36.16
-40.25
-41.86
-40.23
-35.18
-27.21
-17.45
-7.26
2.11
9.81
15.51
19.35
21.72
23.06
23.64
23.61
22.99
21.86
20.40
18.88
17.57
16.59
15.84
15.00
13.66
11.49
8.35
4.40
-0.09
-4.72
-9.23
-13.48
-17.44
-21.23
-24.98
-28.80
-32.70
-36.54
-39.90
-42.16
-42.55
-40.35
-35.21
-27.32
-17.43
-6.67
3.71
12.65
19.45
23.79
25.67
25.29
23.00
19.25
14.63
9.79
5.43
2.09
0.12
-0.50
-0.09
0.82
1.64
1.86
1.20
-0.34
-2.58
-5.27
-8.20
-11.27
-14.46
-17.84
-21.55
-25.65
-30.06
-34.52
-38.39
-40.85
-41.04
-38.30
-32.51
-24.15
-14.19
-3.86
5.64
13.44
19.07
22.44
23.71
23.14
21.05
17.82
13.89
9.81
6.16
3.41
1.77
1.17
1.20
1.34
1.07
0.11
-1.62
-3.91
-6.55
-9.42
-12.56
-16.23
-20.70
-26.03
-31.89
-37.57
-42.09
-44.41
-43.81
-39.90
-32.91
-23.51
-12.73
-1.71
8.45
16.94
23.31
27.38
29.27
29.18
27.50
24.62
21.09
17.41
14.06
11.38
9.39
7.96
6.77
5.51
3.96
2.10
-0.02
-2.29
-4.69
-7.29
-10.30
-13.98
-18.56
-24.12
-30.49
-37.18
-43.36
-47.99
-50.00
-48.59
-43.51
-35.22
-24.77
-13.54
-2.83
6.49
14.03
19.84
24.18
27.26
29.14
29.78
29.21
27.61
25.38
23.10
21.23
20.10
19.65
19.64
19.65
19.30
18.32
16.63
14.24
11.18
7.45
2.97
-2.37
-8.67
-15.90
-23.77
-31.69
-38.72
-43.72
-45.59
-43.68
-37.93
-29.01
-18.10
-6.59
4.31
13.78
21.50
27.44
31.76
34.60
36.04
36.10
34.87
32.61
29.77
26.89
24.52
22.94
22.16
21.85
21.46
20.55
18.84
16.35
13.32
9.99
6.50
2.77
-1.42
-6.32
-12.03
-18.46
-25.30
-32.02
-37.94
-42.29
-44.26
-43.22
-38.78
-31.09
-20.81
-9.02
2.99
14.03
23.25
30.20
34.88
37.62
38.86
39.07
38.66
37.91
36.95
35.89
34.81
33.78
32.94
32.37
32.07
31.89
31.63
31.01
29.81
27.85
25.00
21.24
16.60
11.21
5.27
-0.96
-7.22
-13.32
-19.21
-24.97
-30.73
-36.55
-42.29
-47.51
-51.40
-52.95
-51.13
-45.39
-35.82
-23.30
-9.34
4.34
16.26
25.53
31.92
35.74
37.66
38.48
39.06
40.15
42.25
45.38
48.99
52.08
53.58
52.79
49.70
44.89
39.29
33.72
28.63
24.01
19.61
15.21
10.73
6.27
1.92
-2.33
-6.60
-11.11
-15.99
-21.32
-27.27
-34.06
-42.09
-51.69
-62.75
-74.38
-84.83
-91.79
-93.23
-88.23
-77.35
-62.53
-46.25
-30.70
-17.18
-6.10
2.72
9.59
14.62
17.92
19.69
20.48
21.02
22.14
24.40
28.00
32.87
38.61
44.73
50.59
55.51
58.80
59.90
58.45
54.38
48.00
39.88
30.91
21.96
13.85
7.00
1.45
-3.18
-7.43
-11.72
-16.14
-20.25
-23.31
-24.47
-23.12
-19.18
-13.12
-5.89
1.52
8.19
13.68
17.97
21.37
24.34
27.29
30.39
33.55
36.50
38.84
40.22
40.39
39.21
36.76
33.35
29.46
25.69
22.63
20.60
19.56
19.07
18.44
17.05
14.56
10.96
6.49
1.47
-3.91
-9.54
-15.38
-21.38
-27.42
-33.37
-39.11
-44.40
-48.82
-51.65
-52.02
-49.18
-42.81
-33.38
-21.95
-9.99
1.12
10.47
17.70
22.89
26.34
28.31
28.84
27.95
25.74
22.52
18.89
15.50
12.84
11.05
9.85
8.69
6.98
4.28
0.47
-4.39
-10.07
-16.27
-22.69
-28.95
-34.67
-39.45
-43.09
-45.61
-47.30
-48.61
-50.02
-51.77
-53.85
-55.82
-56.95
-56.35
-53.20
-46.98
-37.70
-25.99
-12.97
-0.10
11.22
19.99
25.72
28.55
29.11
28.24
26.78
25.28
23.97
22.73
21.31
19.43
17.01
14.14
11.07
8.08
5.49
3.60
2.68
2.90
4.21
6.22
8.20
9.36
9.00
6.82
3.00
-1.94
-7.26
-12.20
-16.08
-18.28
-18.27
-15.68
-10.47
-3.02
5.77
14.75
22.72
28.77
32.42
33.69
32.91
30.51
26.94
22.53
17.59
12.45
7.53
3.30
0.16
-1.74
-2.55
-2.70
-2.73
-3.17
-4.31
-6.22
-8.72
-11.60
-14.68
-17.94
-21.47
-25.37
-29.70
-34.48
-39.66
-45.13
-50.62
-55.65
-59.39
-60.77
-58.79
-52.85
-43.09
-30.49
-16.68
-3.55
7.23
14.60
18.30
18.71
16.61
12.99
8.83
5.00
2.17
0.70
0.62
1.55
2.70
3.20
2.31
-0.17
-3.81
-7.69
-10.70
-12.06
-11.60
-9.89
-7.92
-6.85
-7.56
-10.49
-15.56
-22.23
-29.45
-35.76
-39.42
-38.76
-32.73
-21.41
-6.16
10.63
26.33
38.72
46.79
50.66
51.39
50.31
48.62
47.05
45.97
45.42
45.16
44.87
44.04
42.17
38.90
34.19
28.38
22.17
16.36
11.58
8.13
5.86
4.36
3.07
1.54
-0.60
-3.58
-7.51
-12.44
-18.18
-24.17
-29.46
-32.82
-33.17
-29.90
-23.15
-13.73
-2.87
8.21
18.48
27.21
33.91
38.16
39.64
38.25
34.16
27.87
20.21
12.06
4.23
-2.74
-8.63
-13.53
-17.71
-21.40
-24.70
-27.39
-29.16
-29.69
-29.03
-27.65
-26.46
-26.46
-28.37
-32.35
-37.79
-43.52
-48.07
-50.10
-48.63
-43.39
-34.81
-23.92
-12.15
-0.94
8.50
15.42
19.44
20.60
19.14
15.61
10.75
5.51
0.89
-2.26
-3.55
-3.07
-1.33
0.93
3.10
4.73
5.66
5.90
5.47
4.37
2.48
-0.36
-4.34
-9.47
-15.55
-22.01
-27.94
-32.21
-33.60
-31.25
-24.81
-14.65
-1.85
12.02
25.29
36.46
44.41
48.59
48.82
45.26
38.22
28.26
16.08
2.49
-11.67
-25.81
-39.64
-53.26
-66.85
-80.46
-93.72
-105.94
-116.31
-124.23
-129.54
-132.55
-133.93
-134.34
-134.12
-133.06
-130.18
-123.77
-111.79
-92.49
-65.17
-30.92
7.40
45.66
79.49
105.41
121.80
129.16
129.75
126.87
123.79
122.88
125.21
130.42
137.20
143.80
148.55
150.09
147.58
140.63
129.41
114.74
98.06
81.28
66.30
54.62
47.02
43.47
43.36
45.81
49.94
54.93
59.96
64.09
66.28
65.82
62.91
58.92
56.08
56.36
59.98
64.54
65.41
57.48
37.64
6.52
-31.49
-69.87
-102.42
-125.46
-138.45
-143.13
-142.05
-137.24
-129.78
-120.34
-109.87
-99.86
-92.22
-88.51
-89.28
-93.74
-99.98
-105.66
-108.81
-108.41
-104.56
-98.33
-91.14
-84.36
-78.87
-75.02
-72.66
-71.48
-71.11
-71.41
-72.37
-73.97
-76.10
-78.44
-80.50
-81.74
-81.73
-80.13
-76.60
-70.78
-62.18
-50.51
-35.97
-19.53
-2.98
11.39
21.40
25.69
23.99
17.29
7.41
-3.36
-12.74
-18.68
-19.69
-15.04
-4.88
9.72
26.94
44.65
60.87
74.15
83.80
89.75
92.29
91.87
89.02
84.36
78.60
72.55
66.92
62.16
58.36
55.32
52.69
50.21
47.71
45.18
42.52
39.52
35.80
31.01
24.98
17.80
9.82
1.53
-6.40
-13.29
-18.43
-21.16
-21.00
-17.78
-11.77
-3.60
5.78
15.46
24.62
32.71
39.38
44.51
48.12
50.30
51.27
51.28
50.60
49.48
48.17
46.83
45.57
44.42
43.31
42.18
40.91
39.42
37.61
35.40
32.65
29.23
25.04
20.18
14.97
9.83
5.19
1.26
-2.07
-5.17
-8.49
-12.34
-16.67
-21.01
-24.48
-26.09
-24.97
-20.68
-13.35
-3.68
7.28
18.42
28.88
38.20
46.31
53.30
59.30
64.39
68.55
71.81
74.33
76.50
78.68
81.22
84.20
87.45
90.78
94.05
97.33
100.65
103.80
106.08
106.40
103.59
96.88
86.12
71.78
54.62
35.40
14.83
-6.38
-27.21
-46.43
-62.84
-75.68
-84.88
-90.93
-94.59
-96.41
-96.54
-94.75
-90.84
-84.89
-77.32
-68.95
-60.61
-52.97
-46.40
-40.98
-36.56
-32.92
-29.87
-27.26
-25.03
-23.15
-21.52
-20.06
-18.72
-17.61
-16.98
-17.18
-18.47
-20.88
-24.10
-27.53
-30.56
-32.73
-33.98
-34.58
-35.00
-35.66
-36.75
-38.23
-39.91
-41.54
-42.85
-43.54
-43.20
-41.31
-37.36
-31.06
-22.55
-12.40
-1.61
8.68
17.52
24.35
29.19
32.42
34.60
36.13
37.15
37.61
37.36
36.40
34.86
32.94
30.78
28.42
25.76
22.71
19.31
15.63
11.81
7.89
3.78
-0.58
-5.25
-10.14
-15.11
-20.03
-24.84
-29.61
-34.49
-39.61
-44.90
-49.99
-54.25
-56.85
-56.91
-53.89
-47.65
-38.66
-27.91
-16.56
-5.75
3.73
11.49
17.47
21.79
24.68
26.36
27.06
27.07
26.63
26.03
25.40
24.73
23.89
22.72
21.11
19.03
16.58
13.84
10.85
7.53
3.69
-0.84
-6.11
-12.03
-18.42
-25.03
-31.68
-38.25
-44.68
-51.04
-57.50
-64.29
-71.52
-79.09
-86.42
-92.63
-96.66
-97.65
-95.18
-89.45
-81.06
-70.87
-59.68
-48.10
-36.57
-25.42
-14.91
-5.27
3.31
10.82
17.46
23.62
29.74
36.12
42.73
49.21
55.02
59.69
63.03
65.10
66.11
66.23
65.46
63.65
60.63
56.25
50.41
43.04
34.16
23.86
12.49
0.65
-10.91
-21.57
-31.05
-39.53
-47.53
-55.65
-64.26
-73.18
-81.64
-88.39
-92.07
-91.59
-86.59
-77.46
-65.23
-51.26
-36.75
-22.60
-9.40
2.46
12.66
20.91
27.16
31.68
35.04
38.03
41.40
45.57
50.64
56.35
62.32
68.11
73.37
77.78
81.14
83.33
84.36
84.29
83.22
81.15
78.01
73.74
68.26
61.54
53.60
44.42
33.96
22.16
9.12
-4.86
-19.20
-33.16
-45.98
-56.97
-65.46
-70.76
-72.14
-69.08
-61.46
-49.80
-35.27
-19.34
-3.43
11.44
24.77
36.45
46.56
55.24
62.72
69.31
75.40
81.18
86.40
90.28
91.72
89.75
84.02
74.93
63.52
50.93
38.05
25.23
12.51
-0.03
-12.00
-22.57
-30.90
-36.43
-39.21
-39.86
-39.41
-38.91
-39.21
-40.77
-43.62
-47.33
-51.05
-53.62
-53.81
-50.66
-43.73
-33.25
-20.14
-5.68
8.74
21.95
33.18
42.03
48.45
52.61
54.84
55.48
54.88
53.42
51.39
49.07
46.59
43.97
41.15
38.07
34.69
31.07
27.27
23.30
19.03
14.24
8.71
2.41
-4.45
-11.36
-17.69
-22.93
-26.83
-29.55
-31.56
-33.45
-35.76
-38.71
-42.10
-45.35
-47.63
-48.10
-46.11
-41.43
-34.31
-25.46
-15.79
-6.30
2.30
9.49
14.94
18.43
19.76
18.82
15.70
10.78
4.77
-1.38
-6.63
-10.09
-11.26
-10.17
-7.47
-4.15
-1.42
-0.28
-1.26
-4.32
-8.86
-14.08
-19.26
-24.04
-28.54
-33.34
-39.14
-46.39
-54.94
-63.78
-71.28
-75.59
-75.30
-69.93
-60.13
-47.63
-34.70
-23.52
-15.38
-10.24
-6.58
-1.95
6.09
18.79
35.44
53.55
69.66
80.76
85.31
83.54
76.96
67.45
56.53
45.11
33.61
22.46
12.16
3.33
-3.51
-8.08
-10.27
-10.29
-8.82
-7.15
-7.12
-10.64
-18.85
-31.45
-46.49
-60.99
-72.03
-77.84
-78.20
-74.18
-67.11
-57.65
-45.37
-29.06
-7.60
19.20
49.95
81.61
109.71
129.27
135.88
127.02
102.93
66.92
24.66
-17.16
-52.47
-77.20
-89.77
-90.88
-82.83
-68.75
-51.85
-35.14
-21.01
-11.00
-5.70
-4.66
-6.65
-10.04
-13.24
-14.94
-14.48
-11.88
-7.72
-2.91
1.68
5.51
8.56
11.23
14.13
17.67
21.89
26.35
30.34
33.17
34.45
34.18
32.74
30.67
28.47
26.44
24.71
23.16
21.65
19.95
17.90
15.40
12.47
9.24
5.87
2.56
-0.60
-3.60
-6.57
-9.72
-13.29
-17.42
-22.16
-27.41
-32.79
-37.75
-41.48
-43.21
-42.27
-38.43
-31.93
-23.53
-14.29
-5.25
2.83
9.60
14.98
