1565998294.00
64.000000
-0.00
-0.00
-0.00
-0.00
-0.00
-0.00
-0.00
-0.00
-0.00
-0.00
0.00
0.01
0.01
-0.00
-0.03
-0.05
-0.05
0.00
0.13
0.36
0.66
1.01
1.37
1.72
2.06
2.40
2.79
3.24
3.80
4.42
5.06
5.66
6.20
6.68
7.15
7.68
8.31
9.14
10.09
11.04
11.88
12.56
13.14
13.76
14.65
15.96
17.91
20.32
22.90
25.38
27.58
29.57
31.68
34.32
37.81
42.54
48.15
54.10
59.83
64.97
69.58
74.14
79.34
85.71
93.76
103.00
112.62
121.73
129.77
136.75
143.30
150.75
157.77
166.64
177.95
191.79
206.97
220.57
228.25
225.36
208.53
176.87
132.76
80.05
23.07
-34.94
-92.44
-149.16
-205.23
-260.37
-313.74
-363.87
-409.81
-450.87
-486.44
-515.65
-537.09
-549.03
-549.71
-538.05
-513.80
-478.17
-433.26
-381.69
-326.10
-268.76
-211.41
-155.35
-101.61
-51.05
-4.63
36.80
72.65
102.64
126.93
145.98
160.48
171.10
178.45
182.96
184.96
184.73
182.55
178.77
173.73
167.75
161.14
154.15
146.99
139.85
132.89
126.17
119.71
113.40
107.12
100.77
94.41
88.21
82.46
77.47
73.34
69.97
66.97
63.96
60.62
56.99
53.40
50.41
48.51
47.84
48.10
48.46
48.03
46.12
42.50
37.44
31.39
25.04
18.50
11.48
3.24
-7.15
-20.54
-37.47
-57.81
-80.46
-103.17
-122.77
-134.87
-136.50
-126.34
-105.22
-76.22
-43.83
-12.87
12.84
31.11
41.52
45.06
43.64
39.64
35.35
32.72
32.89
35.86
40.42
44.66
46.58
45.02
40.73
35.68
32.51
33.08
37.47
43.74
48.92
50.22
46.60
39.31
31.10
25.20
23.99
28.34
37.54
49.12
58.64
59.91
46.45
14.01
-36.33
-97.02
-155.64
-199.35
-219.98
-217.07
-197.10
-169.62
-142.65
-119.99
-101.72
-87.07
-76.49
-71.81
-74.33
-81.98
-88.44
-85.57
-67.08
-32.39
12.66
58.42
95.40
117.66
123.85
116.18
99.00
77.97
59.45
49.58
51.95
64.95
81.20
89.79
81.95
56.53
21.99
-7.31
-18.69
-8.45
16.13
40.77
52.03
43.95
20.02
-9.77
-35.04
-49.69
-53.65
-51.11
-46.96
-43.76
-40.36
-32.62
-15.31
15.19
58.49
109.02
157.01
191.54
204.67
194.99
168.42
135.65
107.46
89.94
82.73
80.53
77.14
69.13
57.41
45.73
37.85
35.06
35.13
33.54
25.65
8.75
-17.48
-51.67
-92.00
-136.77
-184.07
-230.93
-273.24
-306.54
-327.66
-336.14
-333.99
-325.06
-313.14
-300.61
-288.59
-278.01
-270.62
-268.22
-271.24
-277.25
-280.70
-274.28
-250.99
-206.67
-141.20
-58.76
32.49
121.32
195.34
244.33
263.85
258.50
241.00
227.43
229.70
249.49
277.48
298.10
297.91
272.50
228.21
178.22
136.05
110.13
102.19
109.02
125.38
145.78
165.01
177.90
179.70
167.67
142.51
108.53
72.18
40.25
18.15
9.09
14.12
32.22
60.26
93.47
125.97
152.46
169.63
177.13
177.34
173.99
170.59
168.81
167.98
165.94
160.31
149.70
134.41
116.37
98.14
81.55
67.43
54.02
38.26
17.29
-10.78
-46.61
-90.10
-140.89
-197.51
-256.52
-312.23
-356.91
-382.92
-385.98
-366.95
-331.42
-287.13
-240.80
-196.52
-156.56
-123.69
-101.27
-93.19
-101.13
-122.01
-147.35
-165.74
-166.58
-144.98
-102.76
-46.55
15.21
75.78
131.25
180.01
221.33
254.30
277.49
289.77
291.46
283.31
266.76
243.31
214.30
180.77
143.75
104.28
63.99
25.02
-10.60
-41.27
-66.21
-85.55
-100.00
-110.40
-117.54
-121.67
-122.84
-121.39
-118.24
-115.00
-113.90
-117.10
-125.93
-140.04
-156.66
-170.79
-176.63
-169.41
-147.32
-112.72
-71.50
-30.56
3.53
27.09
40.41
47.11
51.83
58.01
66.38
74.96
80.07
77.78
65.58
43.45
14.22
-16.52
-41.72
-54.81
-51.94
-33.23
-2.91
32.38
65.83
92.45
109.60
116.61
113.28
99.59
75.48
41.63
0.11
-45.95
-93.33
-139.69
-184.03
-226.48
-267.53
-307.03
-343.58
-374.78
-397.86
-410.58
-413.36
-407.06
-393.16
-373.12
-348.09
-318.49
-284.28
-245.41
-202.48
-157.02
-111.16
-67.41
-27.80
6.58
35.85
60.97
83.31
104.03
123.67
142.42
159.80
175.34
188.64
199.76
209.23
218.36
229.01
243.09
261.65
283.82
306.69
325.69
336.17
335.03
321.90
299.39
272.14
245.59
223.65
209.24
203.81
207.46
219.06
236.28
255.93
274.25
287.63
293.14
289.24
275.66
253.44
224.60
191.45
156.25
120.76
86.23
53.31
22.54
-5.73
-31.10
-53.14
-71.53
-86.19
-97.34
-105.45
-111.19
-115.06
-117.50
-118.70
-118.72
-117.59
-115.35
-112.09
-108.03
-103.42
-98.47
-93.32
-88.05
-82.66
-77.13
-71.48
-65.69
-59.80
-53.90
-48.03
-42.24
-36.58
-31.08
-25.71
-20.47
-15.28
-9.99
-4.54
1.20
7.24
13.48
19.63
25.30
29.84
32.58
33.13
30.69
24.72
15.03
1.85
-14.25
-32.27
-50.99
-69.01
-84.90
-97.40
-105.44
-108.30
-105.77
-98.06
-85.65
-69.45
-50.55
-30.08
-9.11
11.45
30.81
48.38
63.76
76.78
87.30
95.17
100.29
102.61
102.11
98.77
92.47
83.10
70.78
55.82
38.86
20.85
2.97
-13.41
-27.04
-37.05
-42.96
-44.79
-42.89
-37.66
-29.56
-19.08
-6.39
8.52
25.75
45.11
66.44
89.67
114.79
141.74
170.28
199.91
229.79
258.54
283.53
301.98
311.39
311.43
302.60
286.74
266.62
245.19
224.98
206.03
187.50
168.27
147.84
126.49
105.39
85.84
68.46
52.62
33.85
7.08
-31.96
-85.14
-151.30
-226.56
-305.98
-385.13
-461.17
-536.38
-614.24
-697.72
-788.10
-884.58
-984.74
-1085.03
-1180.90
-1243.84
-1250.07
-1184.30
-1046.73
-854.79
-637.38
-424.46
-238.00
-88.21
25.29
105.95
158.45
186.72
194.30
185.72
167.25
146.46
130.43
121.36
119.45
122.72
128.38
134.27
140.18
147.70
159.59
178.38
205.43
239.19
275.92
310.98
340.06
360.90
373.54
380.46
385.33
390.08
395.22
399.18
399.40
393.67
381.28
362.43
337.15
304.55
263.30
214.06
161.05
112.59
78.48
65.45
72.67
90.59
104.53
101.11
74.77
29.23
-25.22
-77.09
-118.10
-145.03
-158.08
-158.29
-146.32
-122.63
-89.52
-51.98
-16.59
11.70
32.10
48.24
65.63
87.68
113.35
137.26
152.51
154.59
144.53
129.30
119.66
126.21
155.23
206.36
272.45
341.63
398.39
429.05
425.31
386.30
317.83
229.49
131.31
31.72
-62.78
-147.03
-217.07
-270.71
-308.25
-332.55
-348.30
-360.63
-373.51
-388.89
-406.29
-423.69
-438.79
-449.97
-456.77
-459.82
-459.96
-457.47
-453.59
-446.93
-435.16
-416.25
-389.32
-355.15
-316.11
-275.32
-235.87
-200.08
-168.73
-141.51
-117.27
-94.60
-72.34
-49.90
-26.95
-3.42
21.20
48.21
79.69
118.38
167.26
228.98
303.07
387.11
476.20
563.13
639.32
695.94
725.65
724.49
693.09
636.46
563.06
482.35
402.56
329.26
264.99
209.97
163.18
123.58
90.19
62.20
38.52
17.88
-0.79
-17.85
-32.94
-45.52
-54.76
-60.54
-63.33
-64.18
-64.23
-64.17
-63.98
-63.01
-60.46
-55.41
-47.41
-36.70
-24.25
-11.57
-0.38
7.81
12.68
12.84
7.11
-5.25
-24.31
-49.55
-79.78
-113.09
-146.98
-178.60
-205.35
-224.89
-235.87
-237.97
-231.88
-219.16
-201.82
-181.96
-161.50
-141.98
-124.21
-108.56
-94.97
-83.05
-72.39
-62.52
-52.57
-42.43
-32.11
-21.47
-10.39
1.26
13.58
26.46
39.61
52.50
64.02
72.95
78.13
78.66
74.06
64.52
50.80
34.40
17.23
1.18
-11.91
-20.65
-24.31
-22.87
-17.02
-8.04
2.58
13.30
22.75
30.14
35.06
37.45
37.69
36.33
33.94
31.05
27.99
24.93
22.12
19.72
17.54
15.57
13.77
12.13
10.62
9.26
8.22
7.35
6.61
5.93
5.29
4.64
3.97
3.27
2.58
1.98
1.51
1.17
0.97
0.82
0.70
0.52
0.30
0.08
-0.05
-0.03
0.16
0.50
0.88
1.20
1.39
1.44
1.46
1.65
2.16
3.07
4.31
5.63
6.73
7.44
7.78
7.94
8.41
9.55
11.44
13.88
16.34
18.25
19.30
19.73
20.26
22.14
26.49
33.73
43.57
54.85
65.87
75.05
81.39
84.20
83.52
79.31
71.42
59.36
42.56
20.93
-4.97
-33.72
-63.93
-93.82
-120.92
-141.63
-151.82
-148.14
-130.29
-100.99
-66.62
-34.89
-11.64
0.97
4.69
3.44
0.89
-1.12
-2.40
-3.84
-5.86
-7.79
-8.41
-6.94
-3.64
0.26
3.30
4.39
3.43
1.23
-0.87
-1.71
-0.82
1.42
4.04
6.01
6.64
5.90
4.32
2.78
2.00
2.26
3.37
4.75
5.78
6.08
5.62
4.67
3.69
3.04
2.89
3.14
3.53
3.81
3.80
3.49
3.00
2.47
2.09
1.87
1.81
1.83
1.85
1.82
1.73
1.58
1.37
1.13
0.80
0.40
-0.11
-0.74
-1.50
-2.39
-3.41
-4.52
-5.74
-7.05
-8.45
-9.93
-11.51
-13.23
-15.09
-17.08
-19.22
-21.51
-23.95
-26.58
-29.35
-32.34
-35.61
-39.17
-43.01
-47.21
-51.88
-57.18
-63.29
-70.36
-78.56
-87.96
-98.31
-108.98
-119.05
-127.35
-132.50
-133.62
-129.47
-119.32
-103.29
-82.20
-57.49
-31.20
-5.53
17.51
36.33
50.08
58.67
62.39
62.16
59.29
54.74
49.23
43.25
36.98
30.48
23.86
17.37
11.62
7.91
7.46
11.63
21.80
39.01
63.60
95.30
132.92
174.47
217.42
258.00
292.19
316.32
327.58
324.38
306.69
275.66
230.90
176.12
115.12
51.40
-12.11
-72.87
-128.68
-177.27
-216.92
-246.48
-265.12
-273.58
-274.44
-269.31
-259.03
-243.34
-221.06
-190.92
-152.40
-106.02
-54.85
-3.47
43.49
82.35
111.51
131.56
144.51
152.72
158.37
162.17
163.90
162.18
154.49
138.16
111.56
75.43
33.88
-5.88
-36.32
-52.46
-54.64
-49.11
-45.37
-52.00
-73.55
-108.92
-152.08
-194.59
-227.51
-244.21
-241.84
-221.08
-185.38
-139.12
-85.56
-26.31
37.29
102.13
161.57
206.53
229.20
226.38
201.32
162.61
120.07
80.79
47.73
20.28
-3.13
-22.84
-38.27
-49.24
-56.55
-61.61
-64.96
-64.99
-58.85
-44.48
-22.12
4.80
30.96
51.12
61.29
59.72
46.67
23.99
-5.98
-38.46
-67.07
-85.25
-88.62
-76.83
-53.41
-23.88
6.22
32.72
53.46
67.43
74.74
76.45
73.96
68.85
62.65
56.38
50.48
45.13
40.04
34.92
29.66
24.32
19.21
14.76
11.21
8.50
6.43
4.60
2.67
0.51
-1.83
-4.09
-5.93
-7.20
-7.98
-8.47
-8.97
-9.65
-10.47
-11.26
-11.78
-11.81
-11.39
-10.79
-10.32
-10.33
-10.81
-11.50
-11.94
-11.69
-10.49
-8.53
-6.48
-4.98
-4.55
-5.16
-6.18
-6.68
-5.74
-2.53
3.26
11.29
21.13
31.53
40.71
46.90
48.57
45.89
40.99
37.25
37.48
42.14
48.54
52.14
48.84
36.73
16.56
-9.46
-39.01
-70.21
-100.99
-127.83
-145.56
-148.94
-135.62
-107.41
-70.16
-31.00
4.29
32.85
53.87
67.67
74.87
75.80
70.91
60.39
44.05
21.08
-9.20
-45.77
-84.42
-117.47
-135.77
-131.65
-102.34
-51.24
12.23
74.80
123.02
145.96
138.08
100.70
42.40
-22.54
-77.00
-106.56
-104.46
-73.71
-25.69
24.57
64.22
87.10
92.40
86.35
76.79
67.96
59.20
47.76
32.23
14.42
-2.05
-14.77
-23.87
-32.63
-45.08
-62.86
-83.79
-103.76
-116.31
-116.40
-102.31
-76.40
-44.94
-16.82
-0.36
-0.34
-16.07
-41.35
-66.12
-80.73
-79.62
-63.53
-38.31
-11.61
10.71
26.14
35.12
39.43
40.46
39.18
36.39
33.37
31.72
32.95
38.16
47.19
58.84
70.16
77.82
79.85
76.67
71.54
68.85
71.86
79.81
89.34
94.64
90.63
75.80
52.42
25.32
-1.13
-24.59
-45.43
-64.63
-82.93
-99.49
-112.10
-119.18
-118.78
-110.66
-96.62
-80.56
-67.00
-60.07
-61.39
-68.43
-76.25
-78.56
-71.28
-54.37
-31.72
-8.74
10.21
23.59
32.60
39.26
44.89
49.13
50.69
48.68
43.58
37.05
31.08
27.36
26.16
26.67
27.36
26.91
24.82
21.47
17.76
14.61
12.47
11.12
10.04
8.75
7.11
5.44
4.18
3.58
3.41
3.08
2.00
-0.16
-3.01
-5.61
-6.87
-6.06
-3.00
1.94
8.09
14.67
20.88
25.82
28.79
30.34
31.99
36.56
46.71
63.09
83.12
101.42
111.84
109.46
94.49
70.63
43.55
18.30
-2.37
-18.18
-30.12
-39.06
-44.95
-47.18
-45.71
-41.45
-36.09
-31.40
-28.71
-28.22
-29.18
-30.19
-29.98
-28.09
-24.83
-21.11
-17.97
-16.13
-15.65
-16.04
-16.50
-16.30
-15.15
-13.15
-10.76
-8.50
-6.75
-5.66
-5.11
-4.84
-4.60
-4.19
-3.44
-2.26
-0.68
1.18
3.03
4.50
5.26
5.11
4.23
3.18
2.66
3.21
4.96
7.41
9.67
10.75
9.96
7.54
4.44
2.03
1.40
3.01
6.12
9.26
10.97
10.04
6.44
0.92
-5.49
-11.84
-17.26
-21.25
-23.74
-25.63
-29.44
-38.73
-56.42
-83.08
-115.36
-145.98
-166.14
-168.94
-151.03
-116.41
-72.54
-27.13
14.65
51.06
82.67
110.49
134.28
152.43
162.73
164.51
158.26
145.67
129.45
111.87
93.96
75.43
55.16
31.34
3.20
-28.91
-63.17
-96.27
-124.60
-145.41
-157.07
-158.76
-150.59
-133.33
-109.31
-82.92
-59.77
-44.99
-40.88
-45.23
-51.56
-52.85
-44.31
-25.40
0.37
28.28
54.81
78.56
99.88
118.54
132.70
139.65
137.92
126.53
107.52
84.59
61.67
41.59
24.73
9.07
-8.76
-31.40
-58.96
-86.98
-107.99
-114.92
-104.20
-77.97
-43.02
-8.61
16.74
27.22
21.24
0.66
-29.92
-62.89
-88.37
-95.75
-77.89
-34.91
24.68
86.93
137.08
164.60
166.36
142.97
102.28
53.15
3.32
-43.52
-82.85
-109.07
-117.32
-105.94
-78.57
-42.81
-8.00
18.52
33.83
38.77
37.21
33.02
27.99
21.79
13.84
4.54
-3.86
-8.44
-6.90
1.54
15.73
33.21
51.46
68.83
83.42
93.45
98.33
96.79
89.01
77.33
65.63
58.00
57.11
61.34
67.20
69.17
62.61
46.10
21.67
-6.51
-34.15
-58.12
-76.98
-90.15
-98.03
-101.42
-101.72
-101.06
-101.52
-104.28
-108.52
-112.47
-112.09
-104.23
-87.56
-62.50
-31.06
3.58
36.79
62.63
75.05
70.74
51.44
24.55
0.51
-12.49
-12.65
-5.80
-1.80
-8.62
-27.61
-52.65
-73.33
-80.71
-72.30
-52.13
-27.41
-3.92
16.60
35.21
53.57
71.54
86.96
96.90
100.11
98.06
94.24
92.88
96.28
104.38
114.74
124.62
129.96
128.24
118.25
99.73
73.30
40.52
5.07
-28.33
-55.12
-74.92
-90.82
-107.12
-126.90
-147.66
-164.31
-171.70
-168.24
-157.02
-144.42
-135.14
-129.11
-121.33
-103.35
-72.26
-30.83
12.54
49.98
75.38
87.29
89.42
88.76
92.15
102.31
116.74
127.48
126.97
111.07
82.52
47.39
13.26
-14.61
-35.88
-53.50
-70.44
-86.60
-98.84
-103.23
-97.78
-83.12
-61.34
-34.05
-0.58
41.38
92.86
149.69
201.64
235.87
239.70
208.26
147.00
70.24
-3.91
-59.15
-84.41
-80.38
-58.69
-34.56
-18.48
-13.00
-14.90
-19.49
-23.90
-28.26
-34.69
-44.35
-55.45
-63.95
-66.07
-60.73
-50.07
-38.30
-29.84
-27.66
-31.74
-39.11
-45.29
-46.48
-41.52
-31.98
-21.25
-13.05
-9.98
-12.31
-18.01
-23.90
-27.17
-27.04
-24.88
-23.39
-25.38
-32.43
-43.93
-57.30
-69.20
-76.92
-80.19
-81.25
-83.67
-90.76
-103.94
-121.62
-139.51
-153.30
-157.94
-150.47
-130.31
-98.98
-59.56
-16.40
25.50
61.35
87.10
101.89
107.88
108.95
108.86
109.57
110.95
111.51
109.74
105.52
101.63
102.88
114.45
138.76
172.95
208.26
232.84
238.43
222.87
193.63
163.96
145.94
143.95
152.56
160.06
154.63
132.27
97.08
58.34
24.50
-1.01
-20.08
-36.80
-54.09
-71.30
-84.89
-91.15
-88.66
-78.92
-65.97
-54.73
-48.57
-48.19
-51.64
-55.24
-55.93
-52.29
-45.05
-36.55
-29.56
-25.86
-25.68
-27.74
-30.00
-30.85
-29.68
-26.98
-24.06
-22.35
-22.68
-25.12
-28.98
-33.29
-37.35
-40.93
-44.34
-48.14
-52.94
-59.09
-66.56
-75.05
-84.22
-93.88
-104.19
-115.52
-128.25
-142.72
-158.89
-176.24
-193.69
-209.82
-223.03
-231.84
-235.37
-232.73
-223.23
-206.40
-182.06
-150.35
-112.13
-69.03
-23.53
21.30
62.40
97.33
124.91
145.48
160.62
172.43
182.68
192.06
200.07
205.58
207.54
205.72
201.19
195.94
192.20
191.81
195.55
202.88
211.86
219.14
220.62
212.69
193.72
165.20
131.65
99.03
72.31
53.44
40.54
29.24
15.10
-3.88
-26.23
-47.83
-64.30
-73.38
-76.20
-76.96
-80.70
-90.98
-107.98
-128.08
-145.09
-152.73
-146.97
-127.62
-98.75
-67.33
-41.16
-26.47
-25.83
-37.24
-54.92
-71.30
-79.87
-78.07
-68.25
-56.96
-52.22
-60.16
-82.75
-117.17
-157.36
-196.64
-230.36
-256.94
-277.43
-293.76
-306.99
-316.39
-319.69
-314.21
-297.58
-269.09
-229.25
-179.17
-119.84
-52.01
23.07
102.86
183.01
257.78
321.13
368.53
398.05
410.68
409.66
399.11
382.72
362.83
340.34
315.21
287.27
256.93
225.35
194.19
165.12
139.29
117.01
97.86
80.93
65.36
50.58
36.57
23.63
12.20
2.57
-5.31
-11.69
-17.03
-21.82
-26.42
-31.01
-35.59
-40.07
-44.28
-48.07
-51.29
-53.80
-55.53
-56.38
-56.29
-55.29
-53.45
-50.96
-48.00
-44.80
-41.58
-38.53
-35.72
-33.19
-30.94
-28.91
-27.06
-25.34
-23.74
-22.07
-20.47
-18.95
-17.55
-16.24
-14.98
-13.73
-12.49
-11.25
-10.05
-8.93
-7.91
-7.01
-6.21
-5.47
-4.73
-3.93
-3.06
-2.14
-1.22
-0.34
0.47
1.28
2.22
3.37
4.80
6.42
8.08
9.62
10.91
11.95
12.93
14.10
15.68
17.81
20.40
23.19
25.93
28.46
30.86
33.56
37.21
42.34
49.37
58.00
67.37
76.10
82.63
85.26
82.92
75.18
62.51
45.93
26.73
6.19
-14.96
-36.83
-60.52
-86.75
-114.37
-139.43
-155.67
-157.08
-141.06
-109.33
-68.56
-27.55
5.84
26.48
32.04
22.29
-1.13
-33.98
-68.82
-96.41
-108.29
-100.58
-76.16
-43.57
-13.10
7.88
17.51
18.56
15.56
11.84
8.19
3.95
-1.45
-7.25
-11.83
-13.81
-13.02
-10.80
-9.10
-9.83
-13.68
-20.00
-27.15
-33.34
-37.48
-39.68
-41.08
-43.15
-47.24
-53.75
-62.10
-70.71
-77.69
-81.43
-81.23
-77.51
-70.90
-62.38
-52.76
-42.49
-31.45
-19.24
-5.28
10.68
28.39
47.27
66.35
84.65
101.33
115.80
127.66
136.48
141.49
141.45
135.00
120.98
99.13
70.61
38.05
5.46
-22.72
-42.63
-52.26
-51.80
-43.46
-30.58
-16.42
-3.28
7.92
17.65
27.58
39.69
55.67
75.49
96.54
113.55
119.81
109.87
82.41
41.68
-3.40
-42.10
-65.82
-70.70
-58.25
-34.21
-5.98
19.62
37.55
45.04
41.87
30.29
14.64
0.22
-9.20
-12.89
-13.50
-15.37
-22.25
-34.59
-49.57
-63.01
-71.30
-72.54
-65.35
-46.96
-12.94
40.11
111.03
191.31
266.15
319.45
340.18
326.40
284.67
225.80
159.81
93.55
31.49
-22.14
-62.40
-85.10
-89.77
-81.75
-71.50
-71.03
-88.58
-124.48
-170.56
-213.15
-238.80
-239.76
-216.43
-176.65
-133.26
-99.85
-87.70
-103.88
-150.30
-223.85
-316.38
-415.52
-501.28
-553.77
-558.74
-512.94
-424.96
-310.99
-188.54
-71.83
30.11
112.90
174.78
216.11
239.02
247.14
245.03
237.32
227.56
217.89
209.11
200.45
190.77
179.27
165.98
151.85
138.22
126.21
116.34
108.44
101.55
94.64
86.94
78.34
69.40
60.92
53.50
47.37
42.32
37.81
33.40
28.93
24.57
20.70
17.58
15.10
12.93
10.61
7.92
5.05
2.59
1.16
1.13
2.27
3.70
4.41
3.65
1.46
-1.26
-3.07
-2.72
0.59
6.69
14.52
22.87
30.52
36.44
39.39
38.71
34.50
28.64
24.45
25.34
32.96
45.66
58.49
65.73
63.16
50.22
30.13
8.06
-11.45
-26.11
-36.23
-43.20
-48.02
-50.83
-51.10
-48.54
-43.75
-38.20
-33.53
-31.00
-30.77
-31.84
-32.87
-32.68
-30.79
-27.60
-24.09
-21.35
-20.06
-20.27
-21.37
-22.54
-23.09
-22.77
-21.85
-20.88
-20.43
-20.79
-21.92
-23.48
-25.13
-26.65
-28.07
-29.61
-31.48
-33.70
-36.11
-38.53
-40.93
-43.56
-46.91
-51.52
-57.77
-65.39
-73.47
-80.53
-85.17
-86.46
-84.39
-79.13
-71.31
-61.42
-49.62
-35.72
-19.59
-1.66
16.64
33.00
44.86
50.46
49.61
43.99
36.75
31.47
31.28
38.09
52.59
74.12
99.80
125.31
144.82
152.58
145.15
123.38
92.31
59.36
31.24
11.53
0.27
-4.87
-6.28
-4.94
-0.73
6.05
13.52
18.47
17.95
11.42
1.64
-6.69
-8.83
-2.73
9.49
22.29
29.35
26.40
13.22
-6.86
-28.18
-44.52
-50.96
-45.02
-27.00
-0.42
28.09
49.71
56.40
44.86
18.95
-10.59
-30.98
-33.22
-16.81
10.20
35.48
49.02
47.78
36.00
21.44
10.84
6.61
6.09
4.01
-4.74
-22.70
-48.59
-76.98
-99.45
-107.52
-96.36
-67.86
-30.66
3.13
23.09
24.88
11.68
-8.18
-26.17
-37.73
-42.54
-44.19
-46.17
-49.02
-50.13
-45.87
-34.07
-15.92
4.28
21.06
30.18
30.36
23.84
15.21
9.01
8.06
12.32
19.63
27.09
32.45
34.96
35.68
36.17
37.15
38.39
39.59
40.58
42.97
49.30
61.42
78.56
96.72
109.09
110.70
99.62
77.97
50.91
24.02
1.31
-15.70
-27.43
-35.06
-39.34
-40.95
-40.43
-38.41
-35.72
-32.95
-30.50
-28.44
-26.79
-25.36
-24.31
-24.00
-24.65
-26.65
-30.11
-34.78
-39.96
-44.39
-46.72
-46.90
-46.88
-50.04
-60.15
-78.87
-103.83
-128.76
-145.51
-146.75
-131.15
-102.51
-67.93
-34.55
-6.79
14.50
30.77
43.83
54.31
61.31
63.80
61.60
55.78
48.45
42.27
39.18
39.78
43.58
48.82
53.82
57.69
60.29
61.73
61.89
60.28
56.55
51.61
47.82
48.24
54.70
66.15
78.26
85.65
83.97
72.16
52.81
30.59
9.97
-6.52
-18.79
-27.83
-34.35
-38.41
-39.54
-37.58
-33.30
-28.28
-24.19
-22.34
-22.86
-24.70
-26.44
-26.83
-25.30
-22.19
-18.51
-15.43
-13.78
-13.67
-14.53
-15.53
-15.85
-15.12
-13.53
-11.66
-10.19
-9.59
-9.93
-10.90
-12.06
-12.96
-13.42
-13.54
-13.62
-13.98
-14.84
-16.24
-18.04
-20.09
-22.20
-24.29
-26.37
-28.52
-30.84
-33.42
-36.34
-39.74
-43.76
-48.53
-54.18
-60.72
-68.01
-75.72
-83.28
-89.83
-94.44
-96.34
-94.60
-88.65
-78.44
-64.43
-47.57
-29.03
-10.02
8.40
25.36
40.32
52.89
62.85
70.23
75.31
78.55
80.49
81.74
82.82
84.11
85.65
87.42
89.26
91.11
92.89
94.36
95.16
94.81
93.15
90.56
88.29
87.99
90.56
94.99
98.05
95.45
83.80
62.61
34.52
4.33
-23.31
-45.62
-61.87
-72.28
-76.83
-75.17
-67.63
-56.67
-47.20
-44.95
-53.58
-72.27
-95.62
-116.14
-128.20
-130.68
-127.33
-123.97
-124.46
-128.43
-130.96
-125.66
-108.65
-80.90
-47.91
-17.41
4.34
15.53
18.78
19.15
21.10
26.79
36.45
49.80
66.78
86.90
107.92
124.86
131.52
123.80
102.87
76.59
57.28
57.05
82.38
130.90
191.65
248.86
286.93
295.14
270.63
218.61
150.51
79.95
18.22
-28.99
-62.20
-86.13
-106.52
-126.77
-146.55
-162.34
-169.75
-165.92
-150.81
-126.16
-94.03
-56.12
-14.77
25.91
60.61
83.50
89.56
76.72
47.51
8.86
-29.87
-61.44
-83.72
-100.48
-119.60
-148.28
-190.03
-242.06
-294.09
-332.10
-344.78
-328.00
-286.27
-230.35
-172.21
-120.28
-76.92
-39.37
0.49
49.00
107.83
173.63
239.63
298.36
344.52
376.75
388.97
380.44
353.16
310.84
257.86
198.91
138.63
81.20
30.06
-12.92
-46.35
-70.89
-88.59
-101.82
-112.12
-120.04
-125.74
-128.26
-126.43
-118.61
-104.53
-85.09
-61.67
-35.18
-6.39
23.36
51.28
72.68
82.68
77.34
55.63
19.01
-25.50
-68.00
-99.37
-114.32
-112.76
-97.79
-73.87
-45.20
-15.00
14.08
38.76
55.30
61.50
57.13
45.48
33.14
28.02
36.14
58.98
91.13
122.89
143.72
146.84
132.06
105.12
74.35
46.73
25.64
10.62
-0.66
-10.31
-18.98
-25.72
-29.04
-28.00
-22.84
-15.17
-7.37
-1.61
0.78
-0.07
-2.67
-4.86
-4.83
-1.96
3.16
9.24
15.12
19.96
22.69
21.40
13.14
-4.83
-33.10
-69.24
-107.77
-142.47
-168.77
-185.34
-193.81
-196.99
-196.44
-191.37
-179.26
-157.60
-126.65
-90.46
-56.14
-31.18
-20.53
-24.52
-38.79
-56.09
-69.09
-73.07
-67.28
-54.50
-38.33
-22.34
-8.05
5.29
19.32
35.24
52.78
70.17
85.00
95.38
100.85
102.68
103.00
103.45
104.17
103.82
100.79
94.22
84.58
73.69
63.73
56.34
51.96
49.77
48.20
45.77
41.71
36.18
30.11
24.71
20.84
18.69
17.78
17.27
16.41
14.83
12.66
10.36
8.53
7.57
7.50
8.05
8.84
9.51
9.94
10.25
10.65
11.33
12.39
13.72
15.17
16.53
17.74
18.89
20.20
22.10
24.91
28.70
33.17
37.82
42.06
45.27
47.09
46.94
44.46
39.16
30.36
17.23
-0.81
-23.69
-50.39
-78.91
-106.65
-130.59
-148.25
-158.20
-160.26
-155.18
-144.13
-128.17
-106.90
-81.52
-52.92
-22.40
8.16
36.40
60.01
77.07
86.43
87.33
79.55
64.58
45.84
28.39
17.48
16.39
24.91
38.63
51.05
56.49
52.95
42.25
28.67
16.32
7.30
1.41
-2.82
-6.52
-9.70
-11.33
-10.59
-7.61
-3.64
-0.34
0.88
-0.21
-2.79
-5.46
-6.87
-6.32
-4.10
-1.19
1.19
2.18
1.63
0.06
-1.61
-2.54
-2.32
-1.14
0.39
1.62
2.09
1.78
1.03
0.28
-0.13
-0.16
-0.04
-0.11
-0.59
-1.47
-2.51
-3.39
-3.95
-4.32
-4.90
-6.16
-8.35
-11.35
-14.64
-17.50
-19.35
-20.15
-20.45
-21.19
-23.23
-27.03
-32.33
-38.25
-43.71
-47.85
-50.65
-52.74
-55.06
-58.07
-61.38
-63.75
-63.46
-59.28
-50.17
-35.65
-15.41
10.66
41.48
73.89
102.10
119.12
119.83
103.63
75.11
42.24
12.77
-8.50
-20.47
-24.58
-22.73
-16.17
-6.02
5.56
15.08
18.69
14.01
1.90
-13.62
-26.87
-32.65
-28.25
-14.54
4.08
21.12
30.23
27.90
15.07
-2.88
-18.33
-24.47
-17.46
3.15
35.00
73.77
113.60
146.99
165.47
161.75
132.54
80.42
13.16
-59.03
-126.36
-181.41
-219.56
-238.11
-236.11
-214.92
-178.71
-134.25
-89.04
-48.33
-13.06
19.89
54.94
93.94
133.42
165.58
181.49
175.53
148.73
109.26
69.71
42.53
35.81
50.62
81.43
118.56
151.65
172.73
177.85
167.19
144.08
113.44
80.41
49.40
23.73
5.72
-3.19
-2.52
6.96
23.12
42.67
61.90
77.44
87.13
90.39
87.91
81.06
71.07
58.61
43.68
25.97
5.46
-17.29
-41.05
-64.40
-86.45
-107.34
-128.10
-149.58
-171.32
-190.94
-204.88
-210.29
-206.99
-198.18
-189.35
-185.85
-190.32
-201.66
-215.60
-226.89
-231.60
-228.36
-218.56
-205.31
-192.82
-185.87
-189.14
-205.82
-235.77
-274.69
-314.43
-345.64
-361.08
-358.50
-341.02
-315.33
-288.02
-262.43
-237.75
-210.13
-175.12
-128.97
-69.94
1.43
82.20
167.00
248.39
318.32
371.24
404.68
422.04
431.43
441.68
457.50
476.80
492.11
495.10
481.85
454.31
418.50
380.72
344.28
309.16
274.04
238.80
205.11
176.57
156.11
144.11
138.09
133.72
126.56
113.66
96.39
76.09
55.04
35.10
16.99
0.06
-17.22
-36.21
-57.08
-78.28
-97.21
-110.88
-117.36
-116.97
-112.27
-107.25
-106.15
-111.72
-124.16
-141.08
-158.24
-170.94
-175.85
-171.61
-156.81
-132.52
-101.54
-67.97
-36.56
-11.32
5.68
15.28
21.14
28.02
40.29
58.16
77.11
89.89
90.51
77.55
54.57
27.84
3.11
-16.87
-32.20
-44.10
-53.30
-59.30
-61.05
-58.18
-51.60
-43.29
-35.93
-31.44
-30.43
-32.04
-34.54
-36.15
-36.01
-34.39
-32.40
-31.57
-33.05
-37.10
-43.08
-49.84
-56.36
-62.24
-67.88
-73.99
-81.51
-90.91
-102.08
-114.40
-127.16
-139.99
-153.12
-167.25
-182.94
-200.37
-218.95
-237.28
-253.58
-266.12
-273.79
-276.25
-274.83
-269.75
-260.68
-246.56
-226.08
-198.36
-163.59
-123.49
-81.07
-39.66
-1.81
31.26
60.20
86.90
113.97
144.03
179.47
221.67
270.26
322.15
369.94
404.93
419.64
410.97
381.84
340.38
296.62
258.59
229.69
208.69
192.15
176.93
161.85
147.42
134.37
122.51
110.48
96.72
80.53
62.82
45.52
30.86
20.12
13.26
8.87
5.03
0.14
-6.46
-14.19
-21.73
-27.64
-31.06
-31.66
-30.46
-28.78
-27.72
-27.74
-28.57
-29.49
-29.70
-28.71
-26.53
-23.64
-20.64
-18.02
-15.96
-14.35
-12.89
-11.22
-9.13
-6.67
-4.01
-1.42
0.99
3.22
5.38
7.62
10.19
13.24
16.73
20.45
23.99
26.85
28.29
27.61
23.59
15.31
2.11
-16.21
-39.22
-65.87
-94.25
-121.95
-146.38
-165.06
-175.95
-177.72
-170.08
-153.07
-128.93
-100.36
-70.18
-40.97
-14.88
6.75
23.32
34.92
42.10
45.53
46.17
45.02
42.91
40.68
38.56
36.75
35.30
34.21
33.11
31.88
30.45
28.83
27.15
25.58
24.39
23.70
23.49
23.43
23.21
22.51
21.23
19.59
18.04
17.17
17.29
18.39
19.90
21.11
21.33
20.33
18.65
17.32
17.53
19.72
23.62
27.83
30.56
30.03
25.21
16.72
5.95
-5.10
-15.08
-23.43
-30.72
-37.94
-45.69
-54.43
-64.14
-75.05
-87.39
-100.79
-113.14
-120.89
-120.29
-109.81
-92.30
-73.72
-60.26
-54.82
-55.33
-56.08
-51.31
-38.85
-20.81
-2.50
11.61
20.26
25.99
32.91
43.78
58.57
74.69
89.44
100.62
108.08
112.88
116.43
119.76
122.60
124.02
122.95
119.31
113.33
106.13
99.04
92.94
87.93
83.17
77.24
66.65
52.24
35.27
17.42
0.36
-14.54
-26.65
-36.13
-43.60
-49.67
-54.38
-57.88
-60.20
-61.14
-60.55
-58.62
-55.91
-53.03
-50.56
-48.47
-46.68
-44.81
-42.47
-39.40
-35.80
-32.23
-29.41
-27.98
-27.79
-28.38
-28.82
-28.13
-25.80
-22.15
-18.31
-15.77
-15.74
-18.36
-22.66
-26.78
-28.74
-27.38
-23.13
-17.95
-14.48
-15.25
-21.26
-31.59
-43.59
-53.72
-58.53
-56.00
-46.18
-31.63
-17.53
-9.95
-13.31
-27.74
-48.17
-65.56
-70.35
-57.56
-29.02
6.89
39.39
59.66
64.97
59.43
52.07
51.80
63.98
88.15
118.16
144.74
158.16
151.78
124.06
79.22
26.26
-22.89
-56.64
-67.68
-55.83
-29.25
-1.66
13.30
8.22
-14.71
-44.82
-68.15
-74.83
-63.14
-39.87
-16.21
-1.78
-0.55
-9.54
-21.62
-29.73
-30.55
-24.91
-16.15
-6.51
4.83
21.01
45.13
76.29
108.30
130.01
132.33
111.87
73.39
28.05
-11.72
-37.52
-48.03
-48.51
-47.37
-51.41
-63.44
-81.61
-100.65
-114.91
-121.00
-118.94
-111.25
-101.74
-92.14
-83.31
-75.68
-69.78
-65.37
-60.06
-48.56
-24.16
16.65
70.78
127.07
170.40
188.59
178.51
147.39
108.91
76.11
55.65
46.89
44.30
42.63
39.86
37.39
37.24
39.75
42.73
41.56
32.84
15.97
-6.36
-29.35
-47.76
-58.20
-59.85
-54.43
-45.29
-35.34
-26.23
-17.91
-9.22
1.31
14.28
28.92
43.30
54.81
61.48
62.29
57.81
48.95
37.11
23.51
8.87
-6.81
-24.24
-43.67
-64.60
-85.35
-103.28
-115.10
-117.99
-110.74
-93.44
-69.72
-44.09
-20.83
-2.62
10.19
19.60
28.78
39.91
53.60
67.90
79.61
85.41
83.49
73.04
54.98
31.65
6.26
-16.51
-31.96
-36.59
-30.72
-19.32
-10.82
-13.16
-29.50
-55.58
-80.34
-91.18
-79.60
-45.33
3.53
54.32
95.33
119.93
126.31
118.44
101.43
79.01
53.24
25.17
-3.33
-28.98
-47.74
-57.02
-56.83
-50.52
-43.44
-40.24
-43.20
-51.20
-60.66
-67.51
-69.45
-66.62
-61.68
-58.31
-59.33
-65.25
-73.96
-82.06
-85.16
-80.03
-64.98
-40.47
-9.30
23.52
51.67
68.96
72.09
62.44
45.45
28.49
17.53
14.76
18.27
23.94
28.05
29.30
28.81
28.58
29.52
31.01
31.34
29.07
24.05
17.41
11.17
7.29
6.48
8.07
10.35
11.36
9.71
5.18
-1.23
-7.68
-12.30
-14.10
-13.28
-11.15
-9.63
-10.35
-14.01
-20.03
-26.77
-32.25
-35.17
-35.18
-33.19
-30.78
-29.50
-30.42
-34.00
-40.22
-48.44
-56.96
-62.61
-61.36
-49.80
-27.05
3.91
37.03
65.31
83.87
91.71
91.70
88.29
84.96
82.74
80.42
76.50
70.70
64.78
61.38
62.68
68.64
76.98
84.44
87.10
83.18
73.04
58.97
44.01
30.64
19.80
11.24
4.50
-0.77
-4.67
-7.78
-11.62
-18.88
-30.45
-45.66
-61.53
-73.78
-79.24
-77.57
-71.38
-64.35
-58.66
-52.91
-43.19
-25.68
0.57
31.91
61.28
81.28
87.54
79.69
62.78
43.04
25.17
10.91
-0.63
-11.10
-21.26
-30.22
-36.23
-37.76
-35.01
-29.65
-23.94
-20.01
-18.64
-19.34
-20.78
-21.53
-20.48
-17.71
-14.04
-10.50
-7.87
-6.35
-5.63
-5.19
-4.58
-3.57
-2.26
-0.75
1.01
3.20
5.96
9.24
12.55
15.19
16.55
16.48
15.54
14.86
15.74
18.95
24.30
30.53
35.96
38.91
38.64
35.63
31.47
28.41
28.72
33.97
44.10
56.56
66.33
67.22
54.24
26.31
-12.39
-53.68
-88.29
-109.76
-117.16
-114.72
-109.47
-107.59
-111.93
-121.14
-130.77
-135.53
-130.73
-113.96
-85.39
-47.86
-7.01
29.41
54.04
61.30
50.29
26.55
0.43
-16.28
-15.23
4.98
38.85
76.74
109.54
131.99
143.15
144.10
135.26
115.53
84.24
44.12
2.29
-31.67
-49.95
-50.32
-37.45
-20.70
-9.80
-11.09
-25.10
-48.16
-74.11
-99.77
-123.23
-143.87
-161.47
-175.13
-182.94
-181.99
-170.10
-146.69
-111.65
-70.01
-27.39
11.45
43.72
68.88
88.50
104.62
118.77
131.18
140.79
146.41
146.82
141.66
130.00
111.75
88.00
61.71
37.46
19.99
13.12
16.98
27.46
37.99
42.79
39.25
28.68
14.89
1.78
-8.35
-15.59
-21.24
-26.44
-31.02
-33.95
-34.36
-32.40
-29.43
-27.13
-26.99
-29.47
-33.89
-38.78
-42.62
-44.60
-44.88
-44.46
-44.61
-46.35
-49.96
-54.92
-60.45
-65.59
-69.84
-73.36
-76.76
-80.71
-85.74
-91.90
-98.66
-105.15
-110.57
-114.14
-115.36
-113.97
-109.50
-101.35
-88.84
-71.45
-48.94
-21.78
9.08
42.15
75.64
107.15
134.99
158.30
176.81
191.51
201.93
207.47
207.47
201.60
190.21
174.56
156.65
138.84
123.00
109.85
99.08
89.38
79.23
67.85
55.71
44.09
34.18
26.14
18.86
10.65
0.41
-10.82
-20.19
-24.90
-24.70
-22.77
-23.77
-30.69
-42.55
-54.88
-62.87
-64.85
-63.61
-63.58
-66.28
-67.65
-60.17
-38.74
-6.06
26.76
45.56
40.69
12.95
-26.63
-62.66
-83.51
-85.58
-73.88
-58.83
-48.47
-45.36
-46.67
-47.60
-44.45
-36.43
-26.15
-17.70
-14.20
-15.83
-19.54
-20.26
-13.32
3.61
29.17
58.43
84.40
100.75
104.55
95.44
75.68
48.98
20.24
-4.77
-20.43
-22.84
-11.68
8.52
28.72
38.85
31.51
6.82
-26.71
-55.98
-69.18
-60.73
-32.74
6.95
50.56
88.52
114.35
126.96
129.30
124.60
113.85
96.09
68.58
31.36
-12.53
-56.73
-94.00
-116.94
-121.76
-109.33
-84.44
-56.40
-29.42
-4.70
18.15
38.83
55.06
62.12
55.53
33.28
-2.59
-45.41
-86.38
-116.68
-127.39
-114.96
-83.27
-41.99
-2.73
25.99
41.30
44.71
40.10
31.83
23.05
15.03
7.74
-0.16
-9.89
-21.86
-35.64
-50.65
-67.16
-86.86
-113.08
-144.55
-175.36
-195.87
-196.74
-174.05
-132.74
-85.22
-46.08
-24.80
-20.54
-23.08
-18.22
4.47
45.99
96.82
141.14
163.44
154.62
115.49
54.74
-13.11
-72.61
-111.99
-126.23
-117.06
-90.84
-55.94
-19.55
13.53
41.10
62.11
75.55
80.35
76.39
65.87
53.55
45.68
46.87
58.12
75.54
91.47
97.52
88.63
65.92
36.73
11.63
-1.14
0.45
11.04
20.67
19.90
4.81
-21.52
-49.75
-68.67
-70.91
-55.96
-29.33
1.03
28.77
51.05
67.74
79.39
86.96
89.14
83.84
69.76
47.70
20.51
-7.88
-33.75
-54.58
-69.58
-79.03
-83.12
-81.82
-74.81
-61.88
-43.36
-20.52
4.55
29.26
51.07
68.27
80.20
87.36
90.91
92.31
92.73
92.72
92.37
91.74
91.05
90.67
91.01
92.20
93.73
94.50
93.78
89.67
80.95
67.66
50.86
32.25
13.48
-4.77
-23.18
-43.75
-68.68
-98.41
-130.51
-159.72
-179.35
-183.85
-170.73
-141.29
-100.25
-54.48
-11.29
22.17
39.43
35.53
8.55
-38.87
-97.96
-155.07
-195.61
-208.84
-191.51
-148.24
-88.76
-23.94
37.00
87.55
122.67
137.75
129.41
97.41
47.36
-9.11
-57.03
-83.22
-81.36
-54.60
-14.11
25.95
54.33
67.00
67.09
60.98
53.62
45.50
33.13
12.17
-18.69
-55.62
-90.32
-113.76
-120.74
-112.24
-94.60
-76.36
-64.19
-58.75
-57.27
-54.64
-45.87
-29.25
-7.01
15.93
34.89
47.62
55.12
60.29
66.20
74.50
84.41
93.78
100.26
102.79
101.65
97.97
92.53
85.37
77.92
70.39
64.61
63.82
71.04
86.79
107.81
127.70
137.18
131.38
110.23
78.26
41.89
7.19
-21.94
-44.01
-59.18
-68.25
-72.01
-71.90
-69.83
-67.96
-67.65
-69.48
-73.01
-76.86
-78.84
-76.82
-70.76
-63.32
-59.90
-66.54
-85.89
-116.20
-150.79
-180.07
-195.00
-190.85
-166.68
-129.10
-86.34
-44.96
-8.50
22.11
47.02
66.26
79.33
85.98
86.59
83.04
77.79
73.01
69.68
67.70
66.19
64.20
61.25
57.21
52.87
49.18
46.56
44.74
43.06
40.87
37.95
34.74
31.95
30.40
30.40
31.36
32.10
31.43
28.84
24.92
21.17
19.50
21.42
27.38
35.84
43.40
45.87
40.04
25.41
5.54
-12.88
-22.53
-18.37
-0.68
24.85
48.64
60.63
53.55
25.36
-20.09
-73.67
-122.94
-156.00
-164.72
-147.14
-108.29
-58.48
-10.32
25.21
42.14
41.06
27.70
10.61
-2.36
-7.01
-3.56
4.55
12.14
15.77
14.77
10.39
4.25
-3.47
-14.19
-29.09
-47.32
-65.20
-77.77
-80.00
-69.59
-47.41
-17.47
14.01
40.35
56.12
58.48
48.23
29.27
7.37
-11.24
-21.75
-21.99
-12.92
1.60
16.16
25.65
27.21
20.54
9.28
-1.42
-7.37
-6.95
-1.40
6.75
15.38
24.03
33.07
42.76
52.02
58.86
61.71
60.33
56.00
50.90
46.94
44.63
43.54
41.59
36.80
28.29
16.51
2.83
-10.96
-23.57
-34.66
-44.51
-53.72
-62.75
-71.53
-79.33
-84.73
-85.77
-80.86
-69.74
-53.96
-36.73
-21.75
-11.50
-5.86
-3.05
-0.06
5.07
12.08
18.69
22.39
21.77
17.01
9.60
1.27
-6.45
-12.37
-15.54
-15.20
-11.88
-7.89
-6.69
-10.98
-20.44
-30.49
-33.69
-22.92
4.76
45.69
89.76
123.88
137.03
123.80
85.98
30.77
-32.31
-94.07
-145.23
-176.29
-180.10
-153.69
-100.80
-32.73
33.43
79.68
93.75
74.01
29.95
-21.93
-64.69
-87.58
-88.93
-75.10
-56.37
-42.39
-39.04
-47.38
-64.66
-85.84
-106.49
-124.04
-137.47
-145.56
-145.38
-132.76
-104.47
-61.32
-9.25
40.15
74.14
85.57
77.09
60.14
49.21
54.70
78.53
115.78
155.55
186.52
201.93
202.12
192.63
180.97
173.93
175.80
189.58
212.77
237.83
255.28
258.10
243.42
212.80
171.37
113.39
46.10
-16.35
-62.68
-91.00
-104.73
-108.29
-105.49
-100.27
-96.50
-94.48
-95.81
-101.24
-109.77
-117.59
-120.84
-118.97
-115.17
-114.75
-121.07
-136.20
-159.28
-185.18
-202.94
-200.67
-171.57
-116.81
-44.91
32.67
103.83
159.09
182.92
168.05
121.71
60.17
-2.53
-59.92
-109.96
-152.10
-186.13
-212.00
-228.30
-234.45
-233.93
-230.08
-225.92
-222.86
-220.44
-217.28
-212.22
-203.21
-188.72
-169.01
-145.21
-118.07
-91.02
-65.85
-43.51
-24.64
-8.67
5.26
17.33
27.00
33.01
33.83
28.64
17.66
2.21
-14.57
-28.50
-35.73
-33.88
-23.17
-6.41
12.25
30.06
45.63
59.82
75.11
94.37
119.45
150.21
184.76
220.59
257.67
294.80
328.73
354.72
368.88
371.11
366.06
361.61
364.89
382.01
410.31
439.39
456.85
455.82
439.36
418.04
403.00
398.61
405.40
415.19
416.83
403.36
376.61
346.77
325.78
319.90
295.52
231.89
126.29
-4.51
-135.72
-246.38
-322.87
-360.89
-364.30
-349.59
-329.06
-314.00
-313.17
-330.26
-362.40
-399.92
-428.93
-437.14
-418.92
-372.31
-303.68
-225.60
-149.87
-90.75
-56.31
-44.77
-47.33
-54.94
-59.53
-58.53
-54.88
-54.24
-61.92
-80.38
-108.99
-143.70
-177.72
-201.54
-203.78
-179.42
-132.96
-77.42
-27.87
4.95
18.48
17.70
11.59
7.57
8.23
12.59
19.16
29.22
43.96
62.59
81.60
95.39
99.00
90.77
74.73
56.95
44.53
42.74
53.28
74.30
101.03
126.39
142.39
142.48
123.73
89.66
49.54
15.27
-3.75
-5.21
4.96
15.80
17.19
5.39
-15.05
-34.73
-45.21
-44.12
-36.08
-29.53
-31.45
-43.18
-59.66
-72.14
-72.96
-59.33
-34.38
-5.55
19.04
33.84
37.38
31.79
21.00
8.97
-1.03
-6.70
-6.94
-2.04
5.53
11.17
9.23
-4.82
-31.86
-67.26
-101.40
-122.64
-121.87
-96.78
-53.37
-4.06
36.84
58.50
57.03
35.90
3.56
-30.71
-60.34
-82.85
-98.58
-108.45
-112.22
-108.64
-97.37
-80.74
-64.14
-54.18
-55.10
-65.72
-78.96
-84.40
-73.60
-44.86
-4.83
34.36
61.15
70.29
64.95
53.81
45.07
41.16
37.79
27.79
7.00
-21.67
-49.20
-66.06
-68.94
-63.36
-60.25
-68.36
-87.96
-110.41
-123.35
-118.38
-95.81
-64.09
-34.51
-15.24
-8.06
-9.48
-14.79
-21.02
-26.84
-30.56
-29.22
-19.83
-1.81
21.50
43.66
57.31
57.22
42.27
18.30
-4.28
-15.50
-12.14
1.92
21.44
43.09
65.15
85.16
100.51
107.04
100.20
78.16
43.96
5.92
-25.78
-41.67
-37.09
-13.60
22.09
59.90
90.26
104.15
99.25
82.02
63.95
55.67
55.96
60.61
60.43
47.16
17.35
-25.17
-71.16
-107.70
-123.72
-114.33
-81.74
-34.93
14.59
56.63
84.97
96.82
91.75
70.68
36.47
-4.92
-46.15
-80.19
-102.33
-110.55
-105.38
-88.80
-63.76
-34.03
-3.60
22.97
42.00
51.48
51.96
45.49
34.56
21.02
5.93
-8.94
-20.74
-25.49
-19.35
-0.45
28.88
61.51
86.82
94.48
79.31
44.36
0.57
-37.36
-57.00
-52.92
-27.67
10.91
53.75
93.49
125.05
144.57
148.66
135.29
105.76
65.77
23.74
-12.81
-40.30
-59.63
-73.38
-82.58
-85.66
-79.93
-64.89
-43.91
-23.08
-7.60
1.78
9.12
19.96
36.63
55.88
70.41
73.70
64.14
46.04
27.00
13.24
6.12
1.92
-4.41
-14.83
-25.71
-29.93
-21.87
-1.63
23.50
42.01
44.32
28.43
1.52
-23.35
-34.89
-30.32
-16.22
-4.28
-4.43
-19.36
-43.51
-66.83
-79.91
-77.76
-63.92
-47.71
-36.89
-33.09
-33.10
-33.31
-32.46
-30.40
-26.57
-20.65
-10.97
4.84
27.80
56.02
85.07
104.48
107.65
94.23
68.63
37.15
5.33
-23.86
-49.52
-71.34
-88.37
-98.47
-98.73
-87.98
-66.92
-37.87
-4.96
26.35
50.16
58.84
50.20
28.63
2.75
-18.49
-29.71
-31.00
-26.86
-23.09
-23.45
-27.29
-31.32
-32.60
-30.48
-26.61
-23.82
-24.39
-28.82
-36.16
-44.14
-51.14
-56.96
-61.90
-65.17
-64.31
-55.89
-37.68
-10.65
20.93
50.73
72.92
84.60
86.61
82.25
75.21
67.80
60.60
53.53
46.73
40.97
37.21
35.80
36.02
36.45
35.65
32.69
27.84
22.25
17.35
14.21
13.14
13.56
14.40
14.54
13.27
10.63
7.28
4.13
1.95
1.29
1.66
2.44
2.96
2.78
1.86
0.52
-0.79
-1.66
-1.94
-1.75
-1.36
-1.03
-0.99
-1.23
-1.64
-2.04
-2.30
-2.34
-2.22
-2.01
-1.78
-1.60
-1.46
-1.36
-1.28
-1.20
-1.12
-1.06
-1.00
-0.95
-0.90
-0.86
-0.82
-0.78
-0.74
-0.71
-0.67
-0.64
-0.60
-0.55
-0.49
-0.42
-0.33
-0.24
-0.13
-0.02
0.10
0.25
0.44
0.68
0.98
1.34
1.72
2.11
2.48
2.85
3.24
3.66
4.12
4.64
5.20
5.79
6.42
7.12
7.99
9.19
10.93
13.28
16.32
19.98
24.19
28.49
32.38
35.44
37.28
37.66
36.41
33.51
28.99
22.61
15.06
6.82
-1.49
-9.13
-15.40
-19.82
-22.22
-22.86
-22.18
-20.84
-19.40
-18.08
-16.75
-15.09
-12.77
-9.69
-6.13
-2.63
0.41
2.59
3.96
4.85
5.75
7.13
9.33
12.52
16.74
21.61
25.98
28.15
26.31
19.41
7.92
-6.01
-19.33
-29.25
-34.40
-35.27
-33.53
-31.10
-29.11
-27.78
-26.65
-25.36
-23.91
-22.56
-21.67
-21.34
-21.38
-21.54
-21.76
-22.09
-22.83
-24.12
-25.86
-27.68
-29.14
-30.02
-29.99
-29.06
-27.25
-24.75
-21.65
-18.17
-14.42
-10.36
-6.01
-1.29
3.63
8.42
12.42
15.18
16.31
15.88
14.49
12.69
11.01
9.76
8.89
8.15
7.39
6.58
5.79
5.26
5.05
5.16
5.52
6.00
6.39
6.42
5.97
4.96
3.65
2.32
1.28
0.79
0.77
0.95
0.91
0.52
-0.13
-0.59
-0.58
0.09
1.23
2.40
3.26
3.72
3.82
3.79
3.85
3.85
3.73
3.25
2.42
1.58
1.08
1.11
1.52
1.98
1.98
1.05
-0.81
-3.22
-5.37
-6.45
-6.09
-4.55
-2.51
-0.75
0.30
0.65
0.62
0.61
0.66
0.49
-0.38
-2.28
-5.22
-8.75
-12.20
-14.92
-16.34
-16.29
-14.70
-11.64
-7.28
-1.98
3.53
8.45
11.91
13.47
13.13
11.28
8.66
5.95
3.67
2.00
1.00
0.58
0.75
1.50
2.81
4.59
6.45
8.00
8.87
8.87
8.11
6.90
5.53
4.00
2.25
0.11
-2.25
-4.43
-5.92
-6.50
-6.37
-5.97
-5.91
-6.31
-6.82
-6.82
-5.71
-3.38
-0.21
3.06
5.76
7.47
8.16
7.96
7.03
5.57
3.80
2.09
0.84
0.44
1.14
2.83
5.18
7.64
9.65
10.78
10.82
9.87
8.32
6.64
5.26
4.35
3.76
3.48
3.44
3.76
4.58
5.79
6.94
7.38
6.56
4.30
1.05
-2.31
-4.85
-5.90
-5.34
-3.60
-1.41
0.56
1.80
2.17
1.87
1.01
-0.30
-1.97
-3.86
-5.72
-7.13
-7.85
-7.80
-7.09
-5.91
-4.41
-2.65
-0.74
0.97
2.04
1.93
0.38
-2.48
-6.05
-9.47
-12.04
-13.37
-13.50
-12.65
-11.31
-9.91
-8.85
-8.44
-8.58
-8.93
-8.88
-7.94
-5.89
-3.02
0.09
2.86
4.84
6.08
6.75
7.12
7.25
7.07
6.51
5.66
4.95
4.82
5.77
7.80
10.61
13.45
15.55
16.45
16.10
15.03
13.80
13.04
12.75
12.69
12.37
11.29
9.44
6.99
4.49
2.34
0.83
-0.14
-0.69
-0.85
-0.51
0.63
2.68
5.45
8.37
10.70
11.87
11.60
10.20
8.08
5.71
3.30
0.91
-1.53
-3.94
-6.05
-7.53
-8.12
-7.90
-7.18
-6.55
-6.42
-6.85
-7.73
-8.87
-10.07
-11.37
-12.85
-14.31
-15.39
-15.75
-15.30
-14.34
-13.50
-13.18
-13.33
-13.56
-13.26
-12.14
-10.41
-8.53
-6.99
-6.05
-5.71
-5.84
-6.24
-6.77
-7.39
-7.97
-8.43
-8.76
-9.04
-9.31
-9.56
-9.69
-9.58
-9.53
-9.90
-10.98
-12.86
-15.02
-16.57
-16.82
-15.71
-13.89
-12.61
-12.92
-15.04
-18.25
-21.18
-22.47
-21.46
-18.36
-13.92
-9.17
-4.79
-1.17
1.59
3.52
4.60
4.82
4.25
3.19
1.94
0.77
-0.28
-1.27
-2.26
-3.08
-3.43
-2.91
-1.45
0.69
2.92
4.71
5.75
6.15
6.38
6.86
7.83
9.12
10.36
11.13
11.26
10.80
9.93
8.86
7.64
6.31
5.06
4.13
3.85
4.50
6.04
8.16
10.39
12.26
13.39
13.65
13.02
11.56
9.57
7.52
5.97
5.42
6.08
7.64
9.51
10.89
11.28
10.50
8.80
6.67
4.63
3.09
2.18
1.83
1.81
1.76
1.35
0.38
-1.20
-3.17
-5.12
-6.66
-7.27
-6.59
-4.45
-0.97
3.38
8.00
12.18
15.46
17.51
18.38
18.13
16.92
14.90
12.21
9.25
6.47
4.35
3.06
2.42
1.89
0.91
-0.73
-2.84
-5.02
-6.79
-7.93
-8.60
-9.01
-9.46
-10.12
-10.91
-11.86
-12.84
-13.70
-14.13
-13.71
-12.17
-9.51
-6.27
-3.13
-0.81
0.61
1.51
2.54
4.27
6.65
9.14
10.88
11.20
9.93
7.61
5.08
3.15
2.25
2.41
3.21
4.06
4.53
4.33
3.54
2.42
1.32
0.56
0.28
0.38
0.64
0.85
0.96
1.13
1.65
2.75
4.54
6.77
8.88
10.47
11.29
11.52
11.61
12.13
13.39
15.27
17.25
18.54
18.48
16.90
14.13
10.91
7.99
5.70
3.90
2.11
-0.06
-2.69
-5.40
-7.60
-8.86
-9.03
-8.49
-7.84
-7.72
-8.54
-10.32
-12.74
-15.20
-16.93
-17.40
-16.47
-14.49
-11.96
-9.44
-7.24
-5.42
-3.92
-2.59
-1.28
0.12
1.68
3.49
5.36
6.93
7.85
8.00
7.62
7.24
7.21
7.52
7.71
7.10
5.28
2.45
-0.75
-3.48
-5.11
-5.49
-4.85
-3.60
-2.25
-1.04
-0.12
0.39
0.45
0.05
-0.69
-1.41
-1.71
-1.36
-0.26
1.37
3.05
4.42
5.32
5.83
6.21
6.59
6.85
6.72
5.89
4.16
1.77
-0.73
-2.70
-3.70
-3.67
-2.96
-2.02
-1.25
-0.89
-0.82
-0.97
-1.28
-1.90
-2.90
-4.35
-6.10
-7.93
-9.63
-10.96
-12.00
-12.84
-13.55
-14.12
-14.20
-13.31
-11.05
-7.42
-2.82
1.86
5.78
8.44
9.73
9.89
9.20
7.81
5.75
3.13
0.31
-1.99
-3.05
-2.60
-0.83
1.58
3.82
5.35
6.01
5.92
5.29
4.26
3.06
2.06
1.73
2.45
4.33
7.02
9.81
12.01
13.26
13.80
14.13
14.70
15.55
16.40
16.72
16.12
14.55
12.25
9.72
7.44
5.54
4.04
2.74
1.42
-0.02
-1.53
-2.82
-3.52
-3.37
-2.30
-0.47
1.50
2.83
2.72
0.79
-2.78
-7.11
-11.07
-13.54
-13.84
-12.11
-9.03
-5.61
-2.90
-1.49
-1.38
-2.19
-3.54
-5.21
-7.14
-9.18
-10.84
-11.62
-11.18
-9.52
-7.00
-4.42
-2.69
-2.45
-3.81
-6.25
-9.30
-12.28
-14.26
-14.46
-12.74
-9.94
-7.57
-7.17
-9.44
-14.77
-22.06
-28.70
-31.72
-29.49
-22.36
-12.20
-1.55
7.58
12.23
11.29
7.19
5.29
11.56
30.63
64.21
110.38
163.42
211.91
244.64
255.60
244.84
216.20
175.12
127.33
77.97
30.73
-16.34
-65.59
-116.48
-166.15
-213.02
-258.31
-305.05
-356.17
-386.35
-376.94
-330.87
-266.21
-197.30
-130.67
-69.95
-18.00
24.18
58.03
82.68
98.11
106.35
110.35
111.44
109.68
105.79
101.88
100.76
101.41
101.96
101.89
102.49
104.67
108.34
112.30
113.43
107.91
91.50
64.60
34.44
11.98
5.05
13.30
27.98
36.71
30.58
8.29
-22.68
-50.40
-65.46
-66.07
-57.98
-49.83
-47.87
-52.84
-61.19
-67.68
-68.26
-62.06
-51.59
-41.39
-35.86
-37.28
-44.85
-55.21
-64.15
-68.82
-68.78
-64.95
-58.14
-47.68
-32.39
-12.55
7.94
22.67
24.98
12.93
-8.17
-27.45
-34.19
-24.48
-4.26
13.42
16.03
-0.85
-30.35
-57.86
-69.17
-58.02
-28.90
6.43
35.65
52.43
58.15
59.48
62.82
70.26
78.81
83.18
79.51
68.41
54.73
45.09
44.22
52.55
66.23
79.19
86.09
84.74
76.93
67.16
60.39
59.87
66.21
77.78
91.51
103.72
110.61
108.65
95.45
70.82
37.56
1.13
-31.93
-56.53
-70.69
-75.83
-75.42
-72.92
-70.23
-67.58
-64.43
-60.53
-56.57
-53.76
-52.88
-53.88
-55.87
-57.82
-58.91
-59.11
-58.77
-58.55
-58.96
-60.13
-61.98
-64.25
-66.67
-68.92
-71.07
-72.02
-70.57
-65.80
-57.22
-45.37
-31.52
-17.48
-5.40
2.53
4.32
-1.38
-14.14
-30.11
-44.06
-49.77
-42.78
-22.75
5.96
36.08
60.35
74.62
78.98
76.52
71.24
65.81
60.70
55.29
49.17
42.88
37.71
34.90
34.42
35.14
35.36
33.51
29.15
23.02
16.58
11.32
7.99
6.27
5.01
2.84
-1.22
-7.24
-14.48
-21.77
-28.12
-33.27
-37.74
-42.62
-48.91
-57.07
-66.72
-76.91
-86.58
-95.12
-102.72
-110.20
-118.63
-128.60
-139.70
-150.46
-158.75
-162.49
-160.32
-152.28
-139.09
-122.01
-102.18
-80.20
-56.11
-29.44
0.81
36.10
77.44
124.28
173.10
217.26
248.42
259.42
247.53
215.59
172.33
128.98
95.38
77.32
75.27
85.78
103.46
122.84
139.38
149.85
152.27
145.76
129.86
105.13
72.55
33.46
-10.04
-54.91
-97.23
-132.90
-158.35
-170.71
-167.86
-148.96
-115.34
-71.38
-24.24
17.91
48.60
65.58
71.42
71.06
68.25
62.89
52.02
33.29
8.52
-15.24
-28.64
-24.44
-1.41
34.73
73.73
104.50
118.40
110.73
81.18
34.14
-21.32
-72.76
-107.61
-117.53
-101.83
-68.01
-28.68
4.20
23.60
29.28
26.42
21.62
19.39
20.47
22.52
21.35
12.50
-7.03
-37.05
-72.84
-105.49
-124.69
-123.81
-104.08
-75.27
-51.58
-44.17
-55.20
-76.71
-95.23
-99.10
-84.39
-55.70
-22.54
6.37
27.05
40.66
50.77
60.42
70.88
82.32
94.98
109.39
125.22
140.20
149.95
149.28
134.35
104.17
60.39
6.07
-55.53
-120.82
-184.61
-238.97
-274.19
-281.85
-259.27
-212.05
-152.89
-96.73
-54.79
-30.43
-19.41
-13.87
-7.76
-0.10
5.25
3.02
-9.45
-30.23
-53.74
-73.86
-86.51
-90.85
-88.60
-82.19
-73.66
-64.33
-55.15
-47.09
-40.79
-36.00
-31.12
-23.43
-10.22
10.20
37.70
70.67
106.66
143.12
177.71
208.27
232.72
249.28
256.97
255.90
247.28
233.11
215.55
196.34
176.51
156.50
136.35
116.03
95.70
75.87
57.22
40.43
25.94
13.83
3.83
-4.53
-11.76
-18.23
-24.10
-29.29
-33.64
-37.00
-39.35
-40.82
-41.64
-42.06
-42.28
-42.38
-42.35
-42.08
-41.51
-40.62
-39.44
-38.07
-36.58
-35.04
-33.51
-32.00
-30.47
-28.92
-27.34
-25.72
-24.07
-22.33
-20.48
-18.53
-16.65
-14.92
-13.49
-12.49
-12.20
-12.77
-14.22
-16.43
-19.16
-22.09
-24.86
-27.13
-28.63
-29.13
-28.53
-26.78
-23.96
-20.29
-16.09
-11.75
-7.72
-4.34
-1.85
-0.29
0.50
0.82
1.02
1.30
1.69
2.00
1.96
1.47
0.46
-0.78
-1.83
-2.27
-1.89
-0.90
0.13
0.55
-0.09
-1.83
-4.10
-6.03
-6.81
-6.02
-4.05
-1.89
-0.67
-1.20
-3.54
-6.80
-9.64
-10.92
-9.94
-7.10
-3.38
0.15
2.65
3.39
1.95
-1.70
-6.52
-9.89
-8.21
1.71
20.88
46.70
73.34
93.80
102.76
98.07
82.83
62.20
41.09
22.41
6.75
-6.43
-17.48
-25.97
-30.98
-31.93
-29.57
-25.63
-22.00
-20.22
-20.56
-22.28
-24.06
-24.70
-23.47
-20.75
-17.55
-15.01
-13.91
-14.32
-15.70
-17.15
-17.88
-17.47
-16.15
-14.51
-13.20
-12.70
-13.05
-13.98
-15.01
-15.74
-15.92
-15.66
-15.18
-14.80
-14.67
-14.82
-15.18
-15.64
-16.15
-16.80
-17.78
-19.18
-21.04
-23.10
-24.86
-25.69
-24.95
-22.12
-16.93
-9.46
-0.20
10.09
20.48
29.97
37.65
42.49
43.99
41.88
36.21
27.30
15.84
2.89
-10.37
-22.77
-33.49
-42.17
-49.10
-55.04
-60.89
-67.24
-73.99
-80.33
-84.89
-86.26
-83.12
-74.94
-61.94
-44.98
-25.04
-2.79
21.40
47.13
73.46
98.79
120.67
136.33
143.72
142.09
132.73
118.36
102.45
88.44
79.25
76.95
82.38
94.48
108.84
119.55
119.98
105.52
76.14
37.05
-3.17
-36.12
-56.90
-65.60
-65.86
-62.39
-58.25
-54.17
-49.44
-43.60
-37.36
-32.24
-29.72
-29.96
-31.82
-33.38
-32.81
-29.44
-23.91
-17.78
-12.76
-9.97
-9.37
-10.01
-10.46
-9.42
-6.46
-1.96
3.11
7.66
11.04
13.38
15.23
17.40
20.62
24.78
29.16
32.63
33.99
32.41
27.86
20.96
12.88
5.10
-1.04
-4.66
-5.38
-3.25
1.38
8.12
16.32
25.17
33.68
40.63
44.49
43.91
37.85
26.22
10.01
-8.93
-28.88
-48.35
-66.23
-81.64
-93.90
-102.60
-108.52
-111.03
-110.18
-106.18
-98.90
-88.11
-73.48
-55.21
-34.31
-12.52
8.44
26.99
41.96
52.70
58.44
58.15
50.78
35.68
13.39
-14.89
-47.32
-80.59
-109.80
-129.13
-133.34
-120.12
-91.71
-54.78
-18.14
10.44
27.14
32.80
31.30
26.98
22.39
17.81
12.45
5.82
-1.55
-8.23
-12.85
-15.18
-15.99
-16.58
-17.93
-19.86
-20.55
-17.67
-9.03
6.38
27.95
53.69
80.53
105.30
125.53
139.76
147.44
148.73
144.10
133.27
117.38
97.58
75.17
51.84
29.39
9.52
-6.55
-18.28
-25.95
-30.30
-32.55
-34.01
-35.47
-37.15
-38.83
-40.07
-40.54
-40.30
-39.69
-39.46
-40.36
-42.72
-46.27
-50.26
-53.69
-55.78
-56.39
-56.10
-56.24
-58.30
-63.05
-70.13
-78.25
-85.49
-90.12
-91.25
-89.14
-85.00
-80.58
-76.74
-73.17
-68.39
-60.04
-45.43
-22.45
9.66
48.93
90.13
125.11
145.22
144.31
121.40
81.55
34.99
-5.76
-29.91
-31.45
-10.91
25.48
68.10
106.84
133.72
144.40
138.73
119.48
89.99
54.90
18.30
-16.42
-46.13
-67.93
-80.54
-84.36
-81.91
-77.08
-73.64
-73.95
-77.82
-82.76
-85.15
-81.70
-70.72
-52.89
-30.69
-7.54
13.34
30.72
45.47
59.68
75.35
93.17
111.71
128.69
140.30
143.45
137.34
123.74
106.18
88.54
74.22
65.46
62.74
64.63
67.62
66.23
54.03
26.16
-17.91
-72.44
-126.00
-165.26
-179.92
-166.63
-130.11
-80.69
-30.03
13.03
44.45
64.31
74.61
77.46
74.40
66.80
56.80
47.47
42.23
43.10
49.30
56.85
59.87
52.71
32.56
1.23
-35.28
-68.98
-93.12
-104.77
-105.69
-100.86
-95.56
-92.88
-92.20
-90.28
-83.32
-69.25
-48.91
-25.58
-3.40
14.46
26.81
34.50
39.27
42.62
44.97
45.70
43.79
38.68
30.79
21.42
12.30
5.04
0.69
-0.41
1.46
5.57
11.02
16.99
22.91
28.53
33.96
39.51
45.54
52.15
59.11
65.87
71.82
76.41
79.47
81.32
82.59
84.05
86.36
90.06
95.46
102.86
112.20
122.83
133.24
141.35
145.23
144.11
138.87
131.62
124.23
116.58
105.98
87.88
57.77
13.20
-45.16
-113.67
-187.13
-258.65
-321.28
-369.04
-397.62
-405.14
-392.41
-362.69
-320.75
-271.88
-220.96
-172.16
-128.53
-91.72
-62.05
-38.76
-20.47
-5.67
6.71
17.32
26.31
33.48
38.65
41.91
43.68
44.58
45.25
46.14
47.39
48.80
49.95
50.51
50.31
49.45
48.25
47.17
46.51
46.39
46.62
46.78
46.49
45.55
44.06
42.42
41.31
41.31
42.60
44.87
47.30
49.05
49.41
48.10
45.20
41.47
37.66
34.10
30.53
26.09
19.97
11.74
1.65
-9.38
-20.15
-29.90
-38.50
-45.77
-52.84
-60.47
-68.90
-78.17
-88.40
-99.62
-110.99
-119.99
-122.38
-113.69
-91.22
-56.05
-13.57
28.29
61.97
83.14
91.98
91.96
87.53
82.12
77.18
72.80
69.13
67.25
68.56
73.30
78.84
79.66
69.43
44.04
4.18
-43.90
-90.23
-125.00
-142.13
-141.31
-127.01
-105.85
-83.57
-63.66
-47.73
-36.92
-33.10
-38.48
-53.39
-74.81
-95.99
-108.38
-105.02
-83.65
-47.36
-2.83
42.57
83.15
115.43
136.38
143.65
135.65
112.68
78.21
38.47
0.71
-28.88
-46.67
-51.39
-42.93
-22.50
6.62
38.89
67.15
84.08
86.02
74.03
52.93
28.98
6.76
-11.75
-26.79
-39.42
-50.23
-58.97
-65.14
-68.78
-70.54
-71.40
-72.25
-73.13
-73.35
-71.67
-66.72
-57.75
-44.96
-29.39
-12.62
3.67
18.17
30.08
39.09
45.24
48.69
49.50
47.78
43.68
37.51
29.92
21.65
13.45
5.98
-0.36
-5.42
-9.25
-12.00
-14.03
-15.55
-16.86
-18.24
-19.95
-22.12
-24.68
-27.34
-29.75
-31.68
-32.87
-33.39
-33.58
-33.78
-34.07
-34.11
-33.24
-30.63
-25.79
-18.35
-8.54
3.07
15.95
29.93
45.42
63.32
85.11
110.15
138.72
171.04
206.72
244.07
279.82
309.58
329.00
335.77
330.09
315.16
295.57
275.67
258.20
243.73
231.38
219.69
208.18
196.35
183.54
167.84
146.09
114.69
70.77
13.69
-54.65
-129.07
-203.59
-271.56
-326.54
-363.45
-379.75
-375.92
-354.77
-325.67
-295.21
-268.88
-250.80
-242.94
-243.65
-245.79
-240.98
-219.68
-177.77
-117.22
-46.13
25.05
86.88
133.37
160.80
167.57
152.81
116.64
62.57
-3.21
-73.10
-140.91
-202.16
-252.99
-289.88
-308.49
-304.85
-277.10
-228.21
-163.81
-97.40
-37.45
11.46
49.54
80.59
109.87
142.11
180.13
224.54
272.35
317.90
352.42
366.58
354.02
314.03
251.93
175.51
95.03
19.30
-45.77
-98.22
-138.40
-166.82
-183.20
-187.65
-181.46
-167.51
-150.01
-132.60
-117.89
-107.31
-102.10
-101.74
-105.20
-110.44
-113.66
-110.25
-95.99
-68.30
-29.72
13.01
51.78
80.10
95.46
99.36
95.28
86.48
74.92
61.38
46.81
33.12
22.54
16.66
15.54
18.09
21.64
23.68
23.18
21.03
19.65
21.92
30.20
45.43
66.60
90.52
112.62
127.91
132.72
125.93
109.16
86.19
61.31
37.84
17.30
-0.33
-15.80
-29.54
-41.24
-50.39
-56.33
-58.99
-58.96
-57.23
-54.59
-51.49
-47.98
-43.89
-39.15
-33.91
-28.60
-23.81
-20.03
-17.45
-15.96
-15.23
-14.83
-14.43
-13.82
-13.01
-12.18
-11.59
-11.39
-11.53
-11.72
-11.53
-10.53
-8.38
-5.04
-0.68
4.34
9.66
15.03
20.34
25.61
30.85
35.97
40.76
44.91
48.20
50.58
52.12
53.01
53.32
52.97
51.72
49.33
45.70
40.95
35.44
29.63
23.92
18.56
13.62
9.09
4.99
1.40
-1.48
-3.40
-4.10
-3.36
-1.08
2.67
7.47
12.43
16.32
17.95
16.53
11.96
4.92
-3.47
-11.98
-19.72
-26.38
-32.05
-36.90
-40.77
-43.26
-43.91
-42.53
-39.24
-34.61
-29.41
-24.26
-19.31
-14.16
-8.28
-1.22
7.11
16.96
28.34
41.11
54.90
69.36
84.14
98.55
111.76
122.85
132.17
140.40
148.45
156.78
165.79
175.52
184.91
192.19
195.23
194.21
190.11
184.12
175.85
163.51
143.81
112.15
64.56
-1.10
-81.44
-170.26
-260.33
-346.15
-423.82
-486.01
-526.11
-539.21
-536.31
-526.97
-519.83
-515.90
-515.86
-517.48
-515.47
-503.50
-470.88
-413.58
-333.39
-239.56
-144.96
-61.60
4.50
52.34
86.40
111.30
129.19
142.84
155.18
170.05
190.23
217.72
252.06
289.45
323.37
346.15
353.51
345.21
325.04
298.76
272.30
249.48
231.15
215.74
200.51
184.17
166.89
150.01
134.91
122.61
113.43
107.08
102.93
100.03
97.77
95.64
93.28
90.38
86.87
83.11
79.84
78.32
79.25
82.44
86.51
89.12
87.76
80.68
68.15
52.73
39.29
32.35
33.89
41.79
49.75
49.23
32.10
-5.64
-62.54
-131.47
-203.43
-269.08
-320.92
-354.31
-367.60
-362.54
-342.87
-318.52
-293.61
-267.84
-238.30
-201.08
-153.57
-93.78
-24.66
48.84
118.75
178.58
225.63
261.23
288.37
307.50
316.39
307.24
272.86
211.45
129.89
41.42
-39.56
-100.47
-135.33
-145.79
-139.18
-123.66
-105.53
-90.73
-79.95
-72.08
-64.98
-55.60
-40.51
-17.99
10.12
38.73
58.75
61.52
42.31
2.90
-48.27
-99.41
-139.82
-163.46
-170.00
-162.84
-145.45
-120.21
-88.73
-53.24
-17.55
13.93
37.40
51.49
57.36
58.80
60.11
64.57
73.30
84.20
94.18
99.50
97.22
86.09
67.23
43.24
17.21
-7.39
-29.09
-48.03
-65.50
-82.80
-100.58
-118.72
-136.89
-154.68
-171.05
-183.75
-188.67
-181.10
-157.85
-119.57
-71.47
-22.02
20.23
49.86
65.91
71.32
70.41
66.59
61.27
54.47
46.12
37.05
28.87
22.95
19.61
17.82
15.79
11.79
5.13
-3.55
-12.58
-20.04
-24.56
-25.73
-24.18
-21.07
-17.43
-13.70
-9.66
-4.68
1.81
9.86
18.92
28.01
36.19
42.92
48.26
52.75
57.05
61.51
66.02
70.04
72.93
74.32
74.30
73.45
72.53
72.09
72.21
72.54
72.58
71.93
70.65
69.26
68.57
69.49
72.86
79.22
88.59
100.03
111.34
119.28
120.39
112.30
94.88
70.49
43.23
17.43
-3.83
-19.43
-29.95
-36.73
-41.24
-44.09
-45.38
-45.16
-43.89
-42.42
-41.66
-42.16
-43.85
-46.10
-47.96
-48.73
-48.22
-46.86
-45.39
-44.49
-44.34
-44.54
-44.31
-42.81
-39.69
-35.16
-29.89
-24.72
-20.31
-16.88
-14.19
-11.77
-9.14
-6.07
-2.70
0.56
3.19
4.84
5.48
5.35
4.89
4.39
3.84
2.93
1.23
-1.57
-5.39
-9.84
-14.33
-18.29
-21.36
-23.41
-24.48
-24.76
-24.47
-23.92
-23.41
-23.21
-23.40
-23.86
-24.25
-24.25
-23.67
-22.56
-21.19
-19.89
-18.90
-18.34
-18.23
-18.52
-19.10
-19.78
-20.18
-19.73
-17.89
-14.32
-9.14
-2.99
3.21
8.53
12.37
14.57
15.35
15.12
14.27
13.08
11.73
10.47
9.66
9.73
11.08
13.77
17.41
21.08
23.61
23.84
21.06
15.21
6.89
-2.87
-13.02
-22.72
-31.48
-39.05
-45.21
-49.59
-51.56
-50.44
-45.67
-37.03
-24.83
-9.77
7.24
25.22
43.26
60.38
75.46
87.30
94.97
98.17
97.42
93.80
88.42
81.94
74.32
65.16
54.22
41.90
29.35
18.03
9.21
3.52
0.80
0.41
1.56
3.56
5.94
8.34
10.52
12.22
13.25
13.57
13.35
12.90
12.50
12.23
11.64
9.84
5.75
-1.47
-11.99
-25.05
-39.22
-52.76
-64.18
-72.60
-77.75
-79.81
-79.04
-75.67
-69.89
-62.05
-52.89
-43.37
-34.53
-27.11
-21.32
-16.89
-13.27
-9.98
-6.78
-3.82
-1.38
0.33
1.41
2.27
3.49
5.57
8.69
12.58
16.58
19.93
22.20
23.38
23.82
23.83
23.48
22.57
21.01
19.05
17.43
16.99
18.17
20.56
23.02
24.12
22.90
19.31
14.20
8.87
4.43
1.45
-0.01
-0.24
0.32
1.17
1.71
1.31
-0.61
-4.29
-9.41
-15.01
-19.75
-22.29
-21.85
-18.51
-13.18
-7.21
-1.92
1.81
3.68
3.80
2.51
0.22
-2.67
-5.64
-8.09
-9.40
-9.20
-7.55
-5.05
-2.62
-1.11
-0.95
-1.97
-3.51
-4.82
-5.45
-5.34
-4.75
-3.97
-3.10
-2.05
-0.73
0.75
2.02
2.68
2.48
1.57
0.40
-0.56
-1.13
-1.54
-2.28
-3.86
-6.48
-9.89
-13.52
-16.70
-18.95
-20.10
-20.23
-19.58
-18.35
-16.65
-14.55
-12.16
-9.71
-7.43
-5.44
-3.65
-1.79
0.43
3.17
6.32
9.62
12.81
15.72
18.40
20.95
23.49
25.97
28.15
29.68
30.24
29.67
28.02
25.57
22.67
19.61
16.51
13.24
9.61
5.52
1.07
-3.37
-7.36
-10.56
-12.86
-14.28
-14.93
-14.89
-14.16
-12.81
-10.97
-8.93
-7.01
-5.44
-4.26
-3.33
-2.47
-1.62
-0.98
-0.91
-1.81
-3.90
-6.99
-10.48
-13.43
-14.92
-14.34
-11.64
-7.32
-2.23
2.73
6.93
10.13
12.46
14.25
15.76
17.03
17.87
17.92
16.90
14.75
11.76
8.41
5.25
2.63
0.62
-0.98
-2.45
-4.00
-5.62
-7.12
-8.23
-8.79
-8.78
-8.34
-7.77
-7.32
-7.18
-7.42
-7.97
-8.71
-9.52
-10.34
-11.17
-12.00
-12.80
-13.45
-13.84
-13.86
-13.53
-12.95
-12.34
-11.96
-12.01
-12.58
-13.59
-14.76
-15.68
-15.96
-15.33
-13.75
-11.43
-8.76
-6.17
-4.01
-2.45
-1.48
-0.93
-0.56
-0.15
0.39
0.94
1.18
0.70
-0.70
-2.87
-5.19
-6.84
-7.07
-5.67
-3.16
-0.70
0.42
-0.48
-3.07
-6.01
-7.58
-6.43
-2.37
3.41
8.72
11.39
10.51
6.97
3.26
2.33
6.36
15.87
29.88
46.68
64.76
82.94
99.84
113.40
120.27
118.22
108.61
97.20
91.21
94.07
101.89
104.99
93.89
65.88
27.19
-10.65
-37.71
-51.81
-59.58
-71.67
-95.77
-132.40
-175.23
-215.66
-247.14
-266.86
-274.17
-268.37
-247.89
-211.98
-164.26
-110.87
-59.87
-17.91
12.72
34.63
52.42
69.06
83.65
92.20
91.29
81.16
67.01
56.30
55.62
66.44
84.13
100.45
108.05
104.41
92.19
76.87
63.56
54.35
48.64
44.56
41.28
39.33
39.61
41.66
42.58
38.05
25.48
5.27
-17.96
-36.53
-42.70
-31.48
-3.15
36.38
77.41
108.83
122.31
114.97
90.71
55.91
17.77
-17.62
-46.55
-67.60
-80.86
-87.14
-87.32
-82.51
-74.43
-65.41
-57.59
-52.67
-51.02
-51.49
-51.85
-49.69
-43.45
-33.27
-20.64
-7.89
2.78
10.18
14.47
17.00
19.19
21.90
24.86
26.88
26.41
22.36
14.84
5.67
-1.95
-4.54
0.30
12.64
29.93
47.77
61.41
67.46
64.99
55.48
41.87
27.21
13.65
2.14
-7.12
-14.16
-18.96
-21.65
-22.76
-23.41
-24.84
-27.90
-32.55
-37.75
-41.82
-43.28
-41.48
-36.72
-29.97
-22.34
-14.54
-6.84
0.88
8.83
17.03
25.17
32.56
38.25
41.28
41.05
37.59
31.68
24.62
17.78
12.16
8.13
5.54
3.95
3.05
2.69
2.84
3.36
3.86
3.91
3.14
1.39
-1.35
-5.04
-9.60
-14.79
-19.99
-24.23
-26.45
-25.94
-22.70
-17.56
-11.76
-6.53
-2.58
-0.06
1.28
1.82
1.81
1.37
0.58
-0.43
-1.48
-2.41
-3.15
-3.80
-4.51
-5.41
-6.54
-7.73
-8.66
-9.08
-8.85
-8.08
-7.09
-6.21
-5.76
-5.86
-6.44
-7.29
-8.17
-8.83
-9.13
-9.01
-8.52
-7.73
-6.73
-5.61
-4.38
-3.13
-1.91
-0.82
0.05
0.65
0.99
1.16
1.27
1.41
1.64
1.98
2.44
2.99
3.57
4.09
4.43
4.47
4.20
3.70
3.14
2.69
2.43
2.34
2.32
2.24
2.04
1.74
1.39
1.06
0.78
0.52
0.26
-0.01
-0.27
-0.51
-0.77
-1.09
-1.52
-2.04
-2.56
-2.96
-3.11
-2.94
-2.47
-1.81
-1.10
-0.45
0.12
0.62
1.08
1.51
1.85
2.05
2.09
1.99
1.85
1.75
1.73
1.80
1.91
2.01
2.07
2.09
2.04
1.93
1.72
1.40
0.98
0.50
0.01
-0.41
-0.70
-0.80
-0.70
-0.44
-0.12
0.15
0.25
0.14
-0.14
-0.51
-0.86
-1.13
-1.28
-1.34
-1.32
-1.25
-1.13
-1.01
-0.93
-0.92
-0.94
-0.96
-0.90
-0.74
-0.49
-0.23
0.00
0.18
0.31
0.40
0.44
0.41
0.30
0.14
0.02
0.02
0.21
0.56
0.96
1.28
1.42
1.35
1.10
0.78
0.49
0.30
0.22
0.19
0.09
-0.14
-0.49
-0.87
-1.12
-1.13
-0.90
-0.51
-0.14
0.09
0.14
0.09
0.03
0.07
0.19
0.30
0.25
-0.05
-0.59
-1.26
-1.87
-2.23
-2.20
-1.79
-1.10
-0.31
0.38
0.85
1.06
1.05
0.96
0.88
0.89
0.99
1.14
1.28
1.34
1.31
1.23
1.18
1.20
1.35
1.60
1.85
2.01
1.99
1.79
1.49
1.27
1.27
1.54
2.03
2.54
2.88
2.93
2.70
2.28
1.79
1.29
0.79
0.24
-0.40
-1.13
-1.93
-2.78
-3.69
-4.65
-5.62
-6.53
-7.27
-7.82
-8.21
-8.60
-9.13
-9.85
-10.68
-11.40
-11.78
-11.65
-10.98
-9.82
-8.28
-6.45
-4.41
-2.19
0.16
2.58
5.00
7.38
9.68
11.85
13.78
15.33
16.33
16.64
16.22
15.12
13.51
11.60
9.62
7.75
6.07
4.63
3.37
2.21
1.03
-0.23
-1.56
-2.81
-3.72
-3.97
-3.33
-1.85
0.12
2.00
3.20
3.40
2.62
1.16
-0.62
-2.50
-4.46
-6.60
-8.92
-11.24
-13.22
-14.56
-15.14
-15.09
-14.65
-14.00
-13.13
-11.93
-10.35
-8.46
-6.60
-5.19
-4.57
-4.89
-6.01
-7.57
-9.18
-10.49
-11.32
-11.70
-11.74
-11.60
-11.39
-11.09
-10.56
-9.59
-7.96
-5.62
-2.70
0.49
3.62
6.46
8.99
11.32
13.61
15.92
18.14
20.04
21.40
22.14
22.27
21.94
21.23
20.20
18.86
17.25
15.47
13.70
12.13
10.85
9.90
9.22
8.70
8.24
7.79
7.35
6.97
6.69
6.53
6.49
6.48
6.39
6.14
5.69
5.09
4.44
3.88
3.52
3.48
3.77
4.35
5.03
5.59
5.76
5.39
4.50
3.26
1.92
0.64
-0.55
-1.72
-2.90
-4.01
-4.84
-5.13
-4.71
-3.61
-2.07
-0.44
0.91
1.65
1.55
0.43
-1.87
-5.49
-10.55
-17.01
-24.60
-32.85
-41.12
-48.78
-55.27
-60.19
-63.17
-63.89
-62.03
-57.31
-49.75
-39.70
-27.91
-15.41
-3.26
7.65
16.76
23.86
29.03
32.52
34.67
35.86
36.43
36.79
37.29
38.24
39.76
41.71
43.69
45.20
45.74
44.96
42.74
39.13
34.33
28.54
22.01
15.01
7.91
1.16
-4.85
-9.82
-13.69
-16.57
-18.69
-20.31
-21.56
-22.51
-23.20
-23.67
-24.04
-24.43
-24.89
-25.36
-25.69
-25.66
-25.10
-23.91
-22.06
-19.56
-16.46
-12.78
-8.58
-4.03
0.64
5.10
8.99
11.99
13.94
14.87
15.02
14.76
14.46
14.36
14.51
14.77
14.91
14.75
14.23
13.41
12.36
11.11
9.57
7.51
4.70
1.04
-3.40
-8.23
-12.87
-16.56
-18.61
-18.52
-16.14
-11.68
-5.64
1.22
8.06
14.04
18.42
20.73
20.77
18.64
14.61
8.95
1.82
-6.67
-16.37
-26.82
-37.18
-46.37
-53.29
-57.24
-58.09
-56.27
-52.54
-47.67
-42.20
-36.45
-30.60
-24.88
-19.68
-15.41
-12.34
-10.45
-9.33
-8.33
-6.83
-4.48
-1.40
1.94
4.89
6.99
8.17
8.77
9.39
10.60
12.70
15.66
19.14
22.76
26.24
29.50
32.60
35.57
38.35
40.71
42.39
43.21
43.12
42.18
40.53
38.31
35.67
32.80
29.97
27.54
25.85
25.13
25.38
26.35
27.67
28.99
30.06
30.77
31.11
31.02
30.33
28.83
26.33
22.75
18.24
13.06
7.52
1.88
-3.73
-9.29
-14.75
-20.00
-24.80
-28.88
-31.98
-33.99
-34.92
-34.87
-33.93
-32.15
-29.49
-25.92
-21.53
-16.53
-11.27
-6.20
-1.78
1.54
3.32
3.25
1.14
-2.98
-8.90
-16.30
-24.87
-34.36
-44.59
-55.29
-66.03
-76.13
-84.69
-90.73
-93.39
-92.09
-86.65
-77.33
-64.75
-49.77
-33.41
-16.67
-0.53
14.08
26.34
35.61
41.64
44.61
45.25
44.53
43.45
42.72
42.61
42.97
43.44
43.63
43.21
42.00
39.87
36.77
32.72
27.80
22.17
16.13
10.02
4.29
-0.57
-4.08
-5.90
-5.92
-4.41
-1.90
1.00
3.73
5.99
7.70
8.90
9.64
9.93
9.76
9.19
8.38
7.59
7.06
6.90
7.08
7.39
7.54
7.24
6.24
4.39
1.64
-1.92
-6.11
-10.70
-15.46
-20.17
-24.62
-28.59
-31.73
-33.71
-34.21
-33.08
-30.45
-26.70
-22.33
-17.84
-13.49
-9.28
-5.02
-0.40
4.90
11.16
18.54
27.01
36.32
46.02
55.45
63.89
70.59
74.92
76.30
74.27
68.51
58.95
45.83
29.79
11.82
-6.78
-24.56
-40.15
-52.49
-61.03
-65.76
-67.12
-65.80
-62.47
-57.63
-51.65
-44.92
-37.89
-31.13
-25.15
-20.25
-16.45
-13.49
-10.97
-8.49
-5.83
-2.97
-0.17
2.13
3.45
3.56
2.65
1.32
0.41
0.69
2.55
5.89
10.18
14.71
18.87
22.25
24.67
26.11
26.62
26.31
25.35
23.94
22.30
20.62
18.99
17.42
15.93
14.64
13.75
13.51
13.97
14.98
16.16
17.09
17.50
17.35
16.82
16.04
14.97
13.36
10.91
7.41
2.97
-2.00
-6.95
-11.37
-14.84
-17.13
-18.12
-17.73
-15.94
-12.80
-8.42
-3.00
3.18
9.78
16.38
22.50
27.64
31.39
33.50
33.99
33.08
31.15
28.55
25.58
22.40
19.13
15.85
12.63
9.58
6.75
4.17
1.83
-0.25
-2.05
-3.64
-5.19
-7.03
-9.46
-12.57
-16.12
-19.52
-21.93
-22.58
-20.94
-16.97
-11.10
-4.05
3.28
10.01
15.37
18.81
20.02
18.95
15.77
10.87
4.83
-1.64
-7.75
-12.73
-16.03
-17.39
-16.97
-15.23
-12.85
-10.45
-8.48
-7.20
-6.67
-6.91
-7.95
-9.73
-12.10
-14.73
-17.21
-19.20
-20.46
-20.94
-20.71
-19.87
-18.53
-16.72
-14.48
-11.91
-9.13
-6.38
-3.90
-1.90
-0.52
0.24
0.46
0.28
-0.13
-0.68
-1.34
-2.12
-2.97
-3.83
-4.57
-5.03
-5.13
-4.86
-4.31
-3.62
-2.89
-2.19
-1.48
-0.70
0.20
1.18
2.14
2.92
3.40
3.53
3.41
3.16
2.92
2.73
2.53
2.26
1.89
1.52
1.28
1.28
1.55
1.95
2.26
2.31
2.06
1.60
1.14
0.88
0.93
1.27
1.80
2.36
2.85
3.19
3.37
3.40
3.33
3.14
2.81
2.28
1.53
0.60
-0.39
-1.30
-1.96
-2.33
-2.45
-2.45
-2.48
-2.65
-2.98
-3.45
-3.95
-4.39
-4.66
-4.66
-4.36
-3.76
-2.96
-2.09
-1.27
-0.60
-0.08
0.26
0.42
0.41
0.24
-0.01
-0.24
-0.33
-0.26
-0.10
-0.04
-0.27
-0.88
-1.80
-2.78
-3.54
-3.88
-3.73
-3.21
-2.55
-1.98
-1.66
-1.63
-1.80
-2.01
-2.11
-2.01
-1.72
-1.33
-0.97
-0.68
-0.45
-0.21
0.11
0.44
0.67
0.68
0.45
0.08
-0.21
-0.27
-0.04
0.39
0.82
1.06
1.05
0.78
0.37
-0.08
-0.46
-0.72
-0.82
-0.80
-0.73
-0.70
-0.80
-1.04
-1.38
-1.71
-1.91
-1.90
-1.69
-1.33
-0.95
-0.64
-0.49
-0.49
-0.57
-0.63
-0.61
-0.47
-0.29
-0.14
-0.09
-0.14
-0.24
-0.34
-0.34
-0.22
0.02
0.35
0.72
1.09
1.37
1.50
1.44
1.21
0.89
0.57
0.35
0.25
0.22
0.17
0.08
-0.08
-0.27
-0.47
-0.66
-0.86
-1.04
-1.14
-1.09
-0.86
-0.51
-0.19
-0.11
-0.36
-0.90
-1.56
-2.11
-2.40
-2.40
-2.24
-2.07
-2.00
-2.04
-2.09
-2.07
-1.91
-1.63
-1.30
-1.00
-0.77
-0.56
-0.31
0.04
0.49
0.94
1.28
1.43
1.40
1.28
1.18
1.18
1.28
1.40
1.46
1.41
1.25
1.02
0.81
0.66
0.58
0.55
0.57
0.62
0.69
0.76
0.79
0.70
0.45
0.02
-0.51
-1.05
-1.47
-1.67
-1.63
-1.38
-1.02
-0.65
-0.39
-0.31
-0.42
-0.67
-0.93
-1.09
-1.07
-0.83
-0.42
0.08
0.55
0.89
1.02
0.95
0.70
0.40
0.15
0.06
0.17
0.45
0.85
1.25
1.59
1.76
1.73
1.52
1.20
0.89
0.70
0.68
0.76
0.82
0.75
0.51
0.15
-0.21
-0.48
-0.66
-0.80
-0.93
-1.06
-1.14
-1.12
-0.99
-0.81
-0.69
-0.73
-0.95
-1.33
-1.76
-2.13
-2.34
-2.34
-2.11
-1.69
-1.16
-0.63
-0.18
0.13
0.35
0.53
0.73
0.95
1.16
1.29
1.32
1.26
1.12
0.93
0.70
0.48
0.29
0.23
0.32
0.58
0.92
1.23
1.42
1.45
1.34
1.18
1.04
0.97
0.95
0.91
0.80
0.58
0.23
-0.18
-0.57
-0.89
-1.08
-1.16
-1.17
-1.15
-1.13
-1.09
-1.01
-0.90
-0.82
-0.84
-1.03
-1.35
-1.70
-1.93
-1.90
-1.62
-1.17
-0.72
-0.42
-0.28
-0.24
-0.17
-0.01
0.21
0.41
0.50
0.48
0.40
0.37
0.42
0.51
0.53
0.42
0.20
0.00
-0.03
0.17
0.57
1.00
1.31
1.41
1.29
1.03
0.72
0.43
0.23
0.14
0.18
0.28
0.40
0.44
0.33
0.07
-0.26
-0.60
-0.82
-0.90
-0.83
-0.67
-0.50
-0.39
-0.37
-0.43
-0.53
-0.61
-0.61
-0.51
-0.34
-0.15
-0.02
0.01
-0.10
-0.31
-0.51
-0.60
-0.45
-0.03
0.59
1.26
1.80
2.06
2.02
1.78
1.48
1.24
1.12
1.09
1.09
1.08
1.02
0.92
0.79
0.60
0.33
-0.02
-0.38
-0.64
-0.71
-0.60
-0.37
-0.18
-0.15
-0.32
-0.64
-1.00
-1.27
-1.40
-1.36
-1.20
-0.94
-0.63
-0.31
-0.02
0.20
0.30
0.26
0.12
-0.08
-0.30
-0.48
-0.61
-0.66
-0.63
-0.49
-0.29
-0.03
0.22
0.42
0.55
0.67
0.81
1.05
1.36
1.65
1.80
1.71
1.38
0.92
0.51
0.32
0.40
0.68
0.98
1.13
1.03
0.71
0.30
-0.06
-0.24
-0.23
-0.05
0.23
0.54
0.84
1.08
1.23
1.28
1.23
1.11
0.92
0.69
0.44
0.19
-0.00
-0.08
-0.03
0.10
0.22
0.23
0.10
-0.12
-0.32
-0.40
-0.36
-0.27
-0.24
-0.34
-0.57
-0.89
-1.23
-1.58
-1.91
-2.19
-2.36
-2.33
-2.03
-1.50
-0.82
-0.13
0.45
0.86
1.10
1.19
1.21
1.17
1.11
1.02
0.91
0.76
0.60
0.43
0.27
0.12
-0.03
-0.20
-0.36
-0.43
-0.36
-0.13
0.22
0.55
0.72
0.66
0.40
0.09
-0.10
-0.07
0.17
0.52
0.82
1.00
1.04
1.02
1.02
1.07
1.14
1.13
0.95
0.55
-0.03
-0.70
-1.29
-1.71
-1.90
-1.89
-1.78
-1.65
-1.57
-1.54
-1.50
-1.41
-1.25
-1.03
-0.78
-0.53
-0.27
-0.02
0.23
0.43
0.55
0.57
0.54
0.52
0.51
0.52
0.46
0.28
-0.02
-0.36
-0.61
-0.65
-0.41
0.06
0.63
1.12
1.36
1.29
0.94
0.47
0.07
-0.15
-0.20
-0.17
-0.17
-0.25
-0.36
-0.44
-0.45
-0.43
-0.45
-0.55
-0.68
-0.73
-0.61
-0.34
-0.06
0.05
-0.12
-0.54
-1.04
-1.41
-1.53
-1.37
-1.06
-0.72
-0.45
-0.26
-0.11
0.07
0.29
0.53
0.74
0.85
0.86
0.75
0.53
0.26
0.01
-0.14
-0.13
0.04
0.31
0.59
0.83
1.04
1.30
1.64
2.03
2.35
2.43
2.20
1.73
1.17
0.72
0.47
0.41
0.43
0.42
0.33
0.19
0.03
-0.14
-0.34
-0.59
-0.87
-1.10
-1.20
-1.13
-0.94
-0.72
-0.57
-0.52
-0.58
-0.68
-0.76
-0.81
-0.78
-0.68
-0.45
-0.10
0.31
0.69
0.92
0.96
0.82
0.57
0.30
0.07
-0.08
-0.15
-0.12
0.02
0.26
0.58
0.90
1.14
1.23
1.16
0.94
0.64
0.31
0.01
-0.20
-0.29
-0.24
-0.08
0.09
0.20
0.18
0.01
-0.27
-0.58
-0.87
-1.07
-1.16
-1.14
-1.03
-0.84
-0.61
-0.41
-0.29
-0.29
-0.42
-0.63
-0.83
-0.98
-1.07
-1.11
-1.11
-1.06
-0.94
-0.73
-0.48
-0.24
-0.05
0.10
0.30
0.63
1.11
1.66
2.15
2.41
2.40
2.16
1.83
1.53
1.29
1.09
0.85
0.52
0.13
-0.24
-0.48
-0.53
-0.41
-0.21
-0.04
0.02
-0.01
-0.05
0.02
0.27
0.68
1.10
1.37
1.35
1.02
0.49
-0.04
-0.42
-0.59
-0.60
-0.57
-0.60
-0.71
-0.83
-0.85
-0.74
-0.52
-0.31
-0.22
-0.29
-0.50
-0.72
-0.83
-0.77
-0.57
-0.34
-0.22
-0.30
-0.57
-0.93
-1.22
-1.35
-1.32
-1.22
-1.17
-1.25
-1.41
-1.51
-1.42
-1.10
-0.65
-0.22
0.02
0.04
-0.06
-0.13
-0.04
0.21
0.51
0.71
0.75
0.64
0.51
0.49
0.59
0.79
0.97
1.03
0.95
0.80
0.69
0.67
0.76
0.89
0.97
0.96
0.86
0.76
0.76
0.88
1.10
1.34
1.50
1.53
1.42
1.21
0.97
0.75
0.55
0.36
0.16
-0.02
-0.16
-0.25
-0.32
-0.42
-0.62
-0.87
-1.10
-1.19
-1.08
-0.81
-0.50
-0.31
-0.31
-0.45
-0.60
-0.65
-0.57
-0.42
-0.29
-0.24
-0.28
-0.36
-0.40
-0.39
-0.34
-0.28
-0.22
-0.14
-0.02
0.15
0.33
0.45
0.43
0.23
-0.10
-0.44
-0.66
-0.69
-0.52
-0.25
-0.01
0.10
0.03
-0.16
-0.37
-0.52
-0.55
-0.48
-0.33
-0.10
0.22
0.64
1.14
1.64
2.01
2.15
2.06
1.78
1.43
1.14
0.94
0.80
0.64
0.40
0.10
-0.19
-0.34
-0.30
-0.12
0.07
0.08
-0.20
-0.72
-1.32
-1.80
-2.02
-1.99
-1.83
-1.70
-1.69
-1.77
-1.78
-1.57
-1.08
-0.36
0.42
1.05
1.42
1.48
1.30
1.01
0.70
0.46
0.36
0.38
0.53
0.76
0.97
1.08
1.04
0.88
0.67
0.53
0.52
0.60
0.68
0.64
0.45
0.15
-0.13
-0.29
-0.30
-0.20
-0.07
0.05
0.10
0.11
0.08
0.02
-0.09
-0.25
-0.45
-0.63
-0.72
-0.71
-0.60
-0.46
-0.36
-0.35
-0.42
-0.53
-0.63
-0.70
-0.73
-0.74
-0.71
-0.62
-0.44
-0.21
0.00
0.09
0.02
-0.17
-0.39
-0.52
-0.52
-0.41
-0.27
-0.18
-0.14
-0.13
-0.11
-0.11
-0.18
-0.35
-0.62
-0.91
-1.10
-1.10
-0.92
-0.61
-0.29
0.02
0.32
0.63
0.97
1.25
1.42
1.40
1.25
1.07
1.01
1.10
1.30
1.47
1.43
1.11
0.54
-0.11
-0.63
-0.86
-0.71
-0.25
0.36
0.92
1.29
1.39
1.23
0.89
0.46
0.04
-0.29
-0.50
-0.58
-0.62
-0.69
-0.87
-1.16
-1.46
-1.67
-1.71
-1.59
-1.37
-1.14
-0.91
-0.67
-0.39
-0.07
0.22
0.39
0.41
0.31
0.19
0.11
0.12
0.17
0.19
0.16
0.12
0.13
0.22
0.37
0.48
0.48
0.33
0.09
-0.09
-0.09
0.14
0.53
0.88
1.01
0.78
0.25
-0.37
-0.84
-0.97
-0.73
-0.25
0.25
0.62
0.78
0.81
0.81
0.84
0.91
0.95
0.88
0.70
0.42
0.11
-0.18
-0.43
-0.65
-0.82
-0.94
-1.00
-0.98
-0.91
-0.81
-0.76
-0.86
-1.15
-1.62
-2.14
-2.55
-2.69
-2.51
-2.06
-1.48
-0.90
-0.39
0.04
0.41
0.73
0.99
1.17
1.29
1.41
1.59
1.84
2.08
2.22
2.16
1.89
1.48
1.04
0.66
0.40
0.25
0.16
0.11
0.06
0.04
0.07
0.18
0.35
0.59
0.85
1.09
1.25
1.29
1.16
0.87
0.46
0.02
-0.36
-0.63
-0.83
-1.00
-1.18
-1.38
-1.54
-1.65
-1.74
-1.89
-2.18
-2.61
-3.10
-3.51
-3.73
-3.73
-3.58
-3.38
-3.24
-3.18
-3.16
-3.08
-2.85
-2.45
-1.88
-1.21
-0.56
0.01
0.46
0.80
1.09
1.36
1.63
1.90
2.16
2.42
2.69
2.94
3.14
3.20
3.07
2.79
2.43
2.10
1.88
1.81
1.85
1.94
2.02
2.03
1.94
1.74
1.45
1.15
0.92
0.82
0.88
1.06
1.29
1.47
1.50
1.32
0.96
0.49
0.04
-0.27
-0.36
-0.24
-0.02
0.18
0.27
0.23
0.08
-0.14
-0.41
-0.69
-0.98
-1.22
-1.36
-1.37
-1.27
-1.12
-0.98
-0.88
-0.84
-0.79
-0.69
-0.50
-0.25
0.01
0.21
0.28
0.24
0.13
0.05
0.04
0.10
0.17
0.19
0.13
0.01
-0.09
-0.12
-0.07
0.04
0.15
0.23
0.27
0.30
0.32
0.32
0.28
0.15
-0.10
-0.45
-0.85
-1.22
-1.49
-1.58
-1.46
-1.13
-0.62
-0.01
0.60
1.08
1.37
1.40
1.21
0.84
0.38
-0.11
-0.56
-0.94
-1.20
-1.32
-1.29
-1.14
-0.93
-0.71
-0.50
-0.26
0.07
0.51
1.03
1.54
1.94
2.17
2.21
2.13
1.98
1.85
1.77
1.79
1.93
2.21
2.58
2.93
3.11
3.01
2.60
1.96
1.25
0.64
0.23
0.08
0.15
0.36
0.61
0.77
0.76
0.50
-0.01
-0.65
-1.27
-1.70
-1.79
-1.51
-0.96
-0.30
0.23
0.45
0.28
-0.22
-0.89
-1.54
-2.01
-2.28
-2.38
-2.37
-2.26
-2.04
-1.71
-1.29
-0.93
-0.75
-0.83
-1.12
-1.46
-1.66
-1.63
-1.38
-1.05
-0.81
-0.76
-0.86
-0.99
-1.01
-0.86
-0.59
-0.33
-0.23
-0.32
-0.55
-0.78
-0.85
-0.67
-0.29
0.17
0.56
0.81
0.94
1.03
1.19
1.42
1.65
1.79
1.74
1.48
1.09
0.68
0.33
0.07
-0.10
-0.20
-0.21
-0.12
0.07
0.31
0.50
0.61
0.62
0.58
0.54
0.50
0.42
0.21
-0.15
-0.62
-1.09
-1.49
-1.75
-1.88
-1.93
-1.95
-1.93
-1.88
-1.77
-1.61
-1.40
-1.16
-0.91
-0.70
-0.54
-0.49
-0.52
-0.59
-0.63
-0.56
-0.36
-0.07
0.21
0.41
0.47
0.44
0.37
0.30
0.24
0.15
0.05
-0.07
-0.14
-0.11
0.05
0.31
0.61
0.90
1.09
1.19
1.19
1.13
1.04
0.95
0.86
0.73
0.50
0.15
-0.28
-0.67
-0.87
-0.80
-0.46
0.02
0.48
0.77
0.82
0.69
0.45
0.24
0.13
0.14
0.23
0.34
0.41
0.41
0.33
0.24
0.19
0.16
0.13
0.02
-0.17
-0.41
-0.61
-0.67
-0.57
-0.36
-0.16
-0.08
-0.19
-0.45
-0.73
-0.85
-0.70
-0.28
0.26
0.75
1.02
1.05
0.93
0.81
0.82
0.96
1.11
1.15
1.00
0.70
0.40
0.21
0.21
0.34
0.51
0.60
0.60
0.52
0.41
0.33
0.27
0.25
0.26
0.29
0.35
0.41
0.44
0.42
0.34
0.24
0.17
0.14
0.17
0.21
0.24
0.24
0.18
0.08
-0.09
-0.34
-0.62
-0.89
-1.08
-1.16
-1.15
-1.12
-1.11
-1.12
-1.12
-1.07
-0.97
-0.85
-0.78
-0.79
-0.84
-0.84
-0.73
-0.50
-0.24
-0.06
-0.03
-0.13
-0.25
-0.29
-0.15
0.14
0.50
0.79
0.93
0.91
0.77
0.59
0.46
0.40
0.43
0.53
0.71
0.93
1.15
1.33
1.42
1.40
1.28
1.06
0.78
0.45
0.14
-0.13
-0.29
-0.31
-0.21
-0.04
0.13
0.22
0.24
0.22
0.17
0.10
-0.03
-0.23
-0.47
-0.66
-0.72
-0.63
-0.46
-0.34
-0.35
-0.47
-0.59
-0.60
-0.42
-0.11
0.23
0.48
0.62
0.70
0.81
1.00
1.25
1.49
1.65
1.69
1.62
1.48
1.27
1.01
0.70
0.37
0.09
-0.11
-0.23
-0.33
-0.48
-0.72
-1.03
-1.32
-1.51
-1.54
-1.45
-1.24
-0.97
-0.66
-0.34
-0.03
0.21
0.33
0.30
0.11
-0.20
-0.54
-0.84
-1.05
-1.15
-1.16
-1.14
-1.10
-1.07
-1.02
-0.96
-0.89
-0.85
-0.87
-0.92
-0.95
-0.91
-0.79
-0.66
-0.61
-0.67
-0.80
-0.87
-0.73
-0.32
0.29
0.94
1.40
1.52
1.27
0.75
0.15
-0.33
-0.55
-0.48
-0.14
0.35
0.88
1.31
1.59
1.68
1.60
1.38
1.09
0.80
0.56
0.40
0.31
0.28
0.29
0.33
0.40
0.53
0.71
0.89
1.02
1.02
0.87
0.62
0.33
0.11
-0.01
-0.05
-0.07
-0.11
-0.17
-0.19
-0.08
0.17
0.52
0.87
1.08
1.05
0.77
0.29
-0.25
-0.77
-1.16
-1.45
-1.64
-1.75
-1.75
-1.59
-1.24
-0.73
-0.19
0.23
0.44
0.44
0.32
0.22
0.21
0.31
0.47
0.61
0.64
0.55
0.34
0.07
-0.17
-0.28
-0.20
0.08
0.50
0.93
1.22
1.27
1.07
0.71
0.30
-0.03
-0.19
-0.21
-0.15
-0.10
-0.12
-0.18
-0.21
-0.14
0.06
0.30
0.48
0.50
0.32
0.01
-0.31
-0.51
-0.53
-0.37
-0.11
0.15
0.30
0.29
0.08
-0.30
-0.77
-1.22
-1.56
-1.73
-1.74
-1.64
-1.49
-1.32
-1.11
-0.80
-0.40
0.06
0.49
0.77
0.87
0.85
0.82
0.86
0.97
1.04
0.98
0.77
0.49
0.32
0.36
0.62
0.97
1.26
1.40
1.37
1.26
1.14
1.02
0.88
0.67
0.37
0.05
-0.20
-0.30
-0.22
-0.04
0.17
0.29
0.29
0.19
0.08
0.03
0.03
0.06
0.03
-0.08
-0.23
-0.37
-0.44
-0.43
-0.39
-0.36
-0.36
-0.39
-0.41
-0.41
-0.41
-0.46
-0.56
-0.72
-0.87
-0.95
-0.92
-0.77
-0.52
-0.23
0.03
0.21
0.27
0.24
0.16
0.10
0.09
0.16
0.27
0.41
0.55
0.69
0.82
0.95
1.04
1.05
0.96
0.78
0.56
0.39
0.30
0.27
0.25
0.15
-0.05
-0.33
-0.59
-0.74
-0.70
-0.49
-0.19
0.12
0.37
0.53
0.57
0.48
0.23
-0.17
-0.65
-1.10
-1.41
-1.51
-1.42
-1.22
-1.04
-0.99
-1.09
-1.26
-1.39
-1.37
-1.17
-0.84
-0.50
-0.30
-0.33
-0.55
-0.86
-1.12
-1.25
-1.23
-1.10
-0.90
-0.67
-0.37
0.02
0.48
0.89
1.13
1.08
0.76
0.36
0.09
0.12
0.49
1.03
1.54
1.81
1.78
1.52
1.20
0.98
0.93
1.06
1.31
1.62
1.91
2.10
2.11
1.89
1.45
0.87
0.29
-0.17
-0.41
-0.43
-0.29
-0.09
0.06
0.10
-0.00
-0.21
-0.46
-0.68
-0.80
-0.82
-0.74
-0.62
-0.50
-0.39
-0.29
-0.21
-0.14
-0.11
-0.16
-0.31
-0.57
-0.88
-1.18
-1.38
-1.45
-1.37
-1.17
-0.91
-0.66
-0.46
-0.32
-0.23
-0.14
-0.05
0.05
0.13
0.14
0.07
-0.06
-0.20
-0.29
-0.29
-0.21
-0.09
0.04
0.15
0.27
0.41
0.56
0.70
0.79
0.82
0.75
0.61
0.44
0.30
0.22
0.23
0.30
0.37
0.38
0.29
0.14
0.00
-0.05
0.05
0.25
0.49
0.66
0.69
0.60
0.44
0.30
0.20
0.11
-0.00
-0.16
-0.32
-0.42
-0.42
-0.34
-0.20
-0.05
0.10
0.28
0.49
0.69
0.79
0.69
0.37
-0.04
-0.34
-0.29
0.24
1.22
2.49
3.78
4.89
5.67
6.12
6.27
6.20
5.98
5.66
5.26
4.76
4.17
3.48
2.74
2.03
1.45
1.09
0.95
0.94
0.92
0.78
0.52
0.22
0.01
-0.02
0.10
0.28
0.39
0.36
0.18
-0.11
-0.48
-0.88
-1.31
-1.73
-2.09
-2.34
-2.45
-2.41
-2.27
-2.06
-1.80
-1.49
-1.08
-0.55
0.07
0.67
1.11
1.22
0.87
0.06
-1.11
-2.46
-3.76
-4.85
-5.62
-6.04
-6.15
-6.02
-5.73
-5.35
-4.87
-4.28
-3.56
-2.70
-1.71
-0.64
0.47
1.58
2.68
3.73
4.69
5.48
6.02
6.18
5.91
5.16
4.01
2.58
1.05
-0.44
-1.76
-2.85
-3.69
-4.25
-4.52
-4.48
-4.16
-3.66
-3.12
-2.70
-2.47
-2.46
-2.62
-2.88
-3.15
-3.37
-3.48
-3.44
-3.21
-2.80
-2.30
-1.82
-1.46
-1.27
-1.24
-1.31
-1.39
-1.43
-1.41
-1.37
-1.31
-1.25
-1.14
-0.93
-0.62
-0.24
0.11
0.39
0.54
0.62
0.69
0.77
0.87
0.94
0.94
0.88
0.80
0.75
0.74
0.70
0.57
0.34
0.06
-0.18
-0.26
-0.19
0.01
0.22
0.37
0.41
0.37
0.32
0.30
0.32
0.31
0.24
0.08
-0.14
-0.32
-0.38
-0.30
-0.10
0.15
0.37
0.53
0.63
0.66
0.62
0.49
0.28
0.03
-0.21
-0.41
-0.57
-0.74
-0.93
-1.12
-1.23
-1.17
-0.92
-0.54
-0.16
0.13
0.27
0.27
0.21
0.13
0.10
0.12
0.21
0.40
0.63
0.87
1.02
1.02
0.86
0.60
0.38
0.29
0.38
0.60
0.83
0.96
0.94
0.81
0.66
0.55
0.53
0.54
0.54
0.50
0.43
0.40
0.48
0.70
1.00
1.26
1.38
1.30
1.06
0.72
0.40
0.18
0.07
0.09
0.17
0.29
0.40
0.49
0.53
0.51
0.40
0.18
-0.11
-0.41
-0.61
-0.67
-0.58
-0.45
-0.39
-0.47
-0.64
-0.80
-0.80
-0.61
-0.32
-0.08
-0.00
-0.05
-0.08
0.01
0.23
0.41
0.36
-0.00
-0.57
-1.09
-1.33
-1.22
-0.90
-0.60
-0.52
-0.72
-1.13
-1.60
-2.03
-2.38
-2.62
-2.73
-2.67
-2.40
-1.94
-1.39
-0.87
-0.44
-0.08
0.30
0.77
1.36
1.97
2.47
2.75
2.76
2.55
2.22
1.88
1.59
1.40
1.31
1.31
1.38
1.44
1.41
1.21
0.84
0.37
-0.06
-0.29
-0.25
-0.01
0.31
0.54
0.57
0.37
0.03
-0.31
-0.52
-0.51
-0.26
0.17
0.68
1.15
1.49
1.65
1.66
1.57
1.41
1.21
0.98
0.73
0.48
0.30
0.23
0.31
0.50
0.75
0.98
1.12
1.09
0.91
0.63
0.35
0.20
0.26
0.48
0.74
0.89
0.82
0.55
0.18
-0.14
-0.32
-0.37
-0.37
-0.42
-0.53
-0.63
-0.65
-0.57
-0.48
-0.49
-0.73
-1.16
-1.63
-1.94
-1.94
-1.61
-1.10
-0.62
-0.32
-0.23
-0.26
-0.29
-0.28
-0.26
-0.32
-0.51
-0.78
-0.99
-1.00
-0.78
-0.43
-0.12
-0.01
-0.13
-0.40
-0.68
-0.87
-0.90
-0.82
-0.65
-0.44
-0.18
0.10
0.34
0.46
0.35
-0.00
-0.51
-1.01
-1.29
-1.24
-0.87
-0.33
0.17
0.49
0.60
0.56
0.52
0.55
0.64
0.75
0.81
0.79
0.70
0.57
0.42
0.26
0.08
-0.09
-0.19
-0.21
-0.15
-0.06
-0.00
-0.03
-0.15
-0.32
-0.49
-0.60
-0.62
-0.54
-0.40
-0.24
-0.09
0.04
0.17
0.30
0.44
0.55
0.57
0.44
0.17
-0.14
-0.36
-0.38
-0.16
0.20
0.59
0.86
0.98
0.96
0.83
0.65
0.45
0.25
0.08
-0.00
-0.00
0.08
0.20
0.33
0.41
0.43
0.37
0.21
-0.07
-0.41
-0.71
-0.86
-0.79
-0.54
-0.22
0.06
0.22
0.27
0.27
0.23
0.15
-0.00
-0.25
-0.55
-0.82
-1.01
-1.08
-1.05
-0.96
-0.84
-0.70
-0.53
-0.38
-0.30
-0.32
-0.44
-0.57
-0.61
-0.52
-0.34
-0.20
-0.17
-0.26
-0.37
-0.38
-0.20
0.13
0.50
0.78
0.87
0.76
0.48
0.16
-0.11
-0.23
-0.13
0.18
0.64
1.11
1.48
1.66
1.66
1.54
1.36
1.16
0.95
0.72
0.49
0.25
0.05
-0.10
-0.20
-0.28
-0.38
-0.49
-0.59
-0.61
-0.47
-0.14
0.31
0.75
1.01
0.97
0.65
0.16
-0.33
-0.65
-0.76
-0.73
-0.69
-0.72
-0.86
-1.01
-1.08
-1.00
-0.78
-0.46
-0.15
0.11
0.33
0.51
0.66
0.72
0.66
0.45
0.17
-0.06
-0.12
0.05
0.36
0.67
0.81
0.73
0.47
0.15
-0.09
-0.18
-0.12
0.05
0.26
0.43
0.52
0.49
0.35
0.14
-0.08
-0.25
-0.34
-0.34
-0.29
-0.21
-0.10
0.06
0.27
0.50
0.66
0.72
0.64
0.49
0.35
0.28
0.28
0.30
0.25
0.11
-0.08
-0.23
-0.29
-0.24
-0.17
-0.14
-0.20
-0.32
-0.41
-0.42
-0.32
-0.18
-0.07
-0.01
-0.02
-0.04
-0.04
-0.01
0.03
0.04
-0.01
-0.16
-0.37
-0.60
-0.76
-0.74
-0.55
-0.24
0.04
0.14
0.02
-0.25
-0.46
-0.46
-0.20
0.18
0.46
0.46
0.16
-0.30
-0.68
-0.78
-0.56
-0.09
0.46
0.92
1.20
1.26
1.14
0.87
0.52
0.13
-0.28
-0.65
-0.96
-1.15
-1.19
-1.05
-0.77
-0.42
-0.10
0.10
0.12
-0.03
-0.28
-0.53
-0.73
-0.83
-0.80
-0.66
-0.40
-0.06
0.32
0.68
0.97
1.14
1.19
1.15
1.05
0.90
0.69
0.42
0.14
-0.11
-0.27
-0.31
-0.26
-0.14
0.05
0.31
0.66
1.05
1.40
1.59
1.55
1.25
0.77
0.23
-0.25
-0.59
-0.75
-0.73
-0.58
-0.33
-0.07
0.14
0.22
0.15
-0.06
-0.36
-0.67
-0.91
-1.03
-0.97
-0.75
-0.45
-0.17
-0.05
-0.15
-0.42
-0.74
-0.98
-1.01
-0.86
-0.59
-0.29
-0.01
0.23
0.45
0.62
0.69
0.60
0.38
0.09
-0.13
-0.20
-0.08
0.17
0.44
0.61
0.63
0.49
0.27
0.06
-0.06
-0.03
0.11
0.24
0.25
0.09
-0.21
-0.50
-0.63
-0.50
-0.14
0.34
0.81
1.17
1.41
1.55
1.61
1.58
1.43
1.17
0.83
0.48
0.19
-0.01
-0.11
-0.10
0.03
0.25
0.50
0.65
0.56
0.16
-0.53
-1.35
-2.10
-2.57
-2.64
-2.33
-1.76
-1.11
-0.56
-0.23
-0.16
-0.30
-0.54
-0.75
-0.86
-0.85
-0.74
-0.53
-0.26
0.06
0.40
0.69
0.86
0.88
0.76
0.58
0.43
0.37
0.45
0.62
0.85
1.08
1.27
1.37
1.31
1.07
0.67
0.20
-0.21
-0.41
-0.36
-0.10
0.20
0.42
0.45
0.33
0.18
0.12
0.22
0.44
0.68
0.82
0.81
0.70
0.55
0.42
0.30
0.16
-0.03
-0.29
-0.58
-0.84
-1.03
-1.14
-1.21
-1.30
-1.42
-1.55
-1.61
-1.51
-1.23
-0.80
-0.34
0.03
0.21
0.23
0.13
0.03
-0.03
-0.02
0.02
0.05
0.04
-0.01
-0.08
-0.14
-0.15
-0.10
0.02
0.21
0.44
0.69
0.93
1.12
1.23
1.21
1.05
0.76
0.42
0.13
-0.00
0.05
0.25
0.48
0.64
0.67
0.62
0.54
0.49
0.47
0.46
0.40
0.29
0.15
0.03
-0.03
-0.03
-0.00
0.00
-0.02
-0.07
-0.11
-0.11
-0.10
-0.10
-0.11
-0.14
-0.15
-0.13
-0.13
-0.21
-0.41
-0.75
-1.14
-1.44
-1.53
-1.35
-0.95
-0.45
0.03
0.36
0.55
0.64
0.72
0.81
0.91
0.96
0.89
0.70
0.46
0.23
0.11
0.08
0.10
0.10
0.02
-0.14
-0.32
-0.46
-0.54
-0.53
-0.45
-0.32
-0.17
-0.01
0.13
0.22
0.26
0.29
0.31
0.34
0.39
0.42
0.39
0.30
0.14
-0.08
-0.36
-0.69
-1.06
-1.41
-1.64
-1.66
-1.40
-0.93
-0.36
0.10
0.29
0.16
-0.22
-0.70
-1.10
-1.27
-1.17
-0.83
-0.36
0.12
0.50
0.71
0.73
0.60
0.42
0.29
0.29
0.43
0.65
0.86
0.97
0.93
0.77
0.55
0.35
0.21
0.12
0.08
0.06
0.07
0.10
0.15
0.22
0.25
0.20
0.04
-0.22
-0.56
-0.96
-1.38
-1.77
-2.09
-2.29
-2.33
-2.17
-1.82
-1.34
-0.82
-0.32
0.05
0.26
0.30
0.16
-0.13
-0.56
-1.11
-1.73
-2.33
-2.79
-2.98
-2.82
-2.33
-1.62
-0.87
-0.24
0.18
0.41
0.51
0.60
0.74
0.94
1.17
1.38
1.53
1.63
1.68
1.67
1.60
1.44
1.21
0.95
0.73
0.63
0.67
0.81
0.97
1.09
1.13
1.10
1.04
0.97
0.90
0.82
0.71
0.60
0.54
0.56
0.68
0.84
0.97
1.00
0.90
0.74
0.59
0.51
0.48
0.48
0.44
0.36
0.26
0.15
0.07
0.01
-0.02
-0.02
0.03
0.12
0.22
0.25
0.16
-0.03
-0.26
-0.38
-0.30
-0.00
0.43
0.85
1.16
1.31
1.31
1.24
1.17
1.13
1.12
1.14
1.14
1.08
0.93
0.69
0.37
0.06
-0.16
-0.22
-0.10
0.12
0.29
0.32
0.15
-0.14
-0.42
-0.59
-0.61
-0.53
-0.46
-0.47
-0.60
-0.77
-0.91
-0.94
-0.84
-0.67
-0.50
-0.39
-0.35
-0.33
-0.28
-0.20
-0.13
-0.12
-0.18
-0.29
-0.38
-0.41
-0.39
-0.41
-0.53
-0.78
-1.09
-1.32
-1.31
-1.05
-0.59
-0.11
0.25
0.40
0.36
0.23
0.08
-0.04
-0.15
-0.31
-0.51
-0.72
-0.86
-0.89
-0.83
-0.76
-0.74
-0.79
-0.90
-0.96
-0.91
-0.72
-0.43
-0.11
0.16
0.35
0.45
0.50
0.52
0.54
0.57
0.58
0.57
0.50
0.40
0.28
0.18
0.14
0.14
0.16
0.18
0.21
0.26
0.36
0.46
0.51
0.44
0.23
-0.08
-0.37
-0.53
-0.53
-0.40
-0.24
-0.12
-0.04
0.04
0.16
0.33
0.52
0.67
0.74
0.75
0.72
0.65
0.51
0.29
-0.00
-0.30
-0.52
-0.58
-0.51
-0.38
-0.26
-0.17
-0.06
0.15
0.44
0.74
0.93
0.92
0.70
0.37
0.08
-0.09
-0.11
-0.03
0.08
0.21
0.34
0.50
0.68
0.83
0.89
0.81
0.57
0.22
-0.19
-0.56
-0.83
-0.95
-0.91
-0.77
-0.65
-0.64
-0.80
-1.07
-1.32
-1.42
-1.29
-0.96
-0.49
-0.00
0.41
0.70
0.84
0.83
0.70
0.48
0.25
0.09
0.04
0.14
0.36
0.65
0.96
1.21
1.39
1.45
1.40
1.23
0.97
0.66
0.39
0.20
0.15
0.22
0.34
0.44
0.44
0.32
0.15
0.03
0.00
0.09
0.21
0.28
0.28
0.22
0.15
0.07
-0.03
-0.21
-0.50
-0.83
-1.05
-1.06
-0.82
-0.43
-0.06
0.14
0.13
-0.02
-0.19
-0.25
-0.15
0.08
0.35
0.59
0.73
0.73
0.61
0.42
0.24
0.12
0.07
0.04
0.00
-0.07
-0.15
-0.19
-0.15
-0.06
0.00
-0.05
-0.25
-0.56
-0.89
-1.15
-1.26
-1.24
-1.12
-0.97
-0.85
-0.74
-0.64
-0.54
-0.43
-0.34
-0.30
-0.35
-0.48
-0.68
-0.88
-1.00
-1.05
-1.02
-0.96
-0.94
-0.98
-1.05
-1.12
-1.12
-1.03
-0.84
-0.59
-0.36
-0.18
-0.07
-0.01
0.05
0.14
0.32
0.58
0.89
1.19
1.43
1.58
1.65
1.69
1.75
1.84
1.94
1.98
1.90
1.70
1.44
1.25
1.21
1.32
1.47
1.52
1.37
1.05
0.66
0.37
0.26
0.31
0.42
0.43
0.20
-0.23
-0.77
-1.25
-1.55
-1.64
-1.59
-1.49
-1.42
-1.36
-1.26
-1.05
-0.78
-0.53
-0.42
-0.53
-0.81
-1.11
-1.30
-1.30
-1.12
-0.84
-0.53
-0.21
0.10
0.43
0.75
1.02
1.22
1.34
1.39
1.38
1.30
1.12
0.85
0.50
0.17
-0.04
-0.06
0.12
0.42
0.71
0.86
0.82
0.61
0.32
0.08
-0.02
0.04
0.25
0.53
0.83
1.10
1.33
1.52
1.70
1.87
1.99
1.99
1.77
1.28
0.52
-0.40
-1.36
-2.22
-2.92
-3.42
-3.73
-3.81
-3.64
-3.20
-2.53
-1.71
-0.93
-0.33
0.02
0.11
0.05
-0.02
-0.03
0.09
0.30
0.52
0.67
0.72
0.69
0.66
0.70
0.84
1.05
1.20
1.20
0.99
0.63
0.27
0.05
0.04
0.21
0.48
0.74
0.91
1.00
0.99
0.93
0.82
0.68
0.54
0.45
0.42
0.43
0.44
0.40
0.29
0.11
-0.12
-0.37
-0.63
-0.88
-1.12
-1.31
-1.47
-1.59
-1.65
-1.64
-1.56
-1.36
-1.06
-0.69
-0.32
-0.03
0.15
0.22
0.21
0.18
0.15
0.10
0.02
-0.10
-0.19
-0.18
-0.04
0.21
0.46
0.55
0.38
-0.04
-0.59
-1.10
-1.43
-1.53
-1.43
-1.20
-0.92
-0.64
-0.38
-0.18
-0.07
-0.06
-0.12
-0.19
-0.21
-0.16
-0.12
-0.16
-0.37
-0.74
-1.20
-1.63
-1.93
-2.06
-2.06
-2.03
-2.05
-2.19
-2.42
-2.68
-2.87
-2.94
-2.84
-2.54
-1.97
-1.07
0.18
1.73
3.40
4.91
6.01
6.55
6.58
6.29
5.90
5.59
5.38
5.20
4.90
4.37
3.60
2.69
1.78
1.03
0.53
0.28
0.18
0.11
-0.04
-0.32
-0.66
-0.93
-1.03
-0.92
-0.70
-0.54
-0.59
-0.88
-1.29
-1.61
-1.70
-1.55
-1.25
-0.93
-0.70
-0.59
-0.53
-0.51
-0.51
-0.57
-0.69
-0.84
-0.93
-0.88
-0.71
-0.50
-0.36
-0.38
-0.57
-0.87
-1.18
-1.44
-1.64
-1.81
-1.94
-2.00
-1.96
-1.79
-1.54
-1.29
-1.13
-1.08
-1.11
-1.12
-1.00
-0.71
-0.32
0.11
0.50
0.81
1.07
1.32
1.57
1.78
1.91
1.94
1.90
1.84
1.79
1.70
1.50
1.07
0.36
-0.58
-1.62
-2.61
-3.40
-3.90
-4.08
-3.99
-3.72
-3.43
-3.25
-3.25
-3.37
-3.44
-3.26
-2.71
-1.81
-0.72
0.37
1.35
2.23
3.10
3.98
4.81
5.41
5.65
5.50
5.07
4.52
3.99
3.48
2.91
2.21
1.39
0.55
-0.15
-0.61
-0.85
-0.95
-1.00
-1.06
-1.09
-1.00
-0.76
-0.35
0.14
0.62
1.00
1.22
1.28
1.20
1.01
0.74
0.41
0.04
-0.37
-0.77
-1.12
-1.35
-1.44
-1.39
-1.22
-0.99
-0.74
-0.54
-0.39
-0.25
-0.07
0.21
0.61
1.08
1.53
1.81
1.81
1.50
0.92
0.20
-0.53
-1.15
-1.56
-1.74
-1.69
-1.47
-1.15
-0.83
-0.59
-0.48
-0.53
-0.71
-0.94
-1.15
-1.26
-1.23
-1.09
-0.92
-0.78
-0.70
-0.60
-0.39
0.02
0.63
1.38
2.14
2.80
3.31
3.66
3.90
4.01
3.99
3.79
3.42
2.94
2.42
1.96
1.59
1.30
1.04
0.74
0.34
-0.16
-0.72
-1.28
-1.76
-2.10
-2.28
-2.32
-2.24
-2.15
-2.12
-2.22
-2.47
-2.83
-3.22
-3.55
-3.78
-3.85
-3.78
-3.56
-3.15
-2.52
-1.68
-0.69
0.36
1.34
2.17
2.80
3.24
3.55
3.76
3.91
3.99
3.96
3.80
3.50
3.09
2.67
2.33
2.16
2.16
2.26
2.30
2.14
1.72
1.05
0.25
-0.52
-1.15
-1.59
-1.85
-2.02
-2.13
-2.22
-2.30
-2.35
-2.44
-2.60
-2.85
-3.12
-3.29
-3.22
-2.86
-2.26
-1.56
-0.95
-0.53
-0.31
-0.21
-0.10
0.08
0.35
0.65
0.95
1.20
1.39
1.51
1.53
1.45
1.26
0.99
0.73
0.51
0.35
0.23
0.05
-0.23
-0.63
-1.11
-1.61
-2.08
-2.48
-2.79
-3.00
-3.08
-3.01
-2.79
-2.43
-1.99
-1.51
-1.07
-0.74
-0.57
-0.59
-0.73
-0.91
-1.01
-0.96
-0.72
-0.34
0.13
0.61
1.02
1.34
1.56
1.72
1.89
2.16
2.54
2.99
3.40
3.66
3.69
3.51
3.21
2.90
2.70
2.64
2.71
2.80
2.81
2.69
2.45
2.14
1.84
1.58
1.34
1.07
0.74
0.37
0.05
-0.17
-0.26
-0.29
-0.33
-0.41
-0.53
-0.62
-0.68
-0.70
-0.79
-1.02
-1.43
-1.96
-2.52
-2.95
-3.15
-3.10
-2.88
-2.62
-2.45
-2.42
-2.50
-2.57
-2.50
-2.22
-1.77
-1.27
-0.85
-0.58
-0.45
-0.35
-0.18
0.09
0.42
0.71
0.86
0.86
0.77
0.68
0.67
0.73
0.82
0.84
0.75
0.53
0.23
-0.08
-0.32
-0.45
-0.47
-0.46
-0.50
-0.64
-0.89
-1.17
-1.38
-1.45
-1.36
-1.14
-0.86
-0.56
-0.28
-0.02
0.21
0.39
0.48
0.46
0.39
0.29
0.21
0.15
0.09
0.03
-0.01
0.02
0.17
0.41
0.67
0.81
0.74
0.45
0.04
-0.28
-0.37
-0.17
0.25
0.72
1.11
1.31
1.32
1.19
0.98
0.74
0.53
0.37
0.29
0.29
0.32
0.32
0.22
0.01
-0.26
-0.52
-0.67
-0.69
-0.59
-0.45
-0.37
-0.43
-0.63
-0.91
-1.17
-1.31
-1.29
-1.14
-0.95
-0.81
-0.78
-0.87
-1.02
-1.14
-1.12
-0.93
-0.63
-0.30
-0.05
0.09
0.16
0.24
0.42
0.68
0.93
1.05
0.96
0.68
0.38
0.23
0.32
0.63
1.02
1.31
1.40
1.32
1.17
1.06
1.04
1.09
1.10
1.01
0.80
0.51
0.22
-0.03
-0.20
-0.26
-0.26
-0.21
-0.17
-0.18
-0.24
-0.34
-0.43
-0.47
-0.45
-0.35
-0.22
-0.06
0.15
0.38
0.63
0.83
0.89
0.78
0.52
0.18
-0.17
-0.45
-0.66
-0.81
-0.95
-1.09
-1.20
-1.23
-1.15
-0.97
-0.73
-0.50
-0.35
-0.27
-0.20
-0.06
0.20
0.53
0.79
0.83
0.58
0.10
-0.40
-0.70
-0.65
-0.31
0.15
0.55
0.76
0.77
0.69
0.62
0.59
0.62
0.65
0.66
0.64
0.60
0.57
0.56
0.58
0.61
0.60
0.54
0.42
0.25
0.10
0.01
0.01
0.09
0.21
0.31
0.38
0.40
0.40
0.35
0.22
-0.03
-0.40
-0.86
-1.32
-1.71
-1.99
-2.16
-2.23
-2.19
-2.04
-1.77
-1.42
-1.06
-0.72
-0.45
-0.21
0.02
0.24
0.41
0.48
0.44
0.33
0.27
0.37
0.65
1.00
1.29
1.39
1.28
1.04
0.78
0.60
0.51
0.46
0.36
0.19
-0.00
-0.15
-0.20
-0.17
-0.10
-0.07
-0.08
-0.06
0.08
0.37
0.77
1.12
1.28
1.16
0.80
0.31
-0.18
-0.57
-0.85
-1.01
-1.06
-1.00
-0.85
-0.63
-0.41
-0.23
-0.11
-0.02
0.07
0.16
0.21
0.15
-0.04
-0.31
-0.58
-0.76
-0.79
-0.68
-0.50
-0.32
-0.20
-0.16
-0.13
-0.05
0.10
0.31
0.50
0.57
0.51
0.35
0.19
0.13
0.20
0.36
0.54
0.70
0.79
0.85
0.87
0.85
0.74
0.56
0.32
0.10
-0.02
0.01
0.16
0.38
0.57
0.69
0.70
0.60
0.43
0.23
0.08
0.04
0.14
0.36
0.58
0.69
0.58
0.25
-0.23
-0.71
-1.04
-1.18
-1.20
-1.22
-1.36
-1.63
-1.96
-2.18
-2.15
-1.84
-1.32
-0.70
-0.12
0.34
0.67
0.88
0.98
0.97
0.83
0.57
0.28
0.03
-0.10
-0.10
-0.03
0.05
0.08
0.04
-0.05
-0.14
-0.16
-0.05
0.17
0.48
0.78
0.97
0.97
0.76
0.38
-0.05
-0.38
-0.51
-0.42
-0.15
0.21
0.59
0.94
1.21
1.35
1.30
1.01
0.53
0.01
-0.39
-0.51
-0.37
-0.13
-0.01
-0.17
-0.66
-1.29
-1.86
-2.21
-2.32
-2.29
-2.27
-2.33
-2.45
-2.51
-2.46
-2.30
-2.10
-1.95
-1.89
-1.87
-1.78
-1.54
-1.09
-0.48
0.22
0.87
1.39
1.73
1.91
2.00
2.09
2.24
2.45
2.69
2.88
2.94
2.84
2.65
2.47
2.38
2.45
2.61
2.77
2.77
2.53
2.06
1.48
0.97
0.69
0.71
0.97
1.28
1.49
1.46
1.17
0.69
0.12
-0.46
-0.96
-1.33
-1.55
-1.60
-1.53
-1.41
-1.31
-1.30
-1.35
-1.42
-1.41
-1.28
-1.07
-0.84
-0.66
-0.56
-0.54
-0.60
-0.72
-0.87
-1.04
-1.17
-1.23
-1.15
-0.93
-0.58
-0.17
0.22
0.48
0.56
0.47
0.25
0.02
-0.09
-0.02
0.22
0.51
0.73
0.79
0.68
0.50
0.36
0.33
0.37
0.39
0.28
0.05
-0.23
-0.40
-0.37
-0.15
0.14
0.32
0.32
0.17
0.02
0.05
0.33
0.77
1.19
1.39
1.27
0.87
0.36
-0.07
-0.32
-0.38
-0.34
-0.33
-0.42
-0.58
-0.73
-0.78
-0.70
-0.56
-0.45
-0.50
-0.73
-1.08
-1.44
-1.72
-1.86
-1.89
-1.81
-1.64
-1.36
-0.94
-0.45
0.02
0.37
0.53
0.55
0.53
0.60
0.80
1.09
1.32
1.37
1.19
0.82
0.37
0.00
-0.19
-0.17
-0.01
0.21
0.40
0.50
0.56
0.57
0.58
0.56
0.49
0.35
0.15
-0.04
-0.17
-0.24
-0.26
-0.28
-0.31
-0.36
-0.39
-0.37
-0.30
-0.22
-0.14
-0.09
-0.04
0.04
0.16
0.27
0.31
0.22
-0.00
-0.29
-0.57
-0.77
-0.87
-0.91
-0.93
-0.95
-0.96
-0.93
-0.83
-0.65
-0.42
-0.18
0.04
0.19
0.27
0.30
0.28
0.23
0.17
0.12
0.09
0.11
0.20
0.38
0.59
0.77
0.79
0.63
0.30
-0.09
-0.36
-0.36
-0.03
0.54
1.18
1.65
1.79
1.51
0.89
0.07
-0.72
-1.27
-1.44
-1.19
-0.63
0.05
0.61
0.87
0.81
0.53
0.22
0.02
-0.00
0.09
0.20
0.27
0.30
0.33
0.38
0.44
0.44
0.34
0.09
-0.27
-0.70
-1.09
-1.39
-1.51
-1.43
-1.13
-0.68
-0.18
0.24
0.50
0.55
0.45
0.27
0.07
-0.08
-0.17
-0.22
-0.21
-0.16
-0.04
0.15
0.40
0.61
0.69
0.56
0.25
-0.13
-0.40
-0.44
-0.20
0.23
0.66
0.92
0.90
0.63
0.22
-0.20
-0.52
-0.68
-0.69
-0.59
-0.41
-0.18
0.09
0.37
0.61
0.76
0.75
0.57
0.26
-0.06
-0.32
-0.48
-0.56
-0.64
-0.76
-0.90
-1.00
-0.99
-0.81
-0.53
-0.25
-0.08
-0.08
-0.21
-0.42
-0.61
-0.78
-0.91
-1.01
-1.06
-1.00
-0.79
-0.40
0.10
0.58
0.90
0.98
0.81
0.53
0.31
0.24
0.37
0.58
0.71
0.64
0.34
-0.10
-0.51
-0.70
-0.62
-0.27
0.21
0.69
1.06
1.30
1.43
1.47
1.43
1.28
1.02
0.67
0.30
0.02
-0.07
0.01
0.19
0.32
0.33
0.19
0.01
-0.12
-0.12
-0.02
0.11
0.12
-0.02
-0.31
-0.64
-0.91
-1.04
-1.04
-0.99
-0.99
-1.09
-1.27
-1.47
-1.57
-1.54
-1.37
-1.16
-0.95
-0.76
-0.52
-0.15
0.38
1.00
1.56
1.88
1.89
1.61
1.19
0.78
0.49
0.35
0.33
0.39
0.52
0.70
0.86
0.94
0.86
0.61
0.26
-0.05
-0.21
-0.15
0.07
0.34
0.55
0.67
0.72
0.75
0.80
0.87
0.90
0.87
0.77
0.67
0.64
0.70
0.84
0.94
0.90
0.66
0.21
-0.33
-0.83
-1.18
-1.34
-1.36
-1.31
-1.26
-1.23
-1.21
-1.21
-1.22
-1.30
-1.44
-1.60
-1.68
-1.58
-1.25
-0.71
-0.06
0.54
0.94
1.05
0.89
0.52
0.09
-0.26
-0.43
-0.37
-0.11
0.27
0.65
0.93
1.02
0.92
0.65
0.27
-0.13
-0.47
-0.69
-0.76
-0.68
-0.50
-0.25
0.00
0.20
0.29
0.26
0.16
0.08
0.13
0.35
0.70
1.06
1.27
1.26
1.00
0.55
0.06
-0.37
-0.69
-0.88
-0.97
-0.99
-0.96
-0.90
-0.82
-0.75
-0.69
-0.64
-0.58
-0.51
-0.39
-0.22
-0.02
0.18
0.35
0.45
0.46
0.39
0.27
0.16
0.08
0.04
0.01
-0.02
-0.05
-0.06
-0.06
-0.06
-0.12
-0.26
-0.49
-0.73
-0.85
-0.74
-0.38
0.15
0.68
1.07
1.19
1.06
0.79
0.49
0.25
0.12
0.08
0.08
0.12
0.18
0.27
0.37
0.46
0.49
0.46
0.36
0.23
0.11
0.01
-0.08
-0.21
-0.39
-0.61
-0.80
-0.90
-0.88
-0.75
-0.58
-0.42
-0.32
-0.27
-0.24
-0.23
-0.23
-0.23
-0.21
-0.14
0.02
0.24
0.43
0.49
0.37
0.11
-0.16
-0.31
-0.28
-0.10
0.11
0.22
0.20
0.08
-0.06
-0.13
-0.13
-0.06
0.06
0.18
0.31
0.42
0.51
0.59
0.66
0.77
0.95
1.16
1.31
1.31
1.09
0.69
0.22
-0.13
-0.27
-0.18
0.02
0.15
0.09
-0.17
-0.51
-0.72
-0.68
-0.36
0.10
0.52
0.73
0.66
0.36
-0.08
-0.53
-0.91
-1.20
-1.38
-1.45
-1.41
-1.28
-1.10
-0.95
-0.87
-0.90
-1.02
-1.16
-1.21
-1.08
-0.77
-0.31
0.18
0.58
0.84
0.92
0.88
0.78
0.68
0.59
0.53
0.51
0.57
0.72
0.97
1.25
1.49
1.62
1.60
1.44
1.19
0.89
0.58
0.30
0.12
0.05
0.11
0.26
0.38
0.36
0.15
-0.22
-0.57
-0.75
-0.67
-0.35
0.06
0.36
0.45
0.30
0.02
-0.26
-0.46
-0.56
-0.63
-0.72
-0.81
-0.87
-0.84
-0.73
-0.59
-0.51
-0.53
-0.62
-0.69
-0.68
-0.61
-0.55
-0.59
-0.77
-1.00
-1.14
-1.02
-0.63
-0.05
0.55
1.01
1.25
1.29
1.20
1.06
0.94
0.85
0.77
0.69
0.58
0.47
0.40
0.41
0.54
0.74
0.97
1.12
1.13
1.00
0.77
0.54
0.38
0.29
0.26
0.25
0.21
0.13
-0.00
-0.16
-0.30
-0.40
-0.41
-0.32
-0.16
0.03
0.19
0.31
0.36
0.34
0.28
0.17
0.00
-0.21
-0.45
-0.68
-0.86
-0.96
-0.98
-0.94
-0.87
-0.85
-0.93
-1.13
-1.41
-1.68
-1.80
-1.64
-1.17
-0.46
0.34
1.03
1.49
1.67
1.62
1.39
1.04
0.64
0.23
-0.07
-0.18
-0.04
0.28
0.65
0.90
0.93
0.77
0.54
0.40
0.44
0.62
0.82
0.91
0.80
0.50
0.14
-0.15
-0.28
-0.25
-0.12
0.01
0.10
0.14
0.18
0.29
0.43
0.50
0.37
-0.04
-0.70
-1.44
-2.06
-2.38
-2.34
-1.98
-1.46
-0.92
-0.50
-0.25
-0.18
-0.21
-0.24
-0.20
-0.05
0.18
0.42
0.57
0.58
0.46
0.31
0.23
0.27
0.43
0.62
0.72
0.69
0.54
0.35
0.21
0.13
0.10
0.04
-0.07
-0.20
-0.30
-0.31
-0.20
-0.03
0.14
0.27
0.38
0.48
0.58
0.62
0.56
0.38
0.14
-0.02
-0.01
0.20
0.53
0.83
1.00
0.96
0.76
0.43
0.02
-0.43
-0.86
-1.21
-1.38
-1.33
-1.05
-0.66
-0.30
-0.09
-0.07
-0.22
-0.45
-0.67
-0.85
-0.98
-1.05
-1.07
-0.98
-0.75
-0.37
0.11
0.56
0.87
0.94
0.84
0.69
0.62
0.68
0.80
0.83
0.66
0.30
-0.08
-0.27
-0.10
0.42
1.11
1.71
2.00
1.90
1.46
0.84
0.17
-0.44
-0.94
-1.26
-1.34
-1.16
-0.73
-0.17
0.34
0.64
0.67
0.50
0.24
0.01
-0.16
-0.34
-0.57
-0.85
-1.11
-1.25
-1.21
-1.04
-0.84
-0.72
-0.67
-0.66
-0.60
-0.48
-0.35
-0.28
-0.29
-0.35
-0.41
-0.45
-0.51
-0.66
-0.93
-1.25
-1.45
-1.39
-0.99
-0.33
0.41
1.02
1.36
1.44
1.34
1.21
1.12
1.11
1.11
1.07
0.90
0.62
0.30
0.04
-0.04
0.08
0.36
0.71
1.04
1.28
1.43
1.47
1.43
1.30
1.07
0.74
0.37
0.02
-0.23
-0.37
-0.39
-0.35
-0.32
-0.32
-0.36
-0.43
-0.50
-0.54
-0.56
-0.54
-0.52
-0.49
-0.48
-0.47
-0.48
-0.51
-0.56
-0.60
-0.59
-0.54
-0.45
-0.38
-0.41
-0.57
-0.85
-1.14
-1.31
-1.27
-1.03
-0.66
-0.26
0.09
0.39
0.67
0.94
1.12
1.10
0.82
0.29
-0.34
-0.86
-1.09
-0.95
-0.53
-0.03
0.34
0.48
0.39
0.20
0.07
0.11
0.31
0.62
0.91
1.09
1.11
0.98
0.77
0.53
0.32
0.17
0.10
0.14
0.24
0.35
0.44
0.48
0.53
0.64
0.84
1.10
1.30
1.37
1.26
0.99
0.64
0.28
-0.07
-0.43
-0.78
-1.10
-1.35
-1.48
-1.50
-1.47
-1.43
-1.40
-1.35
-1.22
-0.98
-0.65
-0.25
0.17
0.57
0.92
1.19
1.33
1.31
1.12
0.82
0.48
0.17
-0.06
-0.19
-0.20
-0.12
0.02
0.19
0.32
0.40
0.42
0.42
0.41
0.40
0.37
0.32
0.26
0.24
0.31
0.49
0.72
0.87
0.86
0.68
0.42
0.21
0.13
0.17
0.23
0.19
0.03
-0.19
-0.33
-0.32
-0.22
-0.16
-0.30
-0.67
-1.14
-1.54
-1.69
-1.58
-1.33
-1.12
-1.09
-1.24
-1.47
-1.61
-1.57
-1.34
-1.01
-0.66
-0.34
-0.01
0.37
0.82
1.30
1.73
2.02
2.13
2.11
2.00
1.82
1.59
1.27
0.85
0.37
-0.07
-0.39
-0.53
-0.50
-0.39
-0.28
-0.24
-0.27
-0.37
-0.43
-0.40
-0.25
0.01
0.28
0.47
0.52
0.42
0.23
0.01
-0.18
-0.34
-0.46
-0.54
-0.52
-0.36
-0.08
0.27
0.58
0.76
0.77
0.63
0.41
0.15
-0.12
-0.37
-0.60
-0.75
-0.84
-0.88
-0.91
-0.95
-1.01
-1.06
-1.06
-0.99
-0.81
-0.52
-0.14
0.32
0.79
1.17
1.38
1.37
1.18
0.92
0.68
0.55
0.53
0.57
0.62
0.65
0.63
0.54
0.40
0.20
-0.01
-0.19
-0.27
-0.25
-0.14
0.05
0.28
0.53
0.74
0.85
0.79
0.49
-0.02
-0.64
-1.20
-1.55
-1.57
-1.29
-0.80
-0.23
0.26
0.58
0.73
0.73
0.66
0.55
0.40
0.19
-0.09
-0.42
-0.68
-0.75
-0.57
-0.18
0.27
0.59
0.63
0.39
-0.04
-0.49
-0.83
-1.04
-1.15
-1.22
-1.28
-1.29
-1.17
-0.85
-0.32
0.33
0.93
1.29
1.33
1.05
0.59
0.11
-0.24
-0.43
-0.48
-0.47
-0.42
-0.32
-0.13
0.16
0.52
0.86
1.06
1.07
0.88
0.55
0.18
-0.11
-0.26
-0.24
-0.10
0.07
0.17
0.15
0.03
-0.13
-0.26
-0.27
-0.18
0.00
0.19
0.32
0.33
0.24
0.07
-0.09
-0.18
-0.16
-0.07
0.01
0.02
-0.03
-0.11
-0.17
-0.21
-0.25
-0.36
-0.55
-0.77
-0.93
-0.93
-0.77
-0.54
-0.40
-0.44
-0.67
-0.95
-1.12
-1.06
-0.80
-0.42
-0.07
0.18
0.33
0.46
0.60
0.76
0.88
0.92
0.86
0.76
0.68
0.67
0.71
0.72
0.66
0.55
0.48
0.54
0.77
1.11
1.39
1.49
1.34
0.99
0.58
0.19
-0.11
-0.37
-0.59
-0.74
-0.75
-0.53
-0.11
0.37
0.72
0.74
0.40
-0.19
-0.83
-1.29
-1.50
-1.45
-1.25
-1.02
-0.81
-0.67
-0.58
-0.50
-0.43
-0.38
-0.37
-0.47
-0.69
-1.01
-1.35
-1.63
-1.75
-1.67
-1.36
-0.86
-0.26
0.35
0.88
1.26
1.51
1.62
1.63
1.55
1.38
1.13
0.85
0.59
0.39
0.29
0.26
0.25
0.24
0.19
0.12
0.00
-0.15
-0.35
-0.52
-0.62
-0.55
-0.33
0.01
0.37
0.66
0.86
0.96
0.98
0.92
0.76
0.49
0.15
-0.19
-0.45
-0.60
-0.63
-0.58
-0.48
-0.33
-0.17
-0.01
0.08
0.04
-0.12
-0.35
-0.55
-0.62
-0.56
-0.46
-0.44
-0.56
-0.81
-1.07
-1.21
-1.17
-1.01
-0.84
-0.79
-0.88
-1.04
-1.10
-0.95
-0.54
0.06
0.68
1.17
1.42
1.45
1.30
1.04
0.74
0.45
0.19
0.01
-0.04
0.06
0.31
0.65
1.01
1.26
1.35
1.25
1.01
0.70
0.36
0.06
-0.16
-0.28
-0.27
-0.14
0.07
0.28
0.43
0.47
0.41
0.30
0.18
0.04
-0.15
-0.42
-0.78
-1.16
-1.45
-1.54
-1.37
-0.98
-0.46
0.01
0.28
0.25
-0.08
-0.62
-1.18
-1.60
-1.77
-1.69
-1.41
-1.05
-0.70
-0.37
-0.09
0.15
0.32
0.39
0.36
0.26
0.20
0.28
0.55
0.98
1.45
1.81
1.91
1.69
1.20
0.57
-0.00
-0.37
-0.44
-0.25
0.12
0.49
0.72
0.73
0.56
0.29
0.05
-0.05
-0.00
0.09
0.12
0.01
-0.23
-0.48
-0.61
-0.54
-0.31
-0.04
0.14
0.19
0.12
0.05
0.03
0.08
0.13
0.11
-0.03
-0.27
-0.52
-0.74
-0.91
-1.04
-1.17
-1.30
-1.38
-1.37
-1.24
-1.02
-0.78
-0.59
-0.51
-0.51
-0.53
-0.48
-0.29
0.09
0.61
1.20
1.78
2.24
2.49
2.50
2.23
1.72
1.02
0.26
-0.40
-0.83
-0.91
-0.66
-0.20
0.24
0.46
0.37
0.04
-0.32
-0.50
-0.43
-0.14
0.18
0.37
0.37
0.21
-0.01
-0.19
-0.31
-0.40
-0.51
-0.63
-0.76
-0.84
-0.87
-0.84
-0.78
-0.69
-0.57
-0.42
-0.23
-0.02
0.18
0.32
0.36
0.30
0.14
-0.05
-0.21
-0.27
-0.16
0.11
0.46
0.76
0.87
0.71
0.34
-0.13
-0.51
-0.68
-0.56
-0.21
0.23
0.64
0.89
0.95
0.86
0.66
0.44
0.27
0.20
0.23
0.34
0.45
0.49
0.43
0.27
0.06
-0.16
-0.33
-0.42
-0.40
-0.25
0.07
0.53
1.06
1.50
1.67
1.50
1.02
0.42
-0.08
-0.32
-0.32
-0.19
-0.12
-0.16
-0.29
-0.39
-0.36
-0.20
-0.01
0.07
-0.05
-0.33
-0.66
-0.88
-0.90
-0.75
-0.56
-0.48
-0.61
-0.90
-1.23
-1.40
-1.29
-0.88
-0.30
0.28
0.68
0.85
0.84
0.74
0.67
0.68
0.74
0.80
0.78
0.68
0.53
0.39
0.28
0.20
0.10
-0.06
-0.23
-0.37
-0.37
-0.22
0.05
0.30
0.43
0.36
0.14
-0.09
-0.21
-0.17
0.00
0.16
0.17
-0.01
-0.32
-0.65
-0.85
-0.87
-0.73
-0.55
-0.42
-0.38
-0.42
-0.51
-0.59
-0.66
-0.71
-0.69
-0.59
-0.37
-0.08
0.20
0.36
0.36
0.22
0.04
-0.04
0.03
0.26
0.59
0.92
1.20
1.39
1.45
1.38
1.17
0.83
0.41
-0.00
-0.31
-0.45
-0.40
-0.19
0.11
0.43
0.66
0.74
0.65
0.42
0.15
-0.08
-0.18
-0.14
-0.01
0.14
0.23
0.22
0.10
-0.08
-0.29
-0.46
-0.55
-0.51
-0.38
-0.21
-0.07
-0.03
-0.10
-0.25
-0.41
-0.51
-0.54
-0.52
-0.50
-0.52
-0.59
-0.72
-0.87
-1.04
-1.18
-1.27
-1.28
-1.15
-0.87
-0.45
0.08
0.61
1.08
1.39
1.51
1.43
1.20
0.87
0.51
0.16
-0.14
-0.35
-0.43
-0.37
-0.18
0.09
0.35
0.52
0.54
0.44
0.29
0.19
0.21
0.34
0.52
0.67
0.73
0.71
0.63
0.54
0.42
0.26
0.03
-0.24
-0.50
-0.67
-0.68
-0.52
-0.23
0.10
0.35
0.46
0.38
0.16
-0.11
-0.35
-0.48
-0.50
-0.49
-0.53
-0.72
-1.08
-1.53
-1.93
-2.13
-2.03
-1.64
-1.05
-0.38
0.26
0.82
1.27
1.61
1.81
1.83
1.63
1.25
0.80
0.41
0.18
0.18
0.34
0.58
0.76
0.79
0.63
0.34
-0.01
-0.30
-0.50
-0.60
-0.61
-0.58
-0.50
-0.38
-0.21
-0.00
0.20
0.33
0.38
0.33
0.22
0.08
-0.05
-0.17
-0.26
-0.34
-0.40
-0.45
-0.44
-0.33
-0.11
0.19
0.45
0.54
0.38
0.02
-0.39
-0.69
-0.76
-0.60
-0.34
-0.11
0.01
-0.01
-0.12
-0.27
-0.45
-0.63
-0.76
-0.77
-0.64
-0.38
-0.07
0.19
0.37
0.45
0.48
0.50
0.48
0.42
0.30
0.16
0.08
0.11
0.25
0.44
0.58
0.60
0.49
0.30
0.11
-0.02
-0.09
-0.10
-0.06
0.03
0.15
0.28
0.35
0.33
0.21
0.04
-0.08
-0.07
0.10
0.40
0.72
0.93
0.93
0.71
0.31
-0.16
-0.60
-0.93
-1.12
-1.15
-1.03
-0.78
-0.44
-0.04
0.30
0.47
0.41
0.12
-0.33
-0.78
-1.08
-1.15
-0.99
-0.68
-0.33
-0.03
0.17
0.29
0.36
0.46
0.57
0.68
0.72
0.69
0.62
0.59
0.70
0.94
1.21
1.37
1.27
0.90
0.36
-0.16
-0.48
-0.55
-0.45
-0.31
-0.25
-0.30
-0.40
-0.51
-0.55
-0.53
-0.42
-0.25
-0.01
0.27
0.54
0.72
0.71
0.48
0.04
-0.51
-1.01
-1.30
-1.30
-1.00
-0.55
-0.11
0.13
0.11
-0.12
-0.39
-0.56
-0.55
-0.42
-0.27
-0.20
-0.21
-0.25
-0.27
-0.25
-0.26
-0.31
-0.41
-0.46
-0.39
-0.16
0.18
0.54
0.83
1.04
1.20
1.31
1.37
1.29
1.00
0.51
-0.07
-0.59
-0.93
-1.02
-0.93
-0.73
-0.51
-0.30
-0.08
0.16
0.43
0.68
0.86
0.98
1.04
1.08
1.13
1.16
1.08
0.87
0.51
0.09
-0.28
-0.49
-0.53
-0.47
-0.40
-0.42
-0.53
-0.64
-0.68
-0.61
-0.50
-0.48
-0.63
-0.94
-1.25
-1.37
-1.20
-0.79
-0.36
-0.12
-0.17
-0.44
-0.75
-0.87
-0.71
-0.34
0.09
0.44
0.61
0.64
0.61
0.58
0.56
0.51
0.41
0.25
0.08
-0.03
0.01
0.22
0.56
0.92
1.15
1.13
0.87
0.53
0.27
0.25
0.47
0.77
0.91
0.70
0.14
-0.60
-1.25
-1.59
-1.53
-1.21
-0.80
-0.47
-0.29
-0.23
-0.22
-0.25
-0.33
-0.50
-0.78
-1.08
-1.28
-1.27
-1.03
-0.67
-0.35
-0.22
-0.33
-0.60
-0.88
-1.04
-1.02
-0.88
-0.70
-0.55
-0.44
-0.33
-0.15
0.12
0.46
0.77
0.99
1.07
1.06
1.06
1.16
1.41
1.74
2.02
2.11
1.92
1.50
0.96
0.49
0.19
0.09
0.12
0.16
0.14
0.02
-0.18
-0.40
-0.55
-0.58
-0.48
-0.27
-0.03
0.18
0.32
0.37
0.33
0.26
0.20
0.20
0.29
0.47
0.69
0.86
0.88
0.71
0.39
0.04
-0.21
-0.25
-0.10
0.11
0.24
0.17
-0.09
-0.44
-0.75
-0.91
-0.88
-0.72
-0.54
-0.45
-0.51
-0.73
-1.01
-1.26
-1.39
-1.37
-1.23
-1.06
-0.91
-0.80
-0.70
-0.55
-0.36
-0.13
0.06
0.17
0.20
0.20
0.23
0.32
0.48
0.69
0.91
1.14
1.34
1.48
1.53
1.45
1.22
0.85
0.39
-0.06
-0.40
-0.55
-0.50
-0.30
-0.05
0.15
0.20
0.10
-0.12
-0.41
-0.73
-1.02
-1.21
-1.21
-0.96
-0.51
-0.02
0.33
0.35
0.03
-0.55
-1.19
-1.71
-2.00
-2.06
-1.94
-1.71
-1.40
-1.01
-0.55
-0.03
0.49
0.92
1.18
1.24
1.15
1.02
0.93
0.97
1.09
1.21
1.21
1.08
0.89
0.75
0.77
0.92
1.07
1.06
0.79
0.31
-0.20
-0.53
-0.56
-0.32
0.03
0.32
0.42
0.32
0.10
-0.14
-0.34
-0.46
-0.52
-0.54
-0.53
-0.48
-0.41
-0.29
-0.15
0.02
0.17
0.28
0.32
0.28
0.18
0.04
-0.12
-0.26
-0.39
-0.53
-0.69
-0.85
-0.95
-0.94
-0.82
-0.62
-0.38
-0.18
-0.03
0.07
0.16
0.26
0.36
0.46
0.51
0.51
0.50
0.49
0.46
0.37
0.17
-0.11
-0.38
-0.56
-0.56
-0.40
-0.16
0.05
0.16
0.16
0.09
-0.00
-0.10
-0.19
-0.25
-0.24
-0.12
0.12
0.41
0.63
0.70
0.58
0.30
-0.03
-0.31
-0.46
-0.44
-0.31
-0.15
-0.05
-0.07
-0.22
-0.48
-0.73
-0.91
-0.98
-0.94
-0.85
-0.74
-0.65
-0.59
-0.55
-0.50
-0.39
-0.21
0.03
0.27
0.43
0.44
0.31
0.08
-0.12
-0.19
-0.10
0.12
0.35
0.48
0.45
0.26
0.01
-0.23
-0.35
-0.32
-0.16
0.08
0.33
0.54
0.68
0.77
0.82
0.85
0.86
0.82
0.71
0.51
0.25
-0.01
-0.16
-0.13
0.06
0.31
0.47
0.39
0.05
-0.43
-0.86
-1.03
-0.87
-0.46
0.01
0.37
0.52
0.47
0.33
0.21
0.19
0.29
0.45
0.60
0.67
0.60
0.37
0.05
-0.29
-0.55
-0.71
-0.80
-0.87
-1.00
-1.18
-1.38
-1.50
-1.48
-1.30
-1.01
-0.70
-0.45
-0.31
-0.24
-0.13
0.11
0.51
1.02
1.49
1.75
1.71
1.43
1.07
0.77
0.62
0.55
0.49
0.36
0.19
0.06
0.05
0.18
0.37
0.51
0.52
0.43
0.35
0.40
0.66
1.07
1.54
1.92
2.07
1.96
1.59
1.07
0.54
0.12
-0.16
-0.35
-0.54
-0.82
-1.15
-1.44
-1.53
-1.41
-1.13
-0.92
-0.96
-1.34
-2.00
-2.73
-3.31
-3.59
-3.59
-3.44
-3.28
-3.22
-3.26
-3.29
-3.18
-2.83
-2.25
-1.51
-0.71
0.10
0.89
1.69
2.50
3.29
3.95
4.42
4.66
4.64
4.39
3.95
3.41
2.85
2.41
2.16
2.09
2.15
2.19
2.10
1.85
1.50
1.15
0.91
0.82
0.86
0.95
1.06
1.16
1.22
1.24
1.19
1.07
0.86
0.56
0.18
-0.27
-0.78
-1.32
-1.83
-2.26
-2.57
-2.72
-2.76
-2.74
-2.74
-2.75
-2.75
-2.66
-2.42
-2.03
-1.54
-1.02
-0.54
-0.13
0.20
0.48
0.71
0.92
1.15
1.40
1.67
1.92
2.08
2.08
1.90
1.54
1.07
0.56
0.10
-0.27
-0.49
-0.56
-0.49
-0.35
-0.22
-0.18
-0.25
-0.36
-0.43
-0.38
-0.21
0.04
0.28
0.44
0.51
0.49
0.39
0.26
0.15
0.09
0.12
0.19
0.24
0.20
0.03
-0.21
-0.43
-0.58
-0.65
-0.72
-0.87
-1.10
-1.33
-1.44
-1.36
-1.13
-0.88
-0.75
-0.80
-0.96
-1.07
-1.00
-0.70
-0.24
0.25
0.66
0.90
0.93
0.80
0.57
0.31
0.11
0.01
0.02
0.10
0.20
0.26
0.29
0.31
0.38
0.52
0.71
0.86
0.92
0.85
0.67
0.46
0.26
0.14
0.11
0.14
0.19
0.21
0.18
0.13
0.09
0.12
0.20
0.27
0.23
0.02
-0.33
-0.68
-0.90
-0.89
-0.70
-0.44
-0.26
-0.21
-0.27
-0.32
-0.32
-0.29
-0.35
-0.55
-0.89
-1.24
-1.43
-1.36
-1.04
-0.57
-0.11
0.23
0.40
0.46
0.47
0.48
0.50
0.53
0.57
0.62
0.68
0.72
0.69
0.55
0.33
0.10
-0.06
-0.06
0.09
0.33
0.57
0.71
0.70
0.56
0.38
0.27
0.29
0.45
0.72
0.99
1.16
1.14
0.92
0.53
0.02
-0.49
-0.91
-1.14
-1.11
-0.80
-0.30
0.28
0.77
1.05
1.09
0.96
0.77
0.60
0.48
0.35
0.13
-0.20
-0.62
-1.04
-1.32
-1.39
-1.23
-0.92
-0.54
-0.22
-0.03
0.01
-0.07
-0.23
-0.38
-0.46
-0.44
-0.31
-0.11
0.11
0.27
0.32
0.21
-0.06
-0.43
-0.80
-1.03
-1.05
-0.85
-0.52
-0.21
-0.08
-0.15
-0.38
-0.63
-0.75
-0.70
-0.50
-0.24
-0.03
0.05
-0.01
-0.17
-0.34
-0.42
-0.34
-0.07
0.32
0.72
1.01
1.12
1.02
0.77
0.42
0.03
-0.36
-0.70
-0.91
-0.96
-0.86
-0.68
-0.53
-0.53
-0.70
-0.95
-1.15
-1.18
-1.02
-0.72
-0.38
-0.05
0.27
0.59
0.91
1.15
1.22
1.05
0.65
0.18
-0.19
-0.34
-0.27
-0.10
0.04
0.05
-0.03
-0.13
-0.14
-0.03
0.17
0.37
0.47
0.44
0.29
0.08
-0.08
-0.09
0.12
0.54
1.07
1.52
1.75
1.66
1.30
0.81
0.36
0.06
-0.09
-0.20
-0.35
-0.57
-0.81
-1.00
-1.07
-1.06
-1.05
-1.11
-1.27
-1.46
-1.63
-1.73
-1.76
-1.75
-1.70
-1.59
-1.36
-1.00
-0.51
0.02
0.53
0.92
1.17
1.29
1.31
1.24
1.10
0.90
0.66
0.42
0.27
0.24
0.34
0.53
0.73
0.87
0.92
0.85
0.69
0.45
0.17
-0.07
-0.18
-0.11
0.11
0.38
0.55
0.54
0.35
0.08
-0.14
-0.23
-0.26
-0.31
-0.49
-0.77
-1.05
-1.18
-1.09
-0.86
-0.60
-0.43
-0.36
-0.32
-0.22
-0.08
0.04
0.03
-0.13
-0.35
-0.48
-0.39
-0.11
0.27
0.60
0.80
0.85
0.80
0.68
0.49
0.23
-0.04
-0.23
-0.22
0.04
0.47
0.92
1.17
1.14
0.85
0.43
0.08
-0.11
-0.13
-0.03
0.08
0.15
0.19
0.23
0.31
0.42
0.49
0.49
0.41
0.28
0.13
-0.00
-0.15
-0.32
-0.50
-0.66
-0.73
-0.68
-0.54
-0.40
-0.32
-0.34
-0.43
-0.50
-0.53
-0.55
-0.62
-0.79
-1.04
-1.26
-1.34
-1.18
-0.80
-0.34
0.05
0.21
0.11
-0.22
-0.65
-1.03
-1.27
-1.31
-1.18
-0.91
-0.57
-0.19
0.21
0.63
1.01
1.29
1.41
1.34
1.10
0.78
0.48
0.27
0.16
0.11
0.07
-0.01
-0.12
-0.27
-0.42
-0.57
-0.65
-0.60
-0.34
0.14
0.81
1.50
2.03
2.19
1.88
1.16
0.24
-0.59
-1.07
-1.05
-0.59
0.10
0.76
1.18
1.29
1.11
0.73
0.26
-0.25
-0.71
-1.03
-1.14
-1.04
-0.80
-0.55
-0.46
-0.59
-0.89
-1.25
-1.55
-1.70
-1.71
-1.64
-1.52
-1.37
-1.15
-0.83
-0.44
-0.05
0.26
0.42
0.41
0.29
0.14
0.06
0.08
0.21
0.36
0.49
0.53
0.47
0.36
0.25
0.23
0.32
0.49
0.66
0.72
0.65
0.47
0.29
0.21
0.30
0.54
0.86
1.17
1.40
1.52
1.54
1.46
1.27
0.96
0.54
0.10
-0.28
-0.51
-0.53
-0.36
-0.12
0.07
0.11
-0.01
-0.23
-0.45
-0.61
-0.70
-0.77
-0.85
-0.94
-1.02
-1.04
-1.00
-0.98
-1.05
-1.27
-1.66
-2.14
-2.58
-2.84
-2.85
-2.57
-2.04
-1.37
-0.67
-0.09
0.31
0.50
0.52
0.44
0.36
0.32
0.35
0.45
0.58
0.74
0.95
1.20
1.46
1.67
1.75
1.66
1.41
1.10
0.83
0.73
0.80
0.99
1.18
1.26
1.17
0.91
0.56
0.22
-0.03
-0.13
-0.11
-0.01
0.10
0.19
0.24
0.26
0.29
0.35
0.46
0.61
0.77
0.90
0.96
0.91
0.76
0.54
0.28
0.02
-0.22
-0.42
-0.61
-0.76
-0.87
-0.91
-0.87
-0.79
-0.74
-0.81
-1.00
-1.26
-1.43
-1.36
-1.00
-0.37
0.36
0.98
1.35
1.43
1.28
1.03
0.80
0.68
0.72
0.89
1.15
1.38
1.44
1.23
0.78
0.21
-0.24
-0.37
-0.09
0.52
1.26
1.87
2.18
2.14
1.80
1.29
0.75
0.28
-0.03
-0.16
-0.11
0.03
0.18
0.20
0.04
-0.24
-0.50
-0.59
-0.42
-0.05
0.35
0.62
0.65
0.47
0.21
0.01
-0.09
-0.10
-0.12
-0.18
-0.25
-0.25
-0.14
0.05
0.22
0.28
0.18
-0.03
-0.26
-0.39
-0.38
-0.22
0.00
0.18
0.26
0.25
0.19
0.14
0.14
0.16
0.14
0.02
-0.21
-0.46
-0.64
-0.68
-0.57
-0.35
-0.11
0.09
0.24
0.36
0.45
0.45
0.33
0.08
-0.25
-0.57
-0.80
-0.95
-1.02
-1.07
-1.10
-1.09
-1.00
-0.84
-0.65
-0.50
-0.43
-0.44
-0.45
-0.42
-0.31
-0.17
-0.06
-0.06
-0.17
-0.37
-0.59
-0.75
-0.82
-0.82
-0.76
-0.66
-0.53
-0.36
-0.12
0.15
0.41
0.59
0.62
0.48
0.19
-0.19
-0.59
-0.91
-1.07
-1.05
-0.86
-0.57
-0.28
-0.07
0.04
0.08
0.11
0.18
0.29
0.41
0.50
0.54
0.54
0.53
0.52
0.50
0.42
0.26
0.11
0.05
0.18
0.51
0.89
1.15
1.13
0.79
0.29
-0.19
-0.46
-0.48
-0.34
-0.20
-0.14
-0.21
-0.34
-0.47
-0.54
-0.59
-0.64
-0.73
-0.84
-0.90
-0.87
-0.71
-0.43
-0.06
0.34
0.73
1.06
1.29
1.40
1.36
1.16
0.85
0.48
0.14
-0.09
-0.15
-0.03
0.22
0.49
0.68
0.71
0.56
0.26
-0.09
-0.39
-0.56
-0.56
-0.39
-0.12
0.16
0.38
0.50
0.51
0.43
0.29
0.09
-0.15
-0.39
-0.59
-0.69
-0.64
-0.47
-0.26
-0.08
-0.04
-0.15
-0.39
-0.69
-0.97
-1.15
-1.15
-0.93
-0.51
0.05
0.61
1.07
1.33
1.39
1.30
1.14
0.94
0.74
0.55
0.40
0.31
0.27
0.25
0.22
0.15
0.04
-0.05
-0.08
-0.04
0.04
0.06
-0.01
-0.15
-0.27
-0.27
-0.13
0.11
0.36
0.54
0.62
0.58
0.46
0.26
0.03
-0.17
-0.29
-0.27
-0.09
0.18
0.42
0.51
0.38
0.04
-0.43
-0.89
-1.25
-1.44
-1.42
-1.23
-0.95
-0.66
-0.48
-0.43
-0.51
-0.63
-0.68
-0.62
-0.50
-0.37
-0.32
-0.36
-0.48
-0.63
-0.76
-0.86
-0.93
-0.93
-0.84
-0.63
-0.28
0.15
0.57
0.89
1.03
0.97
0.77
0.53
0.38
0.42
0.63
0.93
1.14
1.12
0.81
0.31
-0.24
-0.65
-0.84
-0.82
-0.69
-0.57
-0.53
-0.56
-0.61
-0.60
-0.49
-0.31
-0.18
-0.18
-0.37
-0.71
-1.04
-1.23
-1.16
-0.84
-0.38
0.10
0.50
0.77
0.94
1.03
1.08
1.04
0.88
0.60
0.25
-0.04
-0.18
-0.11
0.13
0.41
0.61
0.64
0.52
0.34
0.22
0.21
0.32
0.48
0.62
0.67
0.65
0.56
0.42
0.25
0.01
-0.28
-0.61
-0.93
-1.16
-1.24
-1.17
-0.97
-0.68
-0.37
-0.10
0.07
0.10
-0.05
-0.39
-0.86
-1.35
-1.69
-1.75
-1.51
-1.04
-0.49
-0.01
0.32
0.50
0.59
0.66
0.73
0.78
0.79
0.73
0.60
0.41
0.21
0.05
-0.01
0.06
0.28
0.59
0.89
1.11
1.17
1.07
0.83
0.54
0.23
-0.02
-0.18
-0.19
-0.04
0.23
0.57
0.85
0.98
0.94
0.73
0.42
0.09
-0.20
-0.38
-0.44
-0.41
-0.34
-0.26
-0.22
-0.25
-0.35
-0.51
-0.72
-0.94
-1.12
-1.25
-1.31
-1.34
-1.36
-1.41
-1.46
-1.47
-1.39
-1.19
-0.93
-0.67
-0.47
-0.33
-0.25
-0.18
-0.09
-0.00
0.08
0.12
0.07
-0.07
-0.31
-0.60
-0.83
-0.91
-0.77
-0.40
0.12
0.68
1.17
1.53
1.76
1.87
1.90
1.85
1.73
1.55
1.33
1.10
0.88
0.68
0.48
0.29
0.12
0.00
-0.03
-0.00
0.05
0.06
-0.01
-0.13
-0.28
-0.39
-0.44
-0.48
-0.56
-0.70
-0.87
-0.97
-0.91
-0.66
-0.29
0.04
0.19
0.10
-0.17
-0.52
-0.82
-1.00
-1.03
-0.95
-0.78
-0.53
-0.21
0.17
0.56
0.91
1.18
1.36
1.43
1.41
1.31
1.15
0.95
0.76
0.59
0.47
0.39
0.35
0.36
0.45
0.64
0.92
1.21
1.42
1.46
1.31
0.99
0.60
0.23
-0.06
-0.25
-0.31
-0.26
-0.09
0.19
0.52
0.82
0.95
0.83
0.46
-0.07
-0.60
-1.00
-1.21
-1.27
-1.25
-1.22
-1.18
-1.10
-0.96
-0.79
-0.67
-0.70
-0.85
-1.04
-1.11
-0.97
-0.67
-0.36
-0.20
-0.29
-0.55
-0.78
-0.81
-0.58
-0.14
0.32
0.64
0.74
0.63
0.41
0.16
-0.02
-0.15
-0.21
-0.24
-0.23
-0.17
-0.06
0.12
0.33
0.54
0.75
0.93
1.09
1.21
1.29
1.30
1.22
1.07
0.85
0.60
0.36
0.20
0.18
0.33
0.64
1.03
1.36
1.51
1.40
1.03
0.50
-0.07
-0.55
-0.85
-0.95
-0.87
-0.68
-0.46
-0.30
-0.22
-0.18
-0.11
0.04
0.28
0.55
0.74
0.78
0.64
0.41
0.18
0.02
-0.04
-0.07
-0.16
-0.36
-0.63
-0.86
-0.92
-0.71
-0.24
0.39
1.01
1.46
1.65
1.57
1.28
0.88
0.45
0.08
-0.19
-0.38
-0.49
-0.55
-0.58
-0.59
-0.59
-0.58
-0.55
-0.50
-0.42
-0.29
-0.10
0.13
0.35
0.52
0.57
0.51
0.36
0.19
0.03
-0.06
-0.12
-0.14
-0.16
-0.18
-0.20
-0.19
-0.14
-0.03
0.10
0.24
0.38
0.51
0.63
0.75
0.87
0.96
1.01
0.99
0.92
0.81
0.69
0.56
0.41
0.22
0.02
-0.14
-0.20
-0.16
-0.02
0.15
0.26
0.28
0.21
0.09
-0.04
-0.14
-0.25
-0.38
-0.55
-0.77
-1.00
-1.26
-1.52
-1.75
-1.90
-1.92
-1.80
-1.55
-1.25
-0.98
-0.79
-0.70
-0.64
-0.54
-0.38
-0.18
-0.00
0.08
0.03
-0.14
-0.37
-0.57
-0.67
-0.65
-0.52
-0.30
-0.05
0.22
0.52
0.87
1.26
1.63
1.87
1.89
1.67
1.29
0.88
0.58
0.47
0.50
0.54
0.47
0.26
-0.03
-0.26
-0.36
-0.34
-0.29
-0.33
-0.48
-0.64
-0.67
-0.49
-0.13
0.24
0.41
0.25
-0.21
-0.80
-1.29
-1.53
-1.50
-1.33
-1.15
-1.11
-1.19
-1.35
-1.46
-1.46
-1.33
-1.11
-0.86
-0.62
-0.41
-0.21
-0.01
0.21
0.44
0.65
0.80
0.88
0.89
0.88
0.91
1.01
1.13
1.23
1.23
1.11
0.93
0.76
0.68
0.70
0.76
0.81
0.82
0.81
0.85
0.98
1.16
1.27
1.20
0.88
0.37
-0.21
-0.68
-0.96
-1.01
-0.90
-0.71
-0.51
-0.29
-0.06
0.21
0.47
0.69
0.80
0.78
0.67
0.48
0.26
0.02
-0.23
-0.48
-0.70
-0.84
-0.89
-0.86
-0.79
-0.73
-0.69
-0.63
-0.51
-0.30
-0.04
0.21
0.41
0.51
0.55
0.55
0.50
0.38
0.17
-0.11
-0.41
-0.61
-0.67
-0.55
-0.33
-0.05
0.23
0.49
0.71
0.85
0.89
0.80
0.62
0.41
0.24
0.17
0.18
0.23
0.24
0.23
0.20
0.18
0.17
0.16
0.13
0.10
0.15
0.30
0.55
0.82
1.01
1.00
0.77
0.36
-0.14
-0.62
-0.99
-1.19
-1.20
-1.05
-0.81
-0.58
-0.41
-0.35
-0.38
-0.49
-0.64
-0.81
-0.95
-1.04
-1.02
-0.89
-0.68
-0.45
-0.27
-0.12
-0.01
0.11
0.23
0.32
0.35
0.31
0.24
0.20
0.23
0.31
0.38
0.33
0.10
-0.29
-0.73
-1.04
-1.09
-0.81
-0.28
0.34
0.88
1.23
1.37
1.40
1.44
1.57
1.76
1.94
1.99
1.81
1.38
0.76
0.07
-0.53
-0.95
-1.12
-1.08
-0.90
-0.66
-0.38
-0.11
0.12
0.27
0.25
0.03
-0.36
-0.84
-1.29
-1.60
-1.72
-1.66
-1.48
-1.25
-1.03
-0.85
-0.70
-0.54
-0.34
-0.11
0.11
0.28
0.39
0.43
0.44
0.43
0.38
0.29
0.17
0.07
0.09
0.27
0.58
0.88
1.03
0.92
0.56
0.09
-0.31
-0.48
-0.37
-0.01
0.43
0.79
0.94
0.85
0.57
0.21
-0.16
-0.48
-0.77
-1.05
-1.29
-1.43
-1.37
-1.11
-0.69
-0.27
0.01
0.08
-0.03
-0.25
-0.46
-0.61
-0.67
-0.67
-0.63
-0.54
-0.42
-0.28
-0.17
-0.15
-0.25
-0.44
-0.62
-0.69
-0.56
-0.24
0.21
0.66
0.97
1.04
0.85
0.47
0.02
-0.33
-0.48
-0.41
-0.17
0.13
0.40
0.57
0.64
0.66
0.67
0.67
0.65
0.55
0.35
0.06
-0.25
-0.49
-0.59
-0.48
-0.17
0.28
0.73
1.04
1.09
0.84
0.34
-0.22
-0.66
-0.85
-0.75
-0.47
-0.17
-0.03
-0.10
-0.32
-0.56
-0.70
-0.73
-0.71
-0.74
-0.88
-1.12
-1.40
-1.62
-1.71
-1.64
-1.39
-0.99
-0.49
0.02
0.44
0.70
0.78
0.75
0.69
0.65
0.65
0.62
0.55
0.45
0.36
0.33
0.37
0.42
0.43
0.38
0.32
0.33
0.47
0.77
1.15
1.50
1.67
1.61
1.30
0.84
0.39
0.06
-0.07
-0.00
0.17
0.37
0.53
0.60
0.55
0.38
0.08
-0.29
-0.67
-0.94
-1.01
-0.88
-0.57
-0.21
0.09
0.22
0.14
-0.14
-0.54
-0.95
-1.26
-1.38
-1.33
-1.14
-0.91
-0.70
-0.51
-0.35
-0.21
-0.13
-0.12
-0.17
-0.26
-0.30
-0.27
-0.16
-0.02
0.06
0.06
-0.03
-0.15
-0.24
-0.24
-0.16
-0.01
0.15
0.28
0.36
0.39
0.39
0.41
0.44
0.49
0.53
0.50
0.41
0.27
0.16
0.15
0.28
0.51
0.74
0.86
0.82
0.61
0.32
0.01
-0.24
-0.41
-0.50
-0.56
-0.62
-0.72
-0.87
-1.07
-1.28
-1.44
-1.52
-1.49
-1.38
-1.18
-0.93
-0.63
-0.32
-0.03
0.14
0.13
-0.03
-0.25
-0.42
-0.44
-0.32
-0.14
0.02
0.10
0.13
0.21
0.39
0.66
0.93
1.08
1.07
0.93
0.75
0.67
0.71
0.81
0.84
0.72
0.43
0.09
-0.19
-0.33
-0.32
-0.24
-0.13
-0.01
0.15
0.34
0.51
0.57
0.45
0.20
-0.07
-0.16
0.02
0.41
0.83
1.05
0.93
0.47
-0.18
-0.81
-1.25
-1.47
-1.52
-1.53
-1.58
-1.65
-1.70
-1.67
-1.59
-1.56
-1.69
-1.97
-2.24
-2.29
-1.92
-1.13
-0.12
0.80
1.34
1.44
1.19
0.86
0.63
0.59
0.66
0.71
0.68
0.56
0.48
0.54
0.78
1.10
1.34
1.38
1.18
0.83
0.47
0.23
0.16
0.26
0.46
0.72
0.98
1.19
1.32
1.32
1.21
1.03
0.88
0.79
0.77
0.75
0.67
0.55
0.44
0.42
0.53
0.72
0.91
0.99
0.93
0.74
0.52
0.32
0.21
0.17
0.15
0.10
-0.03
-0.25
-0.52
-0.77
-0.92
-0.92
-0.78
-0.58
-0.44
-0.43
-0.58
-0.82
-1.03
-1.13
-1.09
-0.95
-0.75
-0.55
-0.33
-0.08
0.21
0.52
0.77
0.91
0.93
0.88
0.82
0.78
0.76
0.69
0.53
0.30
0.04
-0.14
-0.20
-0.14
-0.01
0.12
0.19
0.17
0.06
-0.12
-0.34
-0.57
-0.76
-0.85
-0.82
-0.66
-0.46
-0.30
-0.25
-0.30
-0.41
-0.51
-0.58
-0.62
-0.69
-0.84
-1.06
-1.26
-1.33
-1.16
-0.78
-0.30
0.13
0.40
0.48
0.44
0.39
0.42
0.53
0.67
0.77
0.79
0.74
0.71
0.73
0.83
0.95
1.05
1.06
0.98
0.87
0.80
0.81
0.88
0.93
0.90
0.76
0.58
0.45
0.45
0.59
0.77
0.86
0.75
0.46
0.04
-0.39
-0.77
-1.08
-1.31
-1.39
-1.28
-0.94
-0.43
0.14
0.57
0.78
0.73
0.51
0.18
-0.18
-0.54
-0.89
-1.22
-1.48
-1.64
-1.71
-1.73
-1.70
-1.63
-1.47
-1.16
-0.72
-0.19
0.35
0.80
1.13
1.33
1.40
1.37
1.26
1.09
0.87
0.61
0.29
-0.10
-0.52
-0.91
-1.13
-1.09
-0.75
-0.20
0.39
0.82
0.98
0.88
0.64
0.41
0.28
0.28
0.33
0.38
0.36
0.31
0.25
0.24
0.28
0.35
0.40
0.42
0.40
0.34
0.21
0.01
-0.27
-0.56
-0.78
-0.83
-0.70
-0.44
-0.16
-0.00
-0.05
-0.31
-0.69
-1.06
-1.28
-1.29
-1.06
-0.66
-0.17
0.31
0.69
0.91
0.96
0.86
0.67
0.49
0.43
0.53
0.74
0.95
1.02
0.87
0.54
0.16
-0.10
-0.16
-0.02
0.21
0.42
0.53
0.51
0.39
0.24
0.11
0.06
0.12
0.27
0.46
0.61
0.62
0.52
0.36
0.27
0.32
0.53
0.79
0.98
1.00
0.82
0.48
0.06
-0.36
-0.68
-0.86
-0.85
-0.67
-0.39
-0.14
-0.05
-0.22
-0.62
-1.14
-1.57
-1.75
-1.62
-1.22
-0.68
-0.15
0.28
0.56
0.67
0.62
0.40
0.08
-0.27
-0.53
-0.60
-0.47
-0.23
0.01
0.12
0.05
-0.12
-0.29
-0.36
-0.32
-0.20
-0.09
-0.03
-0.02
-0.02
0.01
0.07
0.15
0.24
0.36
0.56
0.85
1.19
1.48
1.60
1.49
1.16
0.73
0.34
0.09
0.01
0.04
0.09
0.11
0.09
0.07
0.07
0.05
-0.06
-0.36
-0.86
-1.47
-1.98
-2.19
-1.96
-1.37
-0.65
-0.07
0.18
0.09
-0.19
-0.43
-0.51
-0.37
-0.08
0.24
0.48
0.61
0.61
0.54
0.44
0.35
0.28
0.24
0.19
0.09
-0.06
-0.25
-0.45
-0.61
-0.69
-0.71
-0.69
-0.64
-0.57
-0.47
-0.32
-0.17
-0.03
0.03
-0.04
-0.23
-0.52
-0.83
-1.06
-1.12
-0.98
-0.68
-0.32
-0.03
0.13
0.14
0.07
-0.05
-0.19
-0.37
-0.63
-0.95
-1.25
-1.42
-1.33
-0.99
-0.45
0.12
0.61
0.93
1.08
1.11
1.05
0.93
0.75
0.53
0.30
0.12
0.05
0.11
0.28
0.53
0.82
1.11
1.33
1.43
1.35
1.11
0.77
0.43
0.21
0.15
0.23
0.37
0.45
0.38
0.14
-0.21
-0.53
-0.70
-0.64
-0.37
-0.01
0.33
0.54
0.62
0.65
0.71
0.83
0.92
0.85
0.50
-0.12
-0.87
-1.55
-1.97
-2.05
-1.86
-1.56
-1.26
-1.02
-0.81
-0.55
-0.21
0.17
0.50
0.68
0.68
0.53
0.31
0.12
0.06
0.14
0.31
0.51
0.67
0.74
0.71
0.59
0.41
0.19
-0.05
-0.31
-0.58
-0.81
-0.97
-1.01
-0.89
-0.66
-0.39
-0.20
-0.15
-0.26
-0.47
-0.69
-0.79
-0.74
-0.53
-0.26
0.01
0.21
0.34
0.44
0.55
0.69
0.84
0.97
1.01
0.95
0.76
0.45
0.03
-0.47
-0.98
-1.41
-1.68
-1.71
-1.51
-1.14
-0.72
-0.38
-0.18
-0.14
-0.21
-0.30
-0.35
-0.32
-0.22
-0.06
0.17
0.45
0.76
1.08
1.34
1.47
1.42
1.21
0.91
0.62
0.44
0.42
0.55
0.77
0.99
1.13
1.09
0.84
0.42
-0.07
-0.49
-0.71
-0.68
-0.44
-0.12
0.15
0.26
0.22
0.07
-0.08
-0.19
-0.24
-0.28
-0.34
-0.45
-0.60
-0.75
-0.88
-0.97
-0.98
-0.92
-0.80
-0.66
-0.59
-0.65
-0.85
-1.15
-1.44
-1.59
-1.53
-1.26
-0.85
-0.38
0.06
0.45
0.76
1.01
1.15
1.14
1.00
0.75
0.48
0.28
0.19
0.23
0.36
0.53
0.71
0.89
1.03
1.14
1.18
1.12
0.98
0.78
0.56
0.34
0.15
0.02
-0.04
0.02
0.20
0.45
0.68
0.78
0.69
0.45
0.12
-0.18
-0.42
-0.59
-0.73
-0.85
-0.91
-0.87
-0.72
-0.54
-0.44
-0.55
-0.85
-1.25
-1.58
-1.70
-1.60
-1.36
-1.15
-1.08
-1.15
-1.25
-1.23
-1.03
-0.64
-0.17
0.24
0.51
0.66
0.76
0.91
1.15
1.43
1.62
1.62
1.35
0.84
0.22
-0.32
-0.63
-0.62
-0.33
0.08
0.46
0.67
0.71
0.61
0.47
0.37
0.31
0.31
0.35
0.40
0.47
0.53
0.54
0.47
0.32
0.12
-0.05
-0.13
-0.09
0.04
0.20
0.31
0.30
0.17
-0.04
-0.26
-0.39
-0.40
-0.30
-0.19
-0.17
-0.29
-0.55
-0.89
-1.19
-1.39
-1.47
-1.45
-1.39
-1.31
-1.21
-1.07
-0.87
-0.58
-0.24
0.13
0.48
0.76
0.95
1.04
1.01
0.88
0.69
0.46
0.25
0.10
0.02
0.02
0.11
0.27
0.46
0.67
0.84
0.93
0.94
0.86
0.72
0.57
0.44
0.34
0.30
0.30
0.34
0.40
0.45
0.46
0.42
0.32
0.21
0.13
0.11
0.16
0.25
0.33
0.39
0.40
0.38
0.34
0.28
0.21
0.12
0.02
-0.10
-0.21
-0.32
-0.44
-0.57
-0.73
-0.91
-1.07
-1.18
-1.20
-1.11
-0.92
-0.65
-0.35
-0.06
0.19
0.37
0.46
0.48
0.45
0.39
0.30
0.15
-0.05
-0.32
-0.58
-0.77
-0.80
-0.64
-0.31
0.11
0.51
0.80
0.93
0.88
0.67
0.36
0.03
-0.23
-0.35
-0.32
-0.21
-0.09
-0.03
-0.04
-0.08
-0.11
-0.07
0.01
0.11
0.16
0.14
0.07
-0.03
-0.13
-0.21
-0.25
-0.24
-0.14
0.06
0.34
0.61
0.79
0.80
0.63
0.32
-0.04
-0.34
-0.52
-0.55
-0.47
-0.34
-0.21
-0.11
-0.04
0.04
0.16
0.32
0.49
0.60
0.58
0.44
0.20
-0.06
-0.28
-0.42
-0.50
-0.53
-0.51
-0.42
-0.23
0.05
0.38
0.70
0.90
0.96
0.87
0.69
0.50
0.40
0.43
0.63
0.92
1.22
1.42
1.44
1.27
0.98
0.72
0.58
0.61
0.72
0.79
0.68
0.34
-0.18
-0.74
-1.17
-1.33
-1.20
-0.88
-0.55
-0.35
-0.38
-0.61
-0.92
-1.17
-1.27
-1.20
-0.98
-0.68
-0.37
-0.11
0.07
0.15
0.12
-0.03
-0.24
-0.46
-0.62
-0.67
-0.62
-0.50
-0.37
-0.25
-0.17
-0.14
-0.14
-0.17
-0.21
-0.24
-0.23
-0.17
-0.07
0.05
0.16
0.25
0.33
0.42
0.57
0.78
1.05
1.29
1.40
1.32
1.03
0.61
0.19
-0.11
-0.28
-0.34
-0.37
-0.39
-0.38
-0.29
-0.10
0.13
0.25
0.17
-0.11
-0.47
-0.74
-0.79
-0.67
-0.53
-0.56
-0.82
-1.26
-1.68
-1.88
-1.76
-1.37
-0.85
-0.35
0.02
0.24
0.34
0.38
0.42
0.47
0.54
0.65
0.80
0.99
1.20
1.36
1.39
1.24
0.91
0.48
0.06
-0.28
-0.49
-0.57
-0.54
-0.40
-0.12
0.26
0.70
1.07
1.27
1.25
1.05
0.76
0.46
0.20
0.01
-0.13
-0.19
-0.12
0.08
0.37
0.63
0.76
0.69
0.44
0.11
-0.21
-0.45
-0.60
-0.69
-0.76
-0.85
-0.96
-1.04
-1.04
-0.96
-0.82
-0.68
-0.61
-0.63
-0.72
-0.79
-0.76
-0.62
-0.41
-0.21
-0.10
-0.11
-0.21
-0.30
-0.34
-0.31
-0.22
-0.11
-0.02
0.08
0.22
0.45
0.76
1.08
1.31
1.40
1.33
1.19
1.06
1.00
0.99
0.96
0.84
0.64
0.44
0.32
0.34
0.44
0.52
0.45
0.23
-0.04
-0.21
-0.17
0.09
0.45
0.74
0.80
0.61
0.24
-0.15
-0.40
-0.47
-0.39
-0.27
-0.22
-0.32
-0.58
-0.95
-1.38
-1.76
-2.06
-2.21
-2.20
-2.04
-1.73
-1.33
-0.87
-0.39
0.09
0.54
0.91
1.17
1.27
1.23
1.10
0.92
0.75
0.58
0.39
0.15
-0.11
-0.34
-0.46
-0.42
-0.25
0.03
0.33
0.57
0.70
0.67
0.50
0.26
0.04
-0.01
0.15
0.52
0.97
1.35
1.53
1.49
1.27
0.95
0.62
0.28
-0.07
-0.42
-0.73
-0.91
-0.92
-0.75
-0.48
-0.23
-0.08
-0.07
-0.19
-0.38
-0.62
-0.88
-1.12
-1.31
-1.38
-1.33
-1.17
-0.98
-0.85
-0.82
-0.89
-0.98
-1.01
-0.91
-0.68
-0.35
0.03
0.37
0.62
0.73
0.69
0.52
0.33
0.19
0.19
0.33
0.56
0.76
0.86
0.79
0.62
0.43
0.31
0.35
0.56
0.87
1.19
1.43
1.49
1.37
1.09
0.72
0.36
0.10
-0.00
0.03
0.16
0.29
0.35
0.31
0.16
-0.04
-0.23
-0.36
-0.41
-0.39
-0.31
-0.24
-0.19
-0.19
-0.23
-0.31
-0.41
-0.53
-0.68
-0.86
-1.05
-1.21
-1.27
-1.18
-0.93
-0.59
-0.28
-0.09
-0.07
-0.17
-0.27
-0.26
-0.07
0.26
0.63
0.92
1.06
1.07
1.03
0.99
0.95
0.84
0.60
0.26
-0.05
-0.17
-0.04
0.30
0.64
0.76
0.55
0.11
-0.33
-0.55
-0.47
-0.18
0.11
0.26
0.24
0.11
-0.02
-0.12
-0.24
-0.46
-0.80
-1.17
-1.46
-1.55
-1.42
-1.15
-0.82
-0.51
-0.24
-0.03
0.11
0.12
-0.00
-0.23
-0.47
-0.61
-0.59
-0.39
-0.09
0.24
0.52
0.73
0.86
0.94
0.95
0.90
0.76
0.55
0.26
-0.06
-0.34
-0.50
-0.53
-0.41
-0.20
0.01
0.18
0.29
0.41
0.58
0.79
0.97
1.05
0.96
0.71
0.40
0.13
-0.05
-0.14
-0.21
-0.30
-0.37
-0.39
-0.28
-0.08
0.14
0.25
0.17
-0.07
-0.37
-0.59
-0.66
-0.59
-0.49
-0.44
-0.51
-0.68
-0.87
-1.03
-1.10
-1.11
-1.07
-1.01
-0.91
-0.77
-0.54
-0.22
0.15
0.50
0.75
0.88
0.89
0.82
0.72
0.65
0.62
0.63
0.68
0.77
0.89
1.03
1.12
1.10
0.96
0.69
0.34
0.02
-0.22
-0.33
-0.30
-0.18
-0.03
0.06
0.04
-0.06
-0.21
-0.33
-0.36
-0.26
-0.08
0.13
0.29
0.38
0.40
0.41
0.41
0.41
0.39
0.29
0.08
-0.22
-0.59
-0.95
-1.24
-1.40
-1.40
-1.29
-1.13
-0.98
-0.86
-0.79
-0.72
-0.63
-0.52
-0.41
-0.32
-0.27
-0.25
-0.23
-0.19
-0.12
-0.04
0.03
0.04
0.01
-0.02
-0.02
0.07
0.24
0.47
0.69
0.84
0.87
0.81
0.70
0.61
0.62
0.72
0.86
0.95
0.92
0.76
0.58
0.47
0.51
0.68
0.86
0.93
0.86
0.64
0.39
0.15
-0.05
-0.26
-0.52
-0.83
-1.12
-1.28
-1.23
-1.00
-0.65
-0.35
-0.20
-0.25
-0.47
-0.77
-1.03
-1.17
-1.19
-1.12
-1.02
-0.94
-0.86
-0.76
-0.60
-0.33
0.05
0.54
1.08
1.57
1.91
1.98
1.73
1.19
0.48
-0.23
-0.75
-1.01
-0.98
-0.73
-0.36
-0.02
0.19
0.26
0.20
0.13
0.12
0.21
0.34
0.44
0.43
0.30
0.11
-0.05
-0.13
-0.15
-0.16
-0.20
-0.26
-0.26
-0.12
0.19
0.61
0.97
1.12
0.93
0.44
-0.19
-0.74
-1.07
-1.12
-1.00
-0.82
-0.69
-0.65
-0.65
-0.60
-0.51
-0.41
-0.37
-0.45
-0.63
-0.81
-0.90
-0.82
-0.63
-0.39
-0.22
-0.16
-0.18
-0.17
-0.07
0.15
0.43
0.68
0.81
0.80
0.68
0.52
0.39
0.31
0.30
0.34
0.40
0.48
0.59
0.72
0.85
0.96
0.99
0.93
0.79
0.64
0.57
0.62
0.77
0.92
0.95
0.77
0.37
-0.19
-0.79
-1.26
-1.51
-1.49
-1.27
-0.94
-0.63
-0.40
-0.27
-0.18
-0.09
0.02
0.16
0.27
0.35
0.37
0.32
0.21
-0.01
-0.33
-0.72
-1.05
-1.23
-1.21
-1.01
-0.76
-0.55
-0.42
-0.33
-0.20
0.03
0.36
0.68
0.90
0.94
0.80
0.55
0.31
0.20
0.25
0.44
0.69
0.89
0.97
0.91
0.78
0.65
0.61
0.66
0.77
0.85
0.83
0.66
0.38
0.08
-0.15
-0.24
-0.19
-0.04
0.14
0.32
0.45
0.50
0.48
0.38
0.21
-0.01
-0.23
-0.42
-0.58
-0.71
-0.83
-0.90
-0.90
-0.76
-0.50
-0.20
-0.02
-0.08
-0.45
-1.01
-1.57
-1.89
-1.84
-1.45
-0.88
-0.32
0.06
0.23
0.24
0.17
0.07
-0.07
-0.22
-0.35
-0.36
-0.17
0.23
0.76
1.26
1.55
1.53
1.20
0.68
0.13
-0.27
-0.43
-0.32
-0.04
0.29
0.53
0.60
0.53
0.38
0.24
0.18
0.20
0.25
0.30
0.30
0.26
0.20
0.13
0.05
-0.05
-0.15
-0.21
-0.18
-0.03
0.25
0.54
0.72
0.67
0.35
-0.14
-0.63
-0.99
-1.13
-1.10
-1.01
-0.95
-0.95
-0.97
-0.95
-0.87
-0.76
-0.63
-0.50
-0.29
0.03
0.45
0.86
1.12
1.11
0.88
0.53
0.24
0.08
0.06
0.09
0.09
0.04
-0.02
-0.00
0.14
0.36
0.58
0.71
0.70
0.59
0.46
0.37
0.36
0.38
0.37
0.30
0.20
0.11
0.11
0.24
0.47
0.71
0.85
0.80
0.56
0.18
-0.24
-0.57
-0.70
-0.61
-0.35
-0.02
0.26
0.39
0.34
0.16
-0.11
-0.41
-0.71
-0.97
-1.18
-1.30
-1.31
-1.24
-1.13
-1.05
-1.02
-1.01
-0.93
-0.69
-0.28
0.23
0.71
1.05
1.17
1.10
0.92
0.76
0.68
0.66
0.66
0.61
0.50
0.38
0.32
0.33
0.35
0.33
0.22
0.11
0.06
0.18
0.47
0.82
1.11
1.19
1.02
0.67
0.26
-0.13
-0.43
-0.58
-0.59
-0.45
-0.22
0.03
0.22
0.28
0.19
-0.03
-0.31
-0.59
-0.84
-1.01
-1.08
-1.09
-1.06
-1.06
-1.14
-1.27
-1.40
-1.40
-1.22
-0.87
-0.48
-0.21
-0.15
-0.28
-0.44
-0.46
-0.22
0.26
0.83
1.30
1.55
1.60
1.53
1.48
1.50
1.57
1.56
1.39
1.03
0.52
0.00
-0.39
-0.59
-0.58
-0.42
-0.18
0.05
0.24
0.35
0.37
0.32
0.22
0.11
0.01
-0.05
-0.08
-0.14
-0.25
-0.41
-0.60
-0.75
-0.79
-0.68
-0.43
-0.12
0.11
0.18
0.05
-0.22
-0.52
-0.74
-0.81
-0.74
-0.58
-0.44
-0.35
-0.33
-0.32
-0.28
-0.20
-0.14
-0.19
-0.39
-0.70
-0.99
-1.08
-0.87
-0.39
0.25
0.82
1.17
1.23
1.07
0.84
0.66
0.60
0.63
0.65
0.58
0.39
0.13
-0.11
-0.18
-0.05
0.23
0.55
0.78
0.86
0.82
0.74
0.68
0.62
0.52
0.32
0.03
-0.26
-0.45
-0.48
-0.39
-0.30
-0.29
-0.41
-0.59
-0.72
-0.73
-0.61
-0.41
-0.20
-0.05
0.04
0.09
0.10
0.08
0.00
-0.14
-0.32
-0.46
-0.50
-0.43
-0.27
-0.13
-0.11
-0.24
-0.50
-0.78
-0.96
-0.96
-0.75
-0.39
0.05
0.47
0.80
0.98
0.97
0.79
0.47
0.10
-0.19
-0.35
-0.32
-0.14
0.09
0.30
0.39
0.34
0.20
0.05
0.00
0.10
0.31
0.52
0.64
0.60
0.42
0.21
0.02
-0.11
-0.24
-0.40
-0.60
-0.80
-0.91
-0.86
-0.68
-0.39
-0.06
0.28
0.61
0.90
1.07
1.05
0.81
0.37
-0.13
-0.56
-0.81
-0.87
-0.79
-0.68
-0.57
-0.49
-0.41
-0.30
-0.16
0.03
0.23
0.44
0.66
0.87
1.07
1.22
1.35
1.47
1.57
1.62
1.54
1.30
0.94
0.52
0.18
-0.04
-0.15
-0.26
-0.42
-0.67
-0.93
-1.11
-1.14
-1.00
-0.75
-0.46
-0.17
0.06
0.20
0.24
0.17
0.02
-0.16
-0.33
-0.48
-0.60
-0.68
-0.72
-0.69
-0.58
-0.40
-0.19
-0.03
-0.00
-0.12
-0.37
-0.69
-1.01
-1.25
-1.36
-1.32
-1.15
-0.92
-0.69
-0.53
-0.48
-0.54
-0.69
-0.87
-1.00
-1.01
-0.88
-0.61
-0.26
0.12
0.46
0.73
0.90
0.95
0.89
0.72
0.49
0.20
-0.10
-0.37
-0.56
-0.63
-0.58
-0.42
-0.13
0.24
0.66
1.05
1.32
1.37
1.16
0.73
0.21
-0.21
-0.42
-0.38
-0.16
0.11
0.35
0.57
0.81
1.08
1.36
1.55
1.55
1.34
0.99
0.60
0.28
0.08
-0.03
-0.10
-0.18
-0.33
-0.52
-0.74
-0.92
-1.00
-0.91
-0.61
-0.16
0.33
0.75
1.00
1.14
1.24
1.34
1.46
1.51
1.42
1.18
0.86
0.57
0.35
0.20
0.07
-0.09
-0.28
-0.45
-0.55
-0.57
-0.50
-0.37
-0.18
0.04
0.27
0.42
0.43
0.25
-0.04
-0.34
-0.51
-0.52
-0.40
-0.25
-0.15
-0.11
-0.06
0.06
0.26
0.50
0.66
0.64
0.41
0.02
-0.41
-0.75
-0.90
-0.84
-0.65
-0.45
-0.34
-0.32
-0.35
-0.31
-0.15
0.12
0.37
0.45
0.31
-0.01
-0.31
-0.40
-0.16
0.33
0.92
1.37
1.56
1.48
1.25
1.01
0.87
0.85
0.90
0.99
1.08
1.17
1.24
1.20
1.01
0.62
0.10
-0.46
-0.91
-1.16
-1.17
-0.99
-0.73
-0.46
-0.25
-0.12
-0.07
-0.06
-0.08
-0.12
-0.17
-0.22
-0.28
-0.32
-0.34
-0.31
-0.23
-0.14
-0.10
-0.17
-0.40
-0.74
-1.06
-1.20
-1.07
-0.73
-0.34
-0.08
-0.09
-0.32
-0.61
-0.76
-0.71
-0.46
-0.16
0.09
0.25
0.38
0.54
0.74
0.91
0.96
0.85
0.63
0.38
0.20
0.10
0.08
0.06
0.03
0.01
0.04
0.13
0.30
0.49
0.65
0.72
0.70
0.62
0.54
0.50
0.53
0.58
0.58
0.45
0.14
-0.32
-0.83
-1.25
-1.50
-1.54
-1.40
-1.17
-0.93
-0.74
-0.63
-0.62
-0.68
-0.79
-0.85
-0.83
-0.67
-0.39
-0.09
0.14
0.21
0.10
-0.16
-0.46
-0.70
-0.79
-0.69
-0.44
-0.12
0.18
0.37
0.43
0.39
0.31
0.22
0.15
0.10
0.02
-0.07
-0.13
-0.13
-0.03
0.15
0.40
0.66
0.89
1.07
1.17
1.20
1.18
1.19
1.23
1.30
1.31
1.18
0.84
0.36
-0.11
-0.37
-0.33
-0.01
0.43
0.74
0.76
0.47
-0.02
-0.49
-0.76
-0.73
-0.47
-0.10
0.19
0.30
0.21
-0.01
-0.23
-0.39
-0.44
-0.41
-0.30
-0.14
0.06
0.25
0.38
0.37
0.22
-0.03
-0.30
-0.48
-0.52
-0.40
-0.15
0.20
0.60
0.99
1.31
1.48
1.48
1.32
1.10
0.94
0.93
1.08
1.31
1.51
1.56
