1563898771.00
64.000000
-0.00
-0.00
-0.00
-0.00
-0.00
-0.00
-0.00
-0.00
-0.00
-0.00
0.00
0.01
0.01
-0.00
-0.03
-0.05
-0.05
0.00
0.13
0.36
0.66
1.01
1.37
1.72
2.06
2.40
2.79
3.24
3.80
4.44
5.10
5.73
6.33
6.89
7.48
8.19
9.08
10.23
11.57
12.95
14.24
15.37
16.38
17.45
18.81
20.63
23.13
26.12
29.32
32.44
35.31
38.01
40.88
44.37
48.82
54.61
61.38
68.61
75.71
82.32
88.53
94.88
102.12
110.83
121.60
133.89
146.85
159.53
171.31
182.23
193.01
205.12
217.40
232.18
250.03
270.93
293.50
314.70
330.18
335.40
327.17
304.80
270.78
228.95
183.49
137.43
92.12
47.71
4.01
-38.75
-79.81
-117.99
-152.91
-184.68
-214.01
-241.98
-269.83
-298.66
-328.75
-359.16
-387.30
-409.68
-423.02
-425.54
-417.52
-400.86
-378.04
-351.08
-321.27
-289.59
-257.58
-227.51
-201.74
-181.51
-166.15
-153.13
-139.43
-123.17
-104.60
-86.04
-70.29
-59.10
-51.97
-46.57
-40.12
-31.09
-20.13
-9.49
-1.62
2.56
4.27
6.07
10.21
17.00
24.64
30.28
31.87
29.52
25.49
22.82
23.55
27.49
32.39
35.29
34.39
29.97
24.31
20.44
20.22
23.56
28.38
31.82
31.87
28.40
23.20
18.91
17.57
19.45
23.01
25.81
25.91
22.97
18.46
14.71
13.63
15.53
18.94
21.38
20.83
16.99
11.44
6.89
5.52
7.81
12.09
15.51
15.79
12.46
7.28
3.24
2.80
6.54
12.70
18.19
20.26
18.13
13.24
8.40
6.17
7.30
10.41
12.83
12.22
8.09
2.06
-2.99
-4.72
-2.71
1.36
4.63
4.88
1.87
-2.57
-5.57
-5.15
-1.39
3.55
6.61
5.71
0.95
-5.37
-10.11
-11.05
-8.04
-3.14
0.64
1.09
-2.06
-6.93
-10.74
-11.39
-8.75
-4.65
-1.76
-1.96
-5.20
-9.53
-12.38
-12.00
-8.68
-4.44
-1.89
-2.60
-6.10
-10.32
-12.66
-11.61
-7.59
-2.62
0.82
1.25
-1.01
-4.10
-5.71
-4.45
-0.64
3.79
6.40
5.68
1.84
-3.12
-6.55
-6.54
-2.99
2.27
6.54
7.70
5.37
1.28
-1.81
-1.65
2.07
7.49
11.67
12.20
8.81
3.42
-0.91
-1.83
0.92
5.42
8.74
8.80
5.71
1.67
-0.32
1.64
7.12
13.50
17.38
16.56
11.40
4.57
-0.36
-0.93
2.91
8.77
13.31
14.21
11.36
6.88
3.78
4.05
7.56
12.07
14.61
13.24
8.21
1.95
-2.40
-2.74
0.72
5.68
9.06
8.79
5.13
0.31
-2.70
-2.11
1.61
6.03
8.12
6.17
0.84
-5.15
-8.50
-7.28
-1.99
4.64
9.35
10.11
7.26
3.19
0.91
2.15
6.28
10.84
12.86
10.78
5.24
-1.17
-5.48
-5.97
-3.16
0.54
2.44
1.06
-2.84
-6.76
-8.02
-5.39
0.01
5.46
8.15
6.97
3.11
-0.68
-1.82
0.57
5.14
9.12
10.14
7.61
3.06
-0.76
-1.62
0.97
5.40
9.00
9.50
6.42
1.22
-3.43
-5.31
-3.77
-0.11
3.27
4.25
2.17
-1.77
-5.24
-6.16
-3.87
0.31
3.86
4.41
1.19
-4.35
-9.35
-10.98
-8.21
-2.29
3.78
7.01
6.15
2.32
-1.70
-3.21
-1.18
3.12
6.92
7.73
4.84
-0.25
-4.66
-5.86
-3.17
1.92
6.53
8.05
5.63
0.68
-4.04
-5.94
-4.17
-0.06
3.76
4.90
2.72
-1.28
-4.45
-4.55
-1.21
3.90
7.93
8.60
5.54
0.57
-3.33
-3.87
-0.66
4.34
8.10
8.18
4.24
-1.66
-6.30
-6.98
-3.29
2.79
7.85
9.08
5.83
-0.04
-5.25
-7.01
-4.58
0.37
4.93
6.60
4.85
1.37
-1.06
-0.29
3.73
8.88
11.93
10.55
4.69
-3.26
-9.67
-11.73
-8.89
-3.16
2.14
4.22
2.35
-1.79
-5.29
-5.72
-2.64
2.12
5.61
5.49
1.50
-4.38
-8.99
-9.91
-6.78
-1.60
2.65
3.72
1.49
-1.91
-3.58
-1.51
3.86
10.03
13.63
12.46
6.85
-0.59
-6.19
-7.41
-4.01
1.79
6.54
7.68
4.75
-0.20
-4.09
-4.57
-1.51
2.93
5.69
4.78
0.51
-4.64
-7.41
-5.93
-0.76
5.29
8.75
7.55
2.20
-4.47
-8.98
-9.11
-5.23
0.03
3.41
2.84
-1.25
-6.21
-8.69
-6.66
-0.68
6.35
10.68
9.89
4.32
-3.03
-8.23
-8.58
-4.25
1.97
6.28
6.20
1.91
-3.88
-7.65
-7.26
-3.19
1.86
4.57
3.10
-1.88
-7.65
-11.05
-10.30
-5.99
-0.63
2.83
2.72
-0.41
-4.08
-5.41
-2.78
2.96
9.08
12.35
11.08
6.13
0.41
-2.82
-2.07
1.70
5.52
6.49
3.63
-1.59
-5.97
-6.71
-3.13
2.84
7.77
8.81
5.27
-0.88
-6.19
-7.73
-4.68
1.21
6.64
8.64
6.26
1.13
-3.57
-4.85
-1.74
4.11
9.48
11.20
8.22
2.05
-3.99
-6.74
-5.14
-0.67
3.42
4.32
1.31
-3.79
-7.63
-7.52
-2.97
3.81
9.17
10.14
6.10
-0.74
-6.64
-8.40
-5.20
1.05
6.78
8.76
5.98
0.12
-5.41
-7.51
-5.16
0.05
4.85
6.31
3.64
-1.45
-5.63
-6.09
-2.18
4.09
9.15
10.00
5.95
-0.80
-6.52
-8.06
-4.69
1.47
6.75
8.14
4.92
-0.83
-5.64
-6.62
-3.27
2.40
6.92
7.45
3.42
-3.15
-8.78
-10.53
-7.68
-2.09
2.83
4.27
1.63
-3.04
-6.23
-5.29
0.01
7.04
11.88
11.69
6.32
-1.43
-7.56
-9.09
-5.66
0.26
5.04
5.93
2.53
-3.00
-7.38
-8.10
-4.80
0.50
4.61
5.01
1.37
-4.27
-8.63
-9.04
-5.10
1.06
5.95
6.75
3.04
-2.88
-7.29
-7.26
-2.37
4.93
10.73
11.95
8.08
1.42
-4.25
-5.94
-3.09
2.12
6.19
6.45
2.57
-3.16
-7.36
-7.54
-3.60
2.01
5.87
5.51
1.05
-4.97
-9.08
-8.88
-4.55
1.25
4.99
4.30
-0.54
-6.84
-10.98
-10.49
-5.43
1.66
7.10
8.24
4.88
-0.65
-4.79
-4.94
-0.88
5.00
9.11
8.86
4.13
-2.47
-7.29
-7.72
-3.85
1.69
5.42
5.21
1.62
-2.38
-3.50
-0.03
6.80
13.48
16.26
13.22
5.57
-3.16
-8.92
-9.48
-5.54
-0.22
2.83
1.64
-3.02
-8.19
-10.43
-8.11
-2.31
3.76
6.69
4.97
-0.23
-5.63
-8.04
-6.09
-1.06
3.97
6.05
4.07
-0.65
-5.10
-6.47
-3.74
1.68
6.82
8.86
6.79
2.01
-2.52
-3.97
-1.40
3.78
8.50
9.89
6.90
0.84
-5.38
-8.94
-8.70
-5.69
-2.48
-1.40
-3.25
-6.79
-9.44
-8.94
-4.68
1.71
7.17
8.86
5.81
-0.45
-6.58
-9.27
-7.09
-1.38
4.63
7.63
6.25
1.77
-2.69
-4.07
-1.36
3.94
8.61
9.79
6.77
1.39
-2.95
-3.52
0.27
6.32
11.02
11.36
6.71
-0.81
-7.45
-9.95
-7.34
-1.45
4.18
6.36
4.11
-0.86
-5.17
-6.01
-2.70
2.74
6.98
7.30
3.34
-2.60
-7.06
-7.34
-3.30
2.67
6.91
6.67
1.80
-5.24
-10.68
-11.72
-8.03
-1.92
2.97
3.92
0.53
-4.89
-8.83
-8.53
-3.72
3.24
8.67
9.57
5.42
-1.66
-8.12
-10.97
-9.40
-5.05
-1.01
0.07
-2.57
-7.46
-11.94
-13.72
-12.26
-8.98
-6.28
-6.13
-8.78
-12.83
-16.16
-17.44
-17.05
-16.85
-18.94
-24.10
-31.02
-36.83
-38.68
-35.66
-29.65
-24.60
-24.21
-29.69
-38.29
-44.27
-41.54
-26.81
-1.88
26.87
51.03
64.10
64.39
55.71
45.05
38.94
40.50
48.20
57.24
62.28
59.98
50.58
37.06
23.41
12.74
6.59
4.55
5.30
6.58
5.75
0.61
-9.61
-23.55
-37.69
-47.58
-50.13
-45.84
-39.61
-39.12
-51.03
-77.00
-111.64
-143.51
-159.26
-149.18
-111.16
-52.38
12.74
67.34
97.55
97.29
70.40
29.65
-7.48
-25.41
-16.12
17.49
62.88
102.87
122.52
114.73
81.65
32.40
-21.45
-69.60
-104.93
-123.30
-122.94
-104.20
-70.26
-27.35
16.24
52.69
76.73
86.66
83.47
69.20
46.45
18.56
-9.66
-32.23
-44.21
-43.54
-32.10
-14.03
7.27
30.48
55.56
80.48
99.09
102.33
82.72
40.57
-13.51
-61.51
-85.76
-77.35
-40.38
10.10
54.97
79.41
78.18
56.04
24.39
-4.02
-19.53
-18.30
-2.45
21.03
42.41
52.37
45.13
21.03
-13.45
-48.22
-73.53
-83.62
-77.63
-58.07
-28.12
9.33
50.70
89.97
118.53
127.76
113.61
79.38
35.41
-5.41
-33.18
-44.49
-42.11
-31.63
-17.41
-1.09
17.64
38.71
59.71
75.99
82.97
78.83
65.84
49.71
36.77
31.23
33.73
41.65
51.10
58.87
63.39
64.25
61.14
53.17
39.17
19.31
-3.67
-24.52
-36.89
-36.56
-23.73
-3.55
15.45
24.82
19.87
1.64
-23.60
-47.41
-62.83
-66.87
-60.63
-47.55
-31.33
-14.77
0.09
10.94
15.04
9.99
-4.67
-26.36
-50.06
-70.63
-85.72
-97.47
-111.32
-132.47
-161.99
-195.15
-223.51
-239.58
-240.73
-230.23
-214.19
-196.91
-178.32
-155.13
-124.83
-89.38
-55.55
-31.74
-23.08
-28.73
-42.84
-58.12
-69.81
-77.13
-81.88
-85.37
-86.76
-83.07
-70.71
-47.46
-13.56
28.41
74.66
121.33
165.19
204.06
236.92
263.55
284.12
298.99
308.56
313.24
313.50
309.89
303.15
294.02
282.98
270.11
255.12
237.54
217.00
193.92
168.41
140.85
111.83
82.01
52.08
22.70
-5.51
-31.83
-55.54
-75.95
-92.34
-104.08
-110.78
-112.29
-108.62
-99.86
-86.14
-67.71
-44.89
-17.98
12.44
45.36
79.40
112.79
143.70
171.29
194.65
213.18
226.80
235.70
240.19
240.42
236.39
228.19
216.27
201.48
185.20
168.94
153.70
139.41
124.70
107.37
85.12
56.50
21.62
-17.77
-58.88
-99.00
-136.50
-171.15
-203.74
-235.03
-264.67
-290.89
-310.66
-320.85
-319.76
-308.30
-290.48
-272.89
-263.29
-268.33
-291.18
-329.59
-375.79
-418.33
-446.03
-451.41
-433.04
-395.31
-346.45
-295.94
-251.66
-218.02
-194.37
-175.88
-155.62
-127.94
-91.74
-52.04
-18.85
-2.57
-9.26
-36.49
-74.46
-109.80
-131.17
-133.12
-117.39
-90.68
-60.40
-31.49
-3.47
27.15
63.89
107.00
152.29
192.30
219.74
232.07
232.08
227.74
225.67
226.99
225.98
212.70
178.00
118.64
43.81
-36.20
-102.91
-141.19
-144.12
-114.88
-64.57
-8.14
40.97
75.87
96.46
109.40
123.42
143.00
162.98
174.81
171.37
148.49
109.69
60.02
12.02
-21.94
-33.04
-18.56
17.96
67.35
117.81
159.13
184.83
194.00
187.78
168.24
137.49
99.73
62.08
33.65
22.55
31.56
57.02
88.98
117.11
134.61
141.21
141.30
140.04
139.72
138.76
133.57
119.77
95.46
59.10
9.91
-52.03
-124.32
-201.12
-273.93
-334.15
-377.29
-402.04
-412.14
-412.20
-404.51
-386.93
-354.36
-302.65
-227.71
-144.66
-66.45
-8.32
19.06
13.77
-16.60
-57.67
-93.10
-109.80
-101.99
-69.26
-18.02
42.11
101.14
151.31
188.24
211.10
221.52
222.04
218.48
216.24
220.38
233.99
257.43
287.52
319.37
345.99
358.57
350.39
317.26
259.92
184.36
100.76
22.01
-39.33
-75.05
-85.01
-78.00
-70.12
-78.54
-113.82
-174.81
-248.92
-317.72
-364.87
-381.88
-368.81
-331.73
-278.72
-217.16
-153.61
-94.59
-46.59
-14.70
-0.93
-3.31
-17.13
-37.17
-59.10
-79.82
-96.94
-108.18
-112.24
-109.31
-101.03
-89.09
-73.37
-51.21
-19.04
24.17
73.53
117.70
142.73
138.77
106.01
56.76
11.77
-7.96
10.24
65.28
142.90
222.11
283.91
316.96
319.17
294.72
249.94
190.64
121.66
48.32
-22.56
-82.89
-126.61
-150.91
-158.63
-157.08
-154.56
-156.43
-163.11
-173.15
-181.04
-180.50
-166.61
-137.35
-94.18
-41.15
14.61
65.24
104.71
130.98
146.26
156.07
167.07
184.97
212.96
250.38
292.64
331.69
358.02
363.21
343.37
301.39
246.62
191.58
146.54
115.55
95.26
77.38
53.52
19.07
-25.36
-75.43
-126.14
-175.19
-222.72
-269.41
-314.11
-353.41
-382.89
-399.54
-403.55
-398.43
-390.21
-384.26
-383.22
-385.72
-387.27
-382.44
-367.20
-342.05
-309.36
-273.59
-238.84
-207.03
-176.93
-144.62
-104.73
-52.04
16.92
102.47
199.54
298.06
382.75
438.39
455.85
436.82
394.45
348.69
320.97
321.50
348.13
388.86
427.50
449.26
444.39
409.75
348.62
269.99
186.20
110.94
55.19
23.84
14.36
17.53
21.91
17.48
-2.04
-38.81
-91.03
-153.94
-220.80
-283.63
-334.55
-367.72
-380.40
-373.66
-351.40
-318.33
-278.89
-237.86
-201.10
-175.54
-166.89
-175.57
-194.17
-207.96
-199.76
-157.43
-80.05
20.87
125.64
214.70
276.48
310.38
324.42
329.45
333.46
339.05
344.82
348.70
348.06
343.73
338.33
333.90
330.10
324.01
311.84
291.12
262.09
227.91
193.50
163.86
142.10
128.33
119.79
112.08
100.76
82.78
58.84
29.79
-2.03
-33.86
-63.52
-90.28
-114.88
-139.21
-165.81
-197.04
-235.21
-280.39
-329.90
-378.19
-417.66
-440.03
-438.66
-410.95
-356.12
-280.53
-194.64
-110.28
-37.25
18.56
56.72
81.47
98.54
113.00
125.62
134.83
137.80
132.49
117.86
95.29
67.96
39.02
10.30
-18.86
-50.01
-84.38
-121.59
-159.86
-195.93
-226.33
-248.58
-261.61
-265.54
-260.32
-245.64
-217.04
-172.91
-114.59
-46.28
25.92
95.77
157.95
209.34
248.10
273.46
284.59
280.61
261.29
227.79
182.86
131.79
82.03
41.43
17.35
12.11
21.70
36.46
44.47
36.25
9.96
-27.47
-63.58
-86.19
-89.56
-76.13
-54.60
-32.34
-16.22
-9.18
-9.85
-14.62
-20.39
-26.42
-33.80
-43.27
-53.56
-62.23
-66.20
-63.71
-55.55
-44.66
-35.21
-30.39
-31.22
-36.37
-43.38
-49.38
-52.62
-53.10
-52.43
-53.01
-56.80
-64.56
-75.56
-88.40
-101.14
-112.45
-122.06
-130.80
-140.21
-151.80
-166.51
-184.34
-204.48
-225.24
-244.90
-262.13
-276.19
-286.92
-294.29
-297.92
-296.53
-288.99
-272.09
-242.47
-197.87
-138.03
-65.11
16.79
102.64
187.56
267.09
338.17
398.99
448.81
487.80
516.85
536.88
547.92
548.18
534.09
502.02
450.52
382.49
305.47
229.67
164.39
114.99
81.56
60.42
46.93
37.78
31.76
28.78
28.45
29.19
28.70
24.99
17.77
7.99
-2.46
-11.78
-19.41
-26.05
-33.68
-44.07
-57.83
-73.74
-89.06
-100.26
-104.32
-99.90
-87.57
-69.53
-48.63
-27.91
-9.50
5.51
16.78
24.17
27.45
25.72
18.04
3.70
-17.76
-46.58
-82.65
-124.68
-168.60
-208.36
-236.71
-247.36
-237.89
-211.48
-176.04
-141.07
-113.98
-97.10
-87.67
-79.93
-68.37
-49.41
-22.49
11.25
50.25
92.96
136.60
175.99
204.25
215.51
207.93
185.39
156.37
130.06
112.01
101.85
94.28
82.54
62.76
35.30
3.72
-27.70
-56.28
-81.43
-103.71
-123.37
-139.79
-151.79
-159.02
-162.24
-163.06
-163.20
-163.21
-161.99
-157.23
-146.96
-129.52
-105.28
-76.81
-48.11
-23.10
-4.32
7.69
13.92
15.88
14.62
9.83
0.42
-14.27
-33.14
-52.81
-67.92
-72.61
-62.09
-33.90
10.89
67.23
126.28
177.05
209.08
216.15
199.08
165.97
129.50
102.15
91.50
98.10
115.90
134.79
144.10
136.00
108.53
66.84
22.00
-12.76
-27.51
-19.86
3.88
32.00
52.50
58.97
51.97
35.88
15.52
-7.39
-32.06
-55.22
-70.25
-70.20
-52.89
-24.32
2.40
13.00
-0.89
-37.59
-86.14
-131.46
-161.05
-168.56
-155.10
-127.14
-92.31
-56.63
-23.56
4.99
27.65
43.32
51.37
52.51
48.74
43.12
38.71
37.67
40.70
46.99
54.67
61.63
66.28
67.97
66.98
63.94
59.27
52.80
43.87
32.30
17.37
-0.92
-21.67
-43.20
-63.47
-80.60
-93.20
-100.58
-102.66
-99.76
-92.26
-80.23
-64.35
-45.52
-24.90
-3.70
16.74
35.30
50.89
62.86
70.93
75.32
76.78
76.52
75.79
75.41
75.85
76.85
77.85
78.18
77.46
75.95
74.55
74.35
75.96
79.35
83.53
86.82
87.53
84.67
78.38
69.75
60.48
50.93
40.86
29.05
13.98
-5.15
-28.40
-54.88
-83.47
-112.18
-139.27
-161.28
-173.46
-171.55
-154.38
-125.58
-92.82
-64.53
-46.02
-37.25
-33.43
-28.71
-19.86
-7.89
3.33
10.14
11.74
10.38
9.27
10.86
15.03
19.62
22.27
21.72
18.68
15.03
12.72
12.93
15.42
18.91
21.73
22.61
21.22
18.24
14.94
12.55
11.67
12.13
13.09
13.56
12.82
10.66
7.50
3.99
0.75
-1.96
-4.32
-6.78
-9.83
-13.82
-18.82
-24.65
-31.01
-37.67
-44.50
-51.63
-59.21
-67.42
-76.36
-86.12
-96.68
-108.03
-120.12
-132.95
-146.45
-160.49
-174.74
-188.80
-202.08
-213.77
-222.96
-228.53
-229.40
-224.61
-213.85
-196.83
-173.67
-145.13
-112.45
-77.26
-41.49
-7.07
24.16
50.70
71.64
86.58
95.80
100.25
101.48
101.39
101.97
104.98
111.49
121.81
135.21
150.17
164.62
176.31
183.09
183.08
174.85
157.58
131.12
96.27
54.83
9.76
-34.91
-74.70
-105.23
-123.11
-126.53
-115.81
-93.19
-62.39
-27.71
6.84
38.03
63.46
81.39
90.46
89.73
79.35
60.65
36.41
10.78
-11.37
-25.04
-25.45
-8.38
28.92
86.76
161.47
243.51
320.03
378.14
409.30
412.35
393.53
363.29
331.82
305.31
284.28
265.70
245.73
222.09
194.28
163.65
129.12
88.54
40.82
-11.77
-63.26
-106.05
-134.20
-145.89
-144.55
-136.90
-128.72
-122.35
-117.03
-111.23
-105.60
-103.82
-110.84
-129.85
-159.67
-194.35
-225.96
-248.36
-259.60
-261.94
-259.81
-256.87
-254.77
-253.18
-250.70
-246.38
-240.26
-232.31
-222.36
-209.27
-190.31
-162.80
-125.36
-78.56
-25.13
30.46
83.07
127.78
161.07
181.81
190.46
188.10
176.02
155.59
128.35
96.32
62.07
28.76
-0.03
-20.73
-30.54
-27.81
-12.55
13.48
47.06
83.93
119.46
149.44
171.47
183.99
186.32
178.40
160.89
135.11
102.95
66.63
28.37
-8.90
-42.37
-69.54
-88.37
-97.47
-96.15
-83.79
-60.90
-29.06
9.24
50.70
91.75
129.09
160.25
184.28
201.07
210.61
213.24
209.51
200.01
185.46
166.59
144.16
119.42
93.86
68.97
46.64
29.06
18.37
16.32
24.02
41.39
67.32
99.67
135.38
171.41
205.29
235.28
260.13
278.86
290.36
293.19
285.74
266.00
232.91
186.64
128.99
63.04
-7.50
-79.12
-149.46
-218.06
-288.16
-364.02
-448.98
-542.98
-640.76
-732.22
-805.44
-850.73
-863.96
-849.46
-816.98
-778.91
-746.97
-729.34
-728.67
-742.13
-762.42
-768.16
-740.57
-665.97
-540.65
-373.03
-180.63
16.51
201.92
364.87
500.19
604.35
675.81
715.48
726.12
711.33
675.25
622.23
556.60
483.22
406.43
332.29
268.46
220.25
188.21
168.32
154.17
140.10
123.57
104.47
84.56
65.30
46.63
27.54
7.71
-11.78
-28.82
-41.43
-49.36
-54.03
-58.01
-64.04
-73.89
-87.56
-103.45
-119.30
-133.25
-144.68
-154.17
-163.17
-173.16
-185.16
-199.06
-213.47
-226.41
-235.80
-240.04
-238.23
-231.49
-219.77
-203.14
-181.63
-155.49
-125.39
-92.45
-58.33
-24.92
6.20
34.00
57.99
78.37
95.81
111.28
125.57
139.21
152.30
164.44
175.13
183.32
187.58
186.74
179.61
165.46
144.08
115.69
81.24
42.36
0.87
-41.07
-81.41
-118.39
-150.43
-176.28
-194.86
-205.13
-206.04
-196.55
-175.93
-144.24
-102.83
-53.99
-0.67
53.85
106.87
156.47
201.50
241.20
274.67
300.36
316.35
320.76
312.50
292.30
262.87
228.52
194.05
163.47
138.92
120.65
107.61
97.81
88.82
77.95
62.70
41.84
16.52
-9.34
-30.14
-40.84
-39.51
-28.18
-11.60
5.77
22.77
41.93
68.02
104.47
150.24
199.05
241.36
268.00
273.73
258.80
228.45
190.20
150.47
112.36
75.46
38.14
0.73
-32.73
-55.02
-59.32
-43.10
-10.56
28.42
62.35
82.69
86.65
76.67
58.07
36.38
16.91
5.42
8.61
32.93
80.82
147.19
218.49
276.00
302.71
290.25
242.39
172.91
99.46
35.72
-13.50
-51.52
-86.47
-126.24
-174.74
-231.41
-293.17
-356.82
-421.06
-485.77
-550.43
-612.68
-668.23
-712.19
-740.96
-754.82
-755.11
-743.86
-722.36
-690.50
-647.16
-590.99
-521.69
-440.81
-351.84
-259.36
-168.44
-83.78
-9.30
51.90
97.21
124.81
134.32
127.08
106.55
77.60
45.62
15.83
-6.95
-18.27
-14.34
6.91
44.07
91.74
141.32
184.18
215.08
233.77
244.19
251.54
259.08
266.93
273.84
279.90
288.21
303.47
328.32
359.50
387.07
397.81
381.59
337.35
274.54
209.77
160.18
136.63
140.42
164.26
196.25
224.41
240.01
238.32
217.85
179.24
125.09
60.18
-8.22
-71.07
-119.16
-145.13
-145.16
-119.40
-71.77
-9.73
57.00
117.41
160.87
179.01
168.24
131.47
78.21
22.53
-20.92
-41.36
-35.16
-6.65
33.65
73.85
105.35
125.53
137.65
148.30
162.84
184.05
211.16
240.36
267.70
290.68
308.45
321.00
327.46
325.70
312.60
288.58
253.64
208.65
155.57
96.41
32.54
-35.14
-105.14
-174.21
-236.97
-287.56
-320.96
-334.29
-328.34
-307.05
-276.17
-241.61
-208.44
-180.58
-160.81
-150.31
-147.92
-150.51
-153.64
-153.06
-145.98
-131.61
-111.10
-87.49
-65.33
-49.86
-45.38
-52.84
-68.24
-83.56
-90.46
-84.84
-69.67
-53.54
-45.23
-48.01
-56.80
-60.77
-50.11
-22.67
13.65
44.50
56.12
42.04
5.31
-43.99
-93.33
-132.30
-154.34
-156.76
-140.28
-109.10
-71.02
-36.67
-16.29
-15.29
-30.83
-52.24
-65.91
-62.41
-41.93
-14.51
5.23
6.42
-11.72
-39.70
-63.39
-72.30
-65.19
-49.34
-34.38
-25.26
-19.08
-8.19
13.08
42.91
71.86
88.34
85.59
65.45
36.31
7.52
-15.97
-35.03
-53.20
-72.14
-89.13
-97.84
-91.62
-66.91
-24.59
30.21
88.86
140.56
173.94
180.39
157.84
113.69
63.54
26.04
15.11
33.19
69.93
106.76
125.49
116.35
81.75
33.81
-11.97
-43.56
-56.51
-53.87
-43.00
-31.05
-21.23
-11.57
3.06
27.13
60.84
98.69
131.30
149.04
146.66
126.06
95.69
67.15
50.15
48.78
60.28
77.49
91.86
96.77
89.11
68.76
37.39
-3.27
-52.43
-109.80
-174.11
-241.73
-306.62
-361.58
-401.55
-424.52
-432.14
-428.48
-417.95
-403.35
-384.90
-361.03
-330.02
-291.63
-247.76
-202.01
-158.33
-119.08
-84.45
-52.76
-21.75
9.79
41.33
71.43
99.19
125.27
151.35
178.66
206.64
233.04
255.21
271.35
280.64
282.18
273.99
253.85
221.44
180.52
138.77
104.60
83.15
73.41
68.71
60.42
42.55
14.64
-18.09
-47.50
-65.84
-68.32
-54.64
-29.31
-0.74
20.94
27.42
15.73
-9.69
-38.36
-58.32
-61.53
-47.32
-21.94
5.46
27.82
43.26
55.26
69.78
91.47
121.10
155.86
191.49
224.87
255.02
282.06
305.50
322.94
330.83
326.29
309.21
282.90
253.23
226.38
206.25
194.00
186.98
180.57
170.74
155.64
135.71
112.85
88.65
63.28
35.44
2.94
-36.21
-83.04
-137.00
-195.84
-255.03
-307.89
-346.91
-366.17
-363.54
-342.92
-313.03
-283.55
-260.40
-242.79
-224.49
-198.46
-162.26
-121.09
-86.02
-68.62
-75.12
-103.10
-142.74
-181.41
-209.03
-221.46
-220.62
-211.50
-198.56
-183.18
-163.83
-137.98
-104.42
-64.62
-22.00
19.27
55.67
84.74
104.50
112.88
108.06
89.62
59.63
23.09
-13.44
-43.32
-61.44
-64.88
-52.41
-24.15
18.74
73.54
135.65
198.50
254.77
298.73
327.57
341.62
343.30
335.98
322.33
303.93
280.73
251.64
215.03
168.83
111.71
43.82
-32.21
-110.95
-184.17
-243.71
-284.40
-306.46
-315.36
-319.42
-325.97
-338.35
-356.55
-376.06
-390.64
-394.36
-382.73
-353.65
-308.24
-251.23
-189.55
-131.01
-80.86
-40.18
-6.61
23.73
53.42
82.59
109.79
134.06
156.37
179.59
206.01
235.38
264.53
289.02
305.73
314.11
315.80
312.53
304.47
289.72
265.68
231.15
187.76
139.85
92.15
47.41
5.43
-35.80
-77.28
-116.25
-145.42
-155.39
-139.10
-96.28
-35.34
29.48
83.52
117.43
130.46
129.03
122.22
116.81
114.09
110.40
100.09
79.07
47.29
8.87
-29.81
-62.74
-86.49
-101.76
-112.48
-124.01
-141.41
-166.93
-198.90
-232.44
-262.22
-283.80
-296.66
-305.01
-314.44
-328.79
-347.57
-364.45
-370.79
-358.60
-323.76
-267.97
-197.54
-120.46
-43.42
29.83
98.03
160.43
215.36
259.88
290.71
306.10
307.02
296.96
280.93
263.60
247.60
233.42
219.82
204.87
187.25
167.00
145.47
124.71
106.53
91.75
80.09
70.42
61.34
51.86
41.74
31.46
21.85
13.67
7.25
2.40
-1.38
-4.72
-8.05
-11.49
-14.90
-17.99
-20.50
-22.32
-23.53
-24.28
-24.78
-25.18
-25.51
-25.77
-25.92
-25.92
-25.72
-25.32
-24.75
-24.04
-23.22
-22.32
-21.20
-20.00
-18.79
-17.58
-16.41
-15.30
-14.24
-13.24
-12.30
-11.42
-10.63
-9.92
-9.26
-8.65
-8.09
-7.56
-7.08
-6.63
-6.21
-5.85
-5.52
-5.21
-4.93
-4.67
-4.42
-4.19
-3.98
-3.78
-3.60
-3.44
-3.29
-3.15
-3.02
-2.90
-2.78
-2.67
-2.56
-2.47
-2.38
-2.30
-2.22
-2.15
-2.08
-2.01
-1.95
-1.89
-1.83
-1.78
-1.72
-1.68
-1.63
-1.58
-1.55
-1.51
-1.48
-1.45
-1.40
-1.33
-1.27
-1.21
-1.22
-1.31
-1.49
-1.71
-1.90
-1.98
-1.93
-1.75
-1.55
-1.43
-1.48
-1.71
-2.05
-2.35
-2.48
-2.35
-2.04
-1.68
-1.48
-1.61
-2.07
-2.73
-3.30
-3.53
-3.25
-2.60
-1.94
-1.72
-2.31
-3.73
-5.63
-7.30
-8.05
-7.54
-6.02
-4.37
-3.65
-4.71
-7.65
-11.64
-15.22
-16.89
-15.92
-12.80
-9.21
-7.21
-8.38
-12.91
-19.36
-25.19
-28.05
-26.70
-21.76
-15.55
-10.85
-9.92
-13.54
-21.15
-30.83
-39.53
-43.51
-38.93
-23.10
4.39
40.26
77.39
106.63
120.56
116.99
100.37
80.38
66.32
63.68
71.55
83.79
92.86
93.91
86.69
73.83
59.85
46.74
33.83
19.12
1.93
-15.74
-29.86
-36.55
-34.50
-25.49
-14.21
-5.66
-2.93
-5.76
-11.07
-14.77
-13.68
-7.26
2.65
12.89
20.81
25.19
25.80
22.73
16.00
6.38
-3.69
-10.35
-10.28
-3.11
7.26
13.68
9.59
-7.59
-34.65
-64.11
-88.34
-103.21
-108.97
-108.70
-106.22
-102.26
-96.08
-86.79
-74.90
-62.77
-53.97
-51.51
-55.44
-64.07
-72.31
-74.04
-64.64
-43.32
-13.86
16.68
41.00
55.09
59.03
56.82
53.22
51.25
51.01
50.39
47.07
40.68
32.72
25.76
22.28
23.11
27.20
32.20
34.76
31.38
20.00
0.57
-24.28
-49.22
-68.10
-75.99
-71.00
-53.93
-29.51
-2.21
24.99
50.60
73.98
93.79
107.56
112.50
107.05
92.04
70.74
47.24
25.05
6.06
-9.87
-24.12
-38.29
-53.53
-70.31
-87.80
-103.03
-113.27
-114.69
-104.29
-81.77
-50.53
-17.02
11.42
29.64
36.41
34.26
27.96
21.57
16.83
13.21
9.33
4.49
-0.72
-4.71
-6.37
-5.76
-4.09
-3.00
-3.99
-7.41
-12.60
-18.24
-22.98
-26.14
-27.73
-28.49
-29.46
-31.55
-35.15
-40.07
-45.74
-51.46
-56.68
-61.22
-65.30
-69.36
-73.99
-79.58
-86.05
-92.66
-98.28
-101.06
-99.15
-91.25
-76.94
-56.84
-32.35
-5.25
22.89
50.48
76.39
99.82
119.85
135.55
146.55
153.49
157.74
160.23
160.51
155.32
140.70
114.22
77.14
34.54
-6.43
-39.87
-63.26
-77.06
-82.61
-79.70
-66.39
-41.00
-5.02
35.94
73.52
99.98
112.14
111.17
101.95
89.77
77.87
66.47
54.15
39.55
22.72
5.21
-10.94
-23.98
-33.20
-38.88
-42.10
-43.76
-44.45
-44.30
-43.16
-41.10
-38.33
-35.44
-33.19
-32.31
-33.02
-35.07
-37.91
-40.75
-43.28
-45.38
-47.37
-49.74
-52.93
-57.04
-61.75
-66.51
-70.68
-74.04
-76.19
-77.14
-77.19
-76.70
-76.03
-75.44
-75.20
-75.61
-77.15
-79.59
-82.70
-86.10
-89.26
-91.48
-92.03
-90.32
-86.10
-79.62
-70.59
-59.21
-45.95
-31.22
-15.27
2.06
21.44
44.27
66.15
85.33
100.74
111.88
118.96
123.07
126.25
131.33
141.07
156.97
179.05
204.24
227.00
241.08
241.40
225.31
193.10
147.56
93.24
36.52
-15.95
-58.14
-85.80
-97.67
-96.06
-85.96
-73.16
-61.94
-53.26
-45.47
-35.79
-22.21
-4.85
13.92
30.35
40.76
42.73
35.75
20.89
0.28
-23.32
-46.70
-66.45
-79.15
-82.14
-74.33
-56.76
-32.60
-6.27
17.93
37.08
50.10
57.52
60.58
60.40
57.60
52.41
45.17
36.62
27.91
20.41
15.18
12.68
12.57
13.82
15.19
15.77
15.52
15.62
18.08
24.87
36.76
52.70
69.96
85.21
95.83
100.90
101.24
98.61
94.61
89.99
84.72
78.45
71.22
63.66
56.66
50.96
46.71
43.56
41.07
39.14
38.06
38.32
40.23
43.55
47.50
50.98
52.99
52.95
50.87
47.15
42.31
36.78
30.79
24.34
17.24
8.91
-1.70
-15.89
-34.88
-59.06
-87.52
-118.13
-147.96
-174.15
-194.35
-206.71
-209.56
-201.41
-181.39
-150.15
-110.61
-67.88
-28.14
2.97
21.95
28.26
24.03
13.19
0.35
-10.25
-15.41
-13.67
-5.57
6.41
18.55
27.04
29.23
24.38
13.78
0.21
-13.05
-23.13
-28.28
-28.10
-23.37
-15.62
-6.59
2.18
9.73
15.78
20.74
25.33
30.40
36.80
45.24
56.13
69.24
83.33
95.93
103.74
103.57
93.53
74.01
47.68
18.59
-9.30
-33.43
-53.13
-69.13
-82.64
-94.35
-104.12
-111.34
-115.44
-116.56
-115.64
-114.13
-113.34
-113.86
-115.24
-116.12
-114.84
-110.00
-100.98
-88.15
-72.54
-55.47
-38.19
-21.57
-6.15
7.74
19.88
30.15
38.63
45.68
52.01
58.58
66.38
76.15
88.16
102.08
117.13
132.40
147.17
161.31
175.31
190.11
206.54
224.88
244.47
263.76
280.93
294.50
303.88
309.23
310.81
307.90
298.41
279.19
247.40
202.16
145.77
83.62
22.55
-31.42
-75.06
-108.84
-136.25
-162.12
-191.17
-227.00
-271.58
-324.82
-383.85
-442.40
-491.08
-519.46
-519.57
-489.59
-435.83
-371.56
-312.83
-273.10
-258.73
-267.69
-291.44
-318.90
-340.40
-349.99
-345.78
-328.75
-301.48
-267.06
-228.63
-188.89
-149.87
-112.63
-77.34
-43.89
-12.49
16.08
40.82
61.13
77.43
90.92
102.88
113.88
123.51
130.85
135.17
136.41
135.03
131.55
126.28
119.40
111.28
102.79
95.02
88.86
84.45
81.23
78.29
74.77
70.11
64.03
56.27
46.66
35.27
22.75
10.39
-0.22
-7.76
-11.83
-13.12
-13.09
-13.24
-14.43
-16.48
-18.41
-18.83
-16.61
-11.33
-3.33
6.60
17.71
29.68
42.64
56.79
72.01
87.68
102.79
116.40
127.85
136.96
143.82
148.46
150.70
150.19
146.60
139.99
130.78
119.59
106.96
93.26
78.73
63.70
48.53
33.55
18.98
5.04
-7.79
-18.69
-26.49
-30.06
-28.80
-22.93
-13.40
-1.58
11.22
23.93
35.72
45.96
54.21
60.31
64.47
67.20
69.19
71.13
73.70
77.56
83.35
91.36
101.21
111.58
120.27
124.71
122.76
113.56
97.87
77.91
56.54
36.27
18.51
3.38
-9.94
-22.37
-34.38
-45.83
-56.27
-65.66
-74.55
-83.85
-94.25
-105.60
-116.67
-125.55
-130.34
-129.61
-122.56
-108.92
-88.76
-62.54
-31.11
4.31
42.32
81.67
121.43
160.96
199.53
235.99
268.61
295.19
313.72
323.18
324.16
318.90
310.41
301.22
292.43
283.36
271.95
256.14
235.18
210.24
184.09
159.72
139.03
122.29
108.46
95.74
81.98
64.83
41.66
9.52
-34.93
-94.75
-170.71
-259.39
-352.65
-439.04
-506.67
-546.97
-557.29
-541.64
-509.01
-468.67
-426.30
-382.96
-336.77
-285.25
-227.35
-163.79
-97.37
-33.42
21.84
62.44
83.46
82.00
58.50
17.08
-31.01
-69.96
-88.84
-86.20
-68.02
-41.68
-12.38
17.11
44.92
68.31
86.00
95.07
93.95
83.62
66.84
46.27
22.74
-4.92
-37.18
-72.75
-111.88
-154.49
-198.40
-238.54
-267.37
-277.13
-262.96
-231.44
-186.61
-136.44
-89.34
-50.52
-20.28
5.21
31.41
63.26
101.11
142.44
181.39
212.65
233.79
245.12
248.56
246.14
239.38
229.27
217.87
206.86
197.99
192.10
187.74
180.82
165.83
138.24
97.41
48.25
-1.24
-42.65
-70.46
-83.82
-85.83
-81.38
-74.72
-68.22
-62.22
-56.70
-51.97
-48.78
-47.81
-48.92
-51.10
-52.82
-52.56
-49.56
-44.13
-37.37
-30.65
-24.99
-20.62
-17.10
-13.60
-9.24
-3.65
2.92
9.83
16.46
22.25
27.20
31.57
35.57
39.23
42.16
43.53
42.50
38.53
31.36
21.52
10.00
-1.91
-12.89
-21.74
-27.52
-29.61
-27.76
-22.27
-13.70
-3.11
7.91
17.62
24.27
26.59
24.16
18.05
9.14
-0.89
-10.47
-18.79
-25.64
-31.51
-36.98
-42.13
-46.42
-49.06
-49.07
-46.25
-41.48
-36.42
-33.02
-32.67
-35.46
-39.93
-43.93
-45.46
-43.57
-38.94
-33.45
-29.43
-28.51
-31.43
-37.90
-46.83
-56.01
-62.06
-61.00
-48.49
-22.98
12.45
49.61
77.70
87.43
75.24
45.09
6.31
-30.96
-60.51
-81.54
-96.54
-107.30
-112.24
-106.99
-87.72
-54.95
-14.69
23.71
51.64
64.72
63.18
50.04
28.80
2.91
-23.96
-46.93
-60.54
-60.80
-47.56
-25.51
-1.73
17.03
27.52
30.62
30.26
30.55
33.72
39.38
45.33
49.35
49.90
47.00
42.19
37.86
36.51
39.71
47.62
58.65
69.67
76.93
77.00
67.91
49.67
24.36
-3.89
-29.25
-45.27
-46.77
-32.57
-7.31
18.70
32.81
25.69
-3.35
-44.71
-82.07
-100.17
-92.68
-65.66
-34.68
-16.91
-22.29
-50.00
-90.71
-133.01
-169.18
-196.63
-215.68
-225.37
-221.66
-199.47
-157.57
-102.37
-47.35
-7.71
7.23
-1.47
-22.84
-41.30
-43.69
-24.94
11.12
55.23
94.57
121.20
134.40
139.86
146.18
160.70
186.42
221.72
261.74
300.63
333.72
357.68
369.97
368.30
351.30
319.52
276.46
228.53
183.17
147.00
123.40
112.08
110.21
114.52
122.87
134.74
150.31
169.14
189.56
208.48
222.10
226.74
219.73
199.60
166.32
121.24
67.03
7.57
-52.99
-111.14
-164.85
-213.39
-256.21
-291.63
-316.43
-326.83
-320.47
-298.30
-265.11
-228.43
-195.96
-173.22
-162.04
-160.59
-164.24
-166.95
-162.61
-146.21
-114.76
-67.99
-9.06
55.27
115.29
160.40
182.07
176.50
146.06
98.87
46.60
0.71
-31.31
-48.64
-56.62
-63.91
-78.63
-105.94
-145.94
-193.85
-241.77
-280.45
-302.57
-303.31
-280.90
-237.93
-183.22
-129.09
-86.99
-62.34
-50.21
-40.12
-20.05
17.50
70.63
126.53
169.02
186.48
176.82
148.72
111.41
71.62
32.38
-7.02
-51.46
-105.00
-168.48
-239.07
-308.91
-374.16
-432.81
-483.15
-503.92
-479.67
-408.61
-305.95
-213.16
-140.32
-89.19
-60.83
-51.53
-59.66
-82.87
-114.45
-143.98
-160.60
-154.71
-127.67
-87.68
-44.30
-5.12
24.76
44.05
54.33
58.55
61.63
64.28
65.77
65.96
64.96
61.94
55.69
45.23
30.26
12.94
-5.63
-24.05
-40.08
-51.59
-57.71
-58.88
-56.69
-53.13
-49.17
-45.78
-42.85
-38.74
-31.21
-18.48
0.04
23.55
50.26
78.41
106.59
134.58
163.53
195.65
233.80
280.77
338.11
404.81
475.89
542.20
592.04
614.75
604.90
564.85
504.38
436.82
373.96
322.12
281.24
247.00
214.44
180.65
145.49
110.70
78.32
49.92
26.63
9.44
-1.10
-5.33
-5.05
-3.34
-3.09
-5.26
-7.72
-5.94
4.68
25.88
54.58
83.19
102.29
104.44
86.99
52.80
8.62
-38.08
-81.31
-117.41
-144.47
-161.19
-166.52
-160.39
-144.50
-122.69
-100.02
-81.07
-68.41
-61.99
-59.63
-58.25
-55.35
-49.78
-41.81
-32.54
-23.13
-14.29
-6.14
1.58
9.19
16.73
23.82
29.58
32.72
32.03
26.81
17.42
5.56
-6.20
-15.20
-19.85
-20.23
-17.92
-15.27
-14.34
-16.05
-19.57
-22.57
-21.77
-14.10
2.04
26.15
55.45
85.28
110.10
124.82
126.30
114.45
92.38
65.27
38.51
15.66
-2.67
-18.41
-34.69
-53.97
-77.02
-102.89
-130.02
-157.30
-184.49
-211.46
-237.25
-259.58
-275.56
-282.88
-280.93
-271.16
-256.46
-240.17
-224.99
-212.34
-202.34
-194.38
-187.69
-181.59
-175.33
-167.72
-156.89
-140.68
-117.47
-86.81
-49.51
-6.90
40.29
92.52
151.25
217.40
289.26
361.33
424.93
471.01
493.69
492.75
473.29
443.12
408.76
372.64
332.91
285.64
228.30
162.01
91.78
24.14
-35.67
-85.60
-126.80
-162.00
-193.46
-221.77
-245.76
-263.40
-273.19
-275.16
-271.04
-263.96
-257.23
-253.37
-253.20
-255.49
-257.23
-254.55
-243.97
-223.71
-194.28
-158.18
-119.22
-81.49
-48.77
-24.04
-9.08
-3.72
-5.39
-9.14
-8.99
-0.00
19.45
46.85
76.50
102.04
119.11
126.83
127.33
123.99
119.49
114.83
109.69
103.44
96.05
88.17
80.62
73.70
66.78
58.67
48.36
35.78
21.98
8.77
-2.05
-9.51
-13.91
-16.66
-19.73
-24.94
-33.22
-44.26
-56.49
-67.50
-74.69
-76.16
-71.27
-60.79
-46.57
-30.86
-15.58
-1.80
10.21
20.63
29.58
36.82
41.84
44.11
43.57
40.74
36.68
32.60
29.48
27.82
27.64
28.67
30.60
33.18
36.29
39.77
43.31
46.40
48.38
48.67
47.01
43.52
38.73
33.39
28.19
23.54
19.48
15.67
11.64
7.06
1.88
-3.56
-8.72
-13.08
-16.37
-18.68
-20.50
-22.55
-25.60
-30.18
-36.32
-43.43
-50.34
-55.44
-57.10
-54.09
-45.98
-33.33
-17.56
-0.54
15.83
30.12
41.48
49.69
54.89
57.46
57.72
56.03
52.84
48.66
44.17
40.06
36.92
35.05
34.43
34.77
35.56
36.34
36.69
36.47
35.64
34.27
32.40
30.01
27.03
23.38
19.02
13.97
8.40
2.56
-3.26
-8.73
-13.63
-17.84
-21.42
-24.58
-27.61
-30.82
-34.48
-38.75
-43.50
-48.17
-51.74
-52.92
-50.42
-43.51
-32.28
-17.81
-1.82
13.78
27.45
38.32
46.21
51.36
54.16
54.90
53.79
51.05
47.07
42.47
37.92
34.07
31.27
29.55
28.70
28.32
28.05
27.62
26.82
25.55
23.74
21.35
18.44
15.04
11.19
6.91
2.25
-2.68
-7.75
-12.79
-17.71
-22.42
-26.98
-31.37
-35.58
-39.56
-43.37
-47.18
-51.31
-55.94
-60.94
-65.59
-68.68
-68.79
-64.79
-56.30
-43.87
-28.84
-12.91
2.29
15.61
26.46
34.70
40.44
43.89
45.28
44.90
43.16
40.57
37.71
35.04
32.81
31.10
29.82
28.86
28.18
27.79
27.70
27.81
27.92
27.67
26.73
24.86
22.01
18.34
14.19
9.96
6.04
2.58
-0.47
-3.40
-6.59
-10.28
-14.47
-18.88
-23.12
-26.80
-29.80
-32.26
-34.57
-37.22
-40.63
-44.95
-49.94
-54.87
-58.60
-59.80
-57.39
-50.78
-40.25
-26.77
-11.81
3.07
16.52
27.68
36.14
41.84
45.01
45.97
45.11
42.89
39.77
36.20
32.60
29.30
26.59
24.62
23.43
22.96
23.01
23.34
23.64
23.64
23.10
21.96
20.20
17.90
15.12
11.90
8.28
4.32
0.12
-4.16
-8.40
-12.49
-16.33
-19.85
-22.97
-25.68
-28.00
-30.13
-32.38
-35.12
-38.54
-42.47
-46.30
-49.08
-49.72
-47.34
-41.56
-32.62
-21.37
-9.00
3.21
14.15
23.06
29.54
33.55
35.27
35.02
33.20
30.22
26.50
22.52
18.74
15.60
13.41
12.27
12.09
12.55
13.31
14.01
14.40
14.32
13.67
12.44
10.64
8.31
5.54
2.42
-1.02
-4.69
-8.55
-12.54
-16.56
-20.50
-24.25
-27.70
-30.83
-33.67
-36.40
-39.32
-42.73
-46.66
-50.76
-54.24
-56.01
-55.07
-50.83
-43.36
-33.37
-21.98
-10.40
0.36
9.61
16.97
22.30
25.64
27.12
27.03
25.71
23.62
21.20
18.86
16.93
15.54
14.70
14.25
14.06
13.99
14.04
14.22
14.59
15.09
15.48
15.42
14.54
12.65
9.79
6.26
2.56
-0.81
-3.43
-5.21
-6.33
-7.22
-8.37
-10.08
-12.38
-14.98
-17.48
-19.61
-21.41
-23.27
-25.74
-29.30
-34.09
-39.75
-45.41
-49.92
-52.04
-50.73
-45.44
-36.24
-23.94
-9.93
4.05
16.28
25.46
30.92
32.72
31.49
28.12
23.50
18.41
13.41
9.06
5.93
4.62
5.63
8.99
14.15
19.97
25.03
28.03
28.31
25.94
21.66
16.44
11.11
6.17
1.76
-2.01
-4.86
-6.35
-6.08
-4.08
-0.98
2.05
3.72
3.09
0.05
-4.80
-10.32
-15.42
-19.32
-21.85
-23.22
-23.92
-24.40
-25.02
-25.97
-27.26
-28.75
-30.08
-30.73
-30.10
-27.62
-23.06
-16.54
-8.66
-0.31
7.60
14.34
19.55
23.17
25.39
26.43
26.52
25.80
24.43
22.67
20.71
18.81
17.09
15.62
14.43
13.65
13.40
13.82
14.87
16.24
17.45
17.91
17.17
15.04
11.69
7.52
3.20
-0.48
-2.67
-2.70
-0.38
3.84
8.88
13.27
15.62
15.06
11.47
5.29
-2.70
-11.74
-21.18
-30.40
-38.68
-45.22
-49.12
-49.67
-46.49
-39.57
-29.21
-16.00
-0.84
15.03
30.03
42.43
50.58
53.38
50.53
42.61
31.01
17.50
3.83
-8.61
-18.98
-26.99
-32.64
-36.06
-37.25
-36.06
-32.31
-25.91
-17.16
-6.84
3.87
13.48
20.56
23.99
23.27
18.72
11.53
3.55
-3.09
-6.61
-6.05
-1.61
5.54
13.78
21.63
28.08
32.63
35.07
35.22
33.02
28.75
23.28
18.05
14.45
13.13
13.50
13.96
12.69
8.72
2.39
-4.81
-11.21
-15.84
-18.93
-21.51
-24.65
-28.60
-32.62
-35.47
-36.24
-34.91
-32.32
-29.61
-27.51
-25.94
-24.20
-21.49
-17.51
-12.69
-7.88
-3.78
-0.57
2.22
5.30
9.16
13.72
18.42
22.54
25.64
27.72
29.10
30.13
30.92
31.46
31.64
31.63
31.78
32.45
33.66
34.85
34.99
32.92
27.94
20.12
10.43
0.40
-8.41
-15.05
-19.40
-22.19
-24.53
-27.30
-30.79
-34.57
-37.62
-38.82
-37.09
-31.66
-21.99
-7.87
10.47
32.15
55.65
79.28
101.87
123.36
144.93
168.08
193.34
219.02
240.96
253.51
251.39
231.66
195.06
145.95
91.21
38.48
-5.69
-37.20
-55.08
-61.24
-59.68
-54.97
-51.06
-50.36
-53.73
-60.91
-71.19
-83.82
-98.11
-113.20
-128.08
-141.63
-153.01
-161.91
-168.58
-173.61
-177.48
-180.17
-180.95
-178.47
-171.03
-157.22
-136.50
-109.72
-78.97
-47.02
-16.41
11.25
35.49
56.57
74.69
89.45
99.89
104.93
104.19
98.40
89.21
78.53
67.71
57.19
46.59
35.48
23.98
12.80
2.91
-5.40
-12.80
-20.67
-30.26
-41.89
-54.72
-67.22
-78.14
-86.97
-93.98
-99.68
-104.19
-107.13
-107.92
-106.39
-102.98
-98.87
-95.49
-94.18
-95.64
-99.68
-104.91
-108.99
-109.37
-104.32
-93.79
-79.52
-64.34
-50.91
-40.70
-33.66
-28.66
-24.34
-19.76
-14.64
-9.01
-2.95
3.75
11.41
20.30
30.46
41.64
53.30
64.69
74.92
83.04
88.24
89.93
87.77
81.71
71.95
59.11
44.05
27.90
11.78
-3.43
-17.25
-29.62
-40.80
-51.12
-60.90
-70.20
-78.79
-86.12
-91.60
-94.92
-96.17
-95.78
-94.06
-90.61
-84.04
-72.22
-53.01
-25.32
10.08
50.48
91.82
129.60
160.10
181.15
192.62
196.34
195.48
193.55
193.09
194.87
197.55
198.51
195.28
186.77
173.81
158.55
143.14
128.40
113.34
95.82
73.95
47.40
17.70
-12.45
-40.43
-64.77
-85.54
-103.93
-121.40
-138.90
-156.43
-173.03
-187.20
-197.42
-202.48
-201.68
-194.85
-182.57
-166.24
-148.00
-130.22
-114.49
-100.73
-86.96
-70.15
-47.88
-19.99
10.83
40.04
63.52
79.81
90.83
100.99
114.95
135.76
164.01
198.44
236.85
276.55
314.30
345.80
365.72
368.67
351.14
313.13
258.97
196.20
133.24
76.91
30.80
-4.56
-30.41
-48.29
-59.74
-67.01
-74.22
-87.37
-112.31
-151.49
-201.44
-252.95
-294.59
-317.82
-321.03
-309.88
-294.03
-282.23
-278.59
-281.98
-288.23
-293.27
-294.86
-292.21
-284.37
-269.12
-243.38
-205.23
-155.88
-100.07
-44.63
4.29
43.54
73.88
98.80
122.40
147.30
173.60
199.33
221.53
237.74
246.95
249.72
247.78
243.06
236.74
228.65
217.47
201.37
179.05
150.61
117.67
82.85
48.63
16.42
-13.67
-42.27
-69.85
-96.11
-119.94
-139.95
-154.98
-164.45
-168.45
-167.59
-163.09
-156.83
-151.08
-147.68
-147.05
-147.66
-146.70
-141.54
-131.34
-117.65
-103.48
-91.37
-81.77
-72.95
-62.41
-48.99
-33.88
-20.08
-10.35
-5.30
-2.64
1.57
10.68
25.56
44.11
62.10
75.08
80.25
77.44
69.09
59.07
51.17
47.86
49.67
55.40
62.78
69.15
71.68
67.61
54.77
32.53
3.15
-27.74
-52.11
-62.28
-53.97
-28.29
8.85
49.66
88.20
122.77
155.75
190.91
230.15
271.46
309.08
335.95
346.70
339.61
316.68
282.03
240.22
195.04
149.46
106.29
68.54
39.24
20.51
12.87
14.78
23.05
33.79
43.43
49.50
51.03
48.21
41.76
32.01
18.39
-0.28
-24.85
-54.63
-86.81
-117.04
-140.94
-155.74
-160.92
-157.98
-149.34
-137.79
-126.24
-117.76
-115.38
-121.18
-135.32
-155.55
-177.90
-198.34
-214.44
-226.15
-235.13
-243.44
-252.15
-260.87
-268.22
-272.78
-273.66
-270.48
-262.82
-249.95
-230.87
-205.03
-173.12
-137.31
-100.87
-67.21
-38.55
-15.41
3.19
18.75
32.24
43.67
52.42
58.15
61.56
64.43
68.79
75.74
84.70
93.54
99.60
101.11
97.86
91.14
82.80
74.27
66.10
58.18
50.32
42.67
35.62
29.27
23.07
15.81
6.10
-6.95
-23.29
-41.94
-61.40
-80.17
-96.82
-109.83
-117.41
-117.68
-109.29
-92.43
-69.26
-43.71
-19.99
-0.89
13.50
25.70
39.44
57.65
80.78
106.39
130.02
146.93
153.85
150.10
137.71
120.79
104.43
93.48
91.23
98.35
112.17
126.91
134.96
129.18
105.39
64.15
11.19
-43.93
-90.45
-119.56
-126.98
-114.14
-87.43
-56.04
-29.16
-13.34
-11.08
-21.00
-39.26
-61.56
-84.83
-107.82
-130.42
-152.67
-174.07
-193.83
-211.45
-227.17
-241.46
-253.93
-262.49
-263.41
-252.73
-228.10
-190.12
-142.22
-89.17
-35.32
16.62
65.30
109.77
148.41
178.81
198.65
207.22
206.38
200.19
193.27
188.85
187.39
186.86
184.23
177.48
166.64
153.43
139.76
126.29
112.03
95.31
75.20
52.55
29.98
10.55
-3.51
-11.70
-15.03
-15.19
-13.69
-11.41
-8.67
-5.35
-1.27
3.81
10.15
18.02
27.55
38.57
50.60
62.84
74.39
84.34
92.08
97.40
100.55
101.91
101.81
100.35
97.45
93.03
87.31
80.87
74.57
69.23
65.47
63.41
62.75
62.83
62.82
61.89
59.39
54.91
48.31
39.78
29.69
18.57
6.96
-4.77
-16.55
-28.78
-42.15
-57.28
-74.14
-91.89
-109.16
-124.80
-138.49
-150.76
-162.24
-172.59
-180.03
-181.77
-175.29
-159.63
-135.93
-106.98
-75.94
-45.21
-15.91
11.70
37.41
60.37
79.27
92.97
101.36
105.67
108.12
111.12
116.27
123.81
132.69
141.10
147.39
150.74
151.33
149.99
147.57
144.33
139.93
133.73
125.47
115.58
105.02
94.80
85.23
75.76
65.28
52.66
37.38
19.67
0.35
-19.48
-38.62
-55.80
-69.60
-78.49
-81.12
-76.56
-64.54
-45.47
-20.49
8.53
38.85
67.08
89.65
103.55
107.09
100.30
84.97
63.93
40.32
16.75
-4.96
-23.69
-38.67
-49.46
-56.13
-59.77
-62.70
-67.94
-78.17
-94.37
-115.14
-137.11
-156.35
-170.00
-177.33
-179.60
-178.74
-176.01
-171.29
-163.58
-152.01
-136.81
-119.53
-102.33
-86.95
-73.85
-62.23
-50.75
-38.73
-27.02
-17.90
-14.01
-16.81
-25.40
-36.45
-45.30
-47.79
-41.82
-27.97
-8.87
12.18
32.46
50.75
67.30
83.45
101.22
122.94
150.70
185.43
225.84
267.84
305.08
330.82
340.47
333.25
312.45
283.75
252.82
223.53
197.11
172.46
147.05
117.93
82.74
40.62
-7.21
-57.31
-104.82
-144.56
-172.19
-184.85
-181.06
-160.69
-125.23
-78.56
-27.48
18.93
51.45
63.62
54.27
28.20
-5.59
-37.07
-58.73
-67.76
-66.29
-59.75
-53.84
-51.95
-53.79
-55.98
-54.10
-45.14
-29.13
-9.03
10.82
26.82
37.43
43.29
46.04
47.03
46.36
43.06
35.94
24.54
9.63
-7.15
-23.92
-39.23
-52.22
-62.30
-68.70
-70.34
-66.14
-55.63
-39.43
-19.38
1.82
21.04
35.33
42.52
41.92
34.65
23.46
11.83
2.64
-2.74
-4.40
-2.93
1.51
9.45
21.30
36.27
52.01
65.46
74.37
78.55
79.77
80.51
82.52
86.30
91.48
97.67
104.98
113.36
121.85
128.09
128.78
120.71
101.94
72.34
33.65
-10.65
-55.97
-97.26
-130.05
-151.68
-161.78
-162.03
-155.16
-143.85
-130.21
-115.99
-103.13
-93.81
-90.05
-92.79
-101.42
-114.01
-128.09
-141.42
-152.29
-159.26
-161.07
-157.01
-147.58
-135.01
-122.97
-115.27
-114.58
-121.71
-135.83
-155.25
-177.84
-200.86
-220.64
-232.55
-232.11
-216.44
-185.46
-141.84
-89.89
-34.25
20.69
70.41
109.69
132.96
136.18
119.15
86.99
49.26
16.76
-2.27
-4.90
6.32
25.42
46.17
64.49
79.16
90.88
100.73
108.93
114.53
116.16
112.86
104.91
93.63
80.81
67.77
54.92
41.92
28.28
14.10
0.43
-10.94
-18.39
-21.25
-20.29
-17.51
-15.22
-14.95
-16.62
-18.55
-18.34
-14.06
-5.26
6.71
19.30
29.73
35.96
37.37
34.72
29.80
24.80
21.71
21.81
25.22
31.05
37.52
42.82
45.59
45.51
43.29
40.34
38.15
37.56
38.21
38.29
34.75
24.24
4.26
-25.77
-63.89
-106.01
-147.00
-182.28
-209.08
-226.78
-236.37
-239.30
-236.29
-226.91
-209.75
-183.62
-148.66
-107.04
-62.89
-21.11
14.17
40.91
59.35
71.28
78.73
83.08
85.03
85.09
84.05
82.89
82.32
82.38
82.76
84.04
88.65
100.84
125.02
163.19
212.92
267.27
316.68
352.16
368.21
364.03
342.76
309.58
269.80
227.63
185.94
146.69
111.22
80.49
54.98
34.72
19.29
8.03
0.27
-4.44
-6.32
-5.48
-2.41
1.58
4.24
2.88
-4.55
-18.22
-35.83
-53.16
-65.60
-70.38
-67.97
-61.96
-57.38
-58.31
-66.06
-78.82
-92.85
-104.40
-111.45
-114.12
-114.14
-113.63
-113.93
-115.19
-116.53
-116.78
-115.03
-110.97
-104.65
-96.12
-85.36
-72.38
-57.64
-42.37
-28.43
-17.73
-11.51
-9.89
-11.92
-16.24
-21.80
-28.43
-36.70
-47.40
-61.00
-77.09
-94.35
-110.65
-123.56
-131.02
-132.06
-127.24
-118.50
-108.53
-99.75
-93.47
-89.56
-86.99
-84.61
-82.02
-79.68
-78.47
-78.94
-80.67
-82.21
-81.68
-77.63
-69.72
-58.85
-46.74
-35.19
-25.54
-18.30
-13.56
-11.44
-12.21
-15.92
-21.77
-27.85
-31.58
-30.85
-25.03
-15.39
-4.25
6.35
15.72
24.61
34.33
45.64
57.99
69.96
80.05
87.80
94.05
100.42
108.30
118.17
129.37
140.48
150.00
156.73
160.05
159.97
156.99
152.00
146.03
140.01
134.53
129.82
125.84
122.52
119.96
118.39
118.01
118.67
119.78
120.45
119.97
118.11
115.26
112.07
108.96
105.71
101.47
95.17
86.09
74.19
59.99
44.18
27.24
9.35
-9.14
-27.31
-43.43
-55.42
-61.58
-61.50
-56.36
-48.60
-41.02
-35.83
-34.15
-36.13
-41.52
-50.21
-62.38
-78.16
-97.06
-117.72
-138.07
-155.97
-169.99
-179.84
-186.20
-190.13
-192.46
-193.28
-191.95
-187.34
-178.39
-164.65
-146.68
-126.20
-105.72
-87.78
-73.92
-63.87
-55.54
-45.77
-31.75
-12.21
12.13
38.88
65.02
87.83
105.43
117.00
122.78
124.24
124.07
125.63
131.68
142.84
157.13
170.67
179.93
184.01
185.58
189.73
201.22
221.58
247.81
273.26
290.10
292.10
276.31
243.23
195.81
138.48
76.45
15.29
-39.76
-84.93
-118.86
-143.22
-161.89
-179.26
-198.22
-218.63
-237.46
-250.15
-252.98
-244.76
-227.67
-206.41
-186.34
-171.41
-162.86
-159.20
-157.06
-152.82
-143.87
-129.29
-109.73
-86.66
-61.67
-36.11
-11.29
11.10
28.77
39.13
40.21
31.77
15.87
-3.43
-21.44
-34.77
-42.56
-46.50
-49.40
-53.06
-56.83
-57.56
-51.20
-34.94
-8.96
23.53
57.44
87.54
109.91
122.39
124.35
116.10
98.65
73.81
44.58
15.05
-9.83
-25.09
-26.85
-13.61
13.00
48.14
84.77
115.51
134.64
139.70
131.91
115.25
94.98
76.05
61.88
53.83
51.21
51.73
52.20
49.46
41.10
26.13
5.28
-19.22
-44.11
-65.81
-81.28
-88.82
-88.63
-82.74
-74.15
-65.69
-58.78
-52.98
-46.43
-37.09
-23.96
-7.65
9.92
26.48
40.51
51.66
60.65
68.28
74.62
78.47
77.63
69.92
54.44
32.61
8.15
-13.87
-28.85
-34.30
-30.70
-21.09
-9.78
-0.63
4.10
4.04
0.10
-6.53
-15.10
-25.67
-38.75
-54.66
-72.99
-92.34
-110.39
-124.40
-131.89
-131.42
-123.19
-109.11
-92.20
-75.45
-60.65
-47.54
-34.00
-17.10
5.24
33.00
63.78
93.51
117.80
133.19
137.84
131.40
114.77
89.86
59.61
27.79
-1.61
-25.32
-41.63
-50.52
-52.86
-49.26
-39.17
-21.37
4.75
37.50
72.22
102.26
121.27
125.69
116.21
97.35
75.35
55.57
40.62
29.99
21.16
11.52
0.01
-12.37
-23.06
-29.44
-30.17
-26.11
-20.14
-16.05
-16.90
-23.55
-34.00
-43.97
-48.88
-46.10
-36.60
-25.02
-17.83
-20.26
-33.72
-54.80
-76.52
-91.23
-93.66
-82.79
-61.75
-35.98
-10.70
10.97
28.52
43.18
56.34
68.40
78.41
84.75
86.04
81.74
72.15
57.97
40.16
19.95
-0.89
-19.93
-34.52
-42.56
-43.24
-37.25
-26.22
-12.20
2.80
17.05
29.24
38.91
46.78
54.36
63.18
73.31
82.64
87.32
83.37
68.74
44.30
13.50
-19.32
-50.55
-78.11
-101.10
-119.00
-131.27
-137.64
-139.03
-137.80
-137.27
-140.22
-147.75
-158.62
-169.91
-178.37
-181.72
-179.12
-170.82
-157.53
-139.99
-118.97
-95.51
-70.89
-46.46
-23.32
-2.26
15.98
30.52
40.26
44.28
42.52
36.07
26.97
17.46
9.20
2.93
-1.26
-3.53
-4.00
-2.98
-1.29
-0.23
-0.93
-3.66
-7.24
-9.45
-8.06
-2.16
7.14
17.18
24.95
28.57
28.05
25.05
21.67
19.24
17.63
15.62
11.80
5.46
-3.04
-12.47
-21.21
-27.83
-31.30
-31.13
-27.34
-20.21
-10.12
2.75
18.42
37.01
58.38
81.72
105.53
127.91
147.05
161.84
171.98
177.77
179.70
178.11
173.21
165.27
154.85
142.89
130.56
119.00
109.01
100.88
94.32
88.48
82.23
74.38
64.09
51.14
36.16
20.39
5.34
-7.74
-18.18
-26.05
-31.88
-36.50
-41.03
-46.92
-55.87
-69.09
-86.23
-104.56
-119.07
-123.87
-114.49
-90.06
-54.04
-13.11
25.46
56.57
78.60
92.98
102.13
107.72
109.94
108.41
103.47
96.89
91.14
87.94
87.02
86.17
82.75
75.71
66.88
60.37
60.63
70.09
87.99
110.94
134.72
156.33
174.91
191.21
206.00
218.71
226.93
227.30
217.22
196.16
166.06
130.41
92.83
55.81
20.43
-13.22
-45.21
-75.29
-102.95
-127.68
-149.25
-167.62
-182.85
-195.06
-204.89
-213.73
-223.78
-237.28
-255.35
-276.94
-298.72
-316.19
-325.38
-324.59
-314.62
-297.67
-275.98
-250.64
-221.74
-189.56
-155.87
-124.34
-99.54
-84.84
-80.51
-83.24
-87.11
-85.91
-75.48
-55.15
-27.66
2.12
28.82
47.78
55.47
49.83
30.86
1.64
-31.43
-60.02
-77.10
-80.39
-73.89
-66.24
-65.94
-76.44
-94.02
-109.41
-112.57
-97.71
-65.70
-22.68
23.68
68.00
108.73
147.00
184.26
219.81
250.13
269.88
274.08
259.88
227.72
180.96
125.11
67.07
14.17
-26.77
-51.15
-58.27
-52.15
-40.52
-32.00
-32.61
-43.45
-61.36
-81.31
-99.40
-114.41
-126.97
-137.61
-145.27
-147.43
-141.83
-128.54
-110.55
-92.64
-79.08
-71.43
-67.96
-64.78
-57.78
-44.54
-25.14
-1.80
22.27
44.29
62.94
78.77
93.90
111.00
132.04
156.81
182.32
203.15
213.13
207.69
185.75
150.24
107.07
62.81
22.38
-12.07
-40.95
-65.68
-87.06
-104.43
-116.01
-120.12
-116.43
-106.55
-93.34
-79.68
-67.03
-54.87
-41.18
-23.93
-2.50
21.44
44.53
63.28
76.01
83.58
88.60
93.42
98.36
101.30
99.07
89.56
73.28
53.06
32.50
14.16
-1.00
-12.80
-20.43
-21.77
-14.56
1.52
23.14
43.72
55.82
54.41
39.13
14.12
-13.93
-38.67
-56.17
-65.80
-69.62
-70.88
-72.06
-73.64
-73.66
-68.68
-55.50
-32.76
-1.54
35.23
74.03
111.83
146.32
175.40
196.68
207.57
206.27
193.00
170.55
143.89
118.75
100.13
91.18
92.86
104.16
122.51
144.31
165.72
183.42
195.27
200.36
198.74
191.05
178.22
161.57
142.63
122.78
102.56
81.18
56.72
27.28
-7.67
-46.37
-85.07
-119.33
-145.82
-163.54
-173.77
-179.08
-181.91
-183.63
-184.45
-184.09
-182.70
-181.32
-181.55
-184.42
-189.18
-192.80
-190.85
-179.46
-157.58
-128.14
-97.46
-72.80
-59.30
-58.04
-66.00
-77.83
-88.40
-94.50
-95.23
-91.28
-83.93
-74.50
-64.23
-54.18
-44.89
-35.94
-25.98
-13.24
3.44
23.88
46.46
68.83
88.83
105.25
117.82
126.78
132.33
134.43
133.00
128.12
120.35
110.66
100.28
90.28
81.36
73.73
67.28
61.98
58.22
56.88
58.87
64.47
72.68
81.13
86.81
87.32
81.92
71.93
60.06
49.22
41.30
36.57
33.81
31.05
26.51
19.23
9.43
-1.48
-11.41
-18.23
-20.54
-18.28
-12.81
-6.58
-2.21
-1.68
-5.71
-13.74
-24.26
-35.41
-45.63
-53.95
-60.20
-64.93
-68.94
-72.97
-77.36
-81.90
-86.10
-89.49
-91.89
-93.47
-94.53
-95.22
-95.35
-94.57
-92.55
-89.20
-84.61
-78.81
-71.50
-62.17
-50.33
-35.92
-19.66
-2.97
12.36
24.60
32.68
36.41
36.54
34.36
31.19
27.78
24.05
19.19
12.19
2.54
-9.38
-22.37
-34.76
-45.16
-52.74
-57.19
-58.29
-55.52
-48.13
-35.59
-18.18
2.79
25.36
47.75
69.13
89.81
110.58
131.73
152.20
169.62
181.08
184.34
178.74
165.31
145.96
122.52
96.07
67.05
36.09
4.73
-24.23
-47.22
-60.91
-63.44
-55.14
-38.42
-16.90
5.83
27.29
46.48
63.30
77.68
88.90
95.67
96.80
92.15
82.88
70.87
57.55
43.13
26.90
8.52
-10.59
-27.01
-36.65
-36.97
-28.73
-16.06
-4.88
-0.11
-3.77
-14.44
-28.65
-42.92
-55.54
-67.09
-79.60
-95.03
-114.09
-135.67
-157.29
-175.95
-188.91
-194.06
-189.87
-175.34
-150.20
-115.41
-73.57
-28.88
13.48
48.66
73.23
85.98
87.76
80.52
66.06
45.13
17.36
-17.85
-60.20
-107.44
-155.13
-197.60
-229.56
-247.77
-251.76
-243.49
-225.98
-201.97
-173.37
-141.25
-106.62
-70.90
-36.13
-4.66
21.32
40.51
52.90
59.87
63.86
67.40
72.02
77.65
82.77
85.13
83.13
76.76
67.79
59.17
53.97
54.45
61.33
73.65
88.87
103.38
113.72
117.84
116.25
111.83
108.41
108.31
110.51
110.78
103.76
85.84
56.64
18.82
-23.55
-66.69
-107.44
-142.48
-167.47
-177.76
-170.41
-146.41
-111.10
-71.81
-34.03
1.50
38.43
81.40
131.59
184.29
230.27
260.10
268.60
256.91
231.27
199.31
166.50
134.42
101.83
67.15
30.56
-5.28
-36.58
-60.12
-74.85
-82.07
-84.34
-84.20
-83.12
-81.28
-78.06
-72.93
-65.95
-58.01
-50.45
-44.61
-41.36
-40.70
-41.77
-43.17
-43.65
-42.91
-41.90
-42.28
-45.31
-50.74
-56.51
-59.62
-57.74
-50.48
-39.54
-27.83
-18.15
-12.22
-10.58
-12.83
-18.07
-25.01
-32.19
-38.49
-43.82
-49.37
-57.04
-68.17
-82.28
-96.81
-108.19
-113.51
-111.69
-103.49
-90.47
-73.87
-54.06
-31.07
-5.24
22.33
49.87
75.36
96.77
112.29
120.33
119.99
111.51
96.43
77.04
55.37
32.34
7.89
-17.92
-43.47
-65.04
-77.71
-77.55
-63.65
-38.96
-9.05
20.10
44.33
62.21
74.49
82.71
87.96
90.61
90.80
89.38
88.19
89.52
94.87
103.84
113.59
119.54
116.67
101.30
72.55
32.83
-13.11
-60.03
-103.66
-141.32
-171.46
-192.43
-201.66
-195.51
-170.63
-126.29
-66.21
1.78
68.06
124.05
164.25
186.68
192.49
185.15
169.43
150.42
133.22
121.93
117.77
117.34
112.96
96.21
62.99
16.52
-33.57
-74.71
-96.61
-95.58
-74.99
-45.65
-22.29
-16.63
-30.10
-56.80
-89.57
-123.44
-155.45
-183.67
-206.88
-223.55
-231.73
-229.77
-217.68
-197.08
-170.44
-140.29
-108.94
-78.40
-49.60
-22.00
6.20
37.12
72.37
112.25
154.96
196.56
231.76
256.19
268.13
269.09
262.63
252.91
243.56
236.84
233.34
232.24
231.87
229.92
223.31
208.47
182.55
145.37
100.53
55.08
17.18
-7.26
-17.26
-17.39
-15.77
-20.28
-35.11
-59.74
-90.34
-122.54
-153.54
-182.17
-207.51
-227.38
-238.61
-239.11
-230.14
-216.96
-206.90
-205.50
-213.31
-225.21
-233.40
-231.90
-219.64
-200.10
-177.76
-154.32
-127.83
-94.95
-54.78
-10.76
30.45
62.58
82.98
93.23
97.01
97.20
94.39
87.77
77.08
63.89
51.08
40.99
33.87
27.98
21.11
12.42
3.29
-3.11
-3.42
4.53
20.81
43.42
68.93
93.64
114.74
130.79
141.80
148.58
151.84
151.63
147.26
138.06
124.20
106.98
88.28
69.44
50.50
30.19
6.93
-20.05
-49.76
-79.52
-105.75
-125.15
-135.55
-136.09
-126.94
-108.93
-83.26
-51.61
-16.03
21.32
58.50
94.13
127.17
156.39
179.90
195.24
200.20
193.80
177.17
153.49
127.13
102.19
81.11
63.97
48.80
32.87
14.04
-8.36
-33.66
-60.75
-88.70
-116.80
-143.81
-167.25
-183.31
-187.86
-178.22
-154.74
-121.16
-83.39
-47.20
-16.02
10.02
33.21
56.04
79.05
99.79
113.75
116.76
107.47
88.59
66.11
46.75
35.08
31.84
34.35
38.58
41.54
42.71
43.71
46.84
53.35
62.48
71.84
78.51
80.45
77.19
69.75
59.93
49.40
39.02
28.73
17.83
5.52
-8.55
-24.10
-40.24
-55.88
-70.00
-81.91
-91.31
-98.13
-102.50
-104.77
-105.61
-106.11
-107.63
-111.45
-118.14
-127.09
-136.38
-143.14
-144.44
-138.22
-124.06
-103.29
-78.61
-53.25
-30.09
-11.00
3.44
13.91
22.13
30.42
41.15
55.86
74.57
95.32
114.54
128.24
133.55
129.98
119.67
106.51
94.38
85.62
80.36
77.03
73.57
68.45
60.93
50.78
37.66
20.96
0.37
-23.59
-49.22
-74.11
-96.24
-114.97
-131.30
-147.09
-163.98
-182.27
-200.95
-218.29
-232.78
-243.60
-250.45
-253.20
-251.56
-245.35
-234.92
-221.36
-206.29
-191.19
-176.83
-163.23
-149.99
-136.91
-124.15
-111.91
-100.02
-87.55
-73.09
-55.44
-34.17
-9.91
15.86
41.20
64.08
82.49
94.60
98.94
94.73
82.14
62.29
37.04
8.59
-21.08
-50.55
-79.05
-106.24
-131.87
-155.44
-176.11
-192.53
-202.94
-205.17
-197.16
-177.47
-146.24
-105.81
-60.63
-16.46
21.48
50.48
71.63
89.33
108.83
132.95
160.02
184.20
198.41
198.21
184.46
163.19
142.69
129.64
126.24
130.03
136.03
139.67
138.90
134.29
127.67
120.41
112.64
103.51
92.18
78.76
64.49
51.50
41.74
36.16
34.30
34.46
34.50
32.75
28.60
22.57
15.99
10.13
5.66
2.40
-0.50
-4.08
-8.97
-15.12
-21.81
-28.04
-33.05
-36.70
-39.48
-42.24
-45.82
-50.62
-56.34
-62.12
-66.65
-68.63
-67.12
-61.76
-52.91
-41.48
-28.65
-15.54
-3.01
8.45
18.59
27.18
34.01
38.84
41.60
42.54
42.24
41.52
41.17
41.67
43.13
45.25
47.55
49.54
50.98
51.89
52.52
53.20
54.11
55.10
55.55
54.46
50.70
43.39
32.41
18.55
3.50
-10.58
-21.67
-28.47
-30.74
-29.27
-25.56
-21.35
-18.26
-17.41
-19.41
-24.21
-31.16
-39.02
-46.10
-50.57
-50.91
-46.34
-37.03
-24.06
-9.08
6.20
20.40
32.69
42.67
50.24
55.36
58.06
58.49
57.05
54.45
51.53
49.10
47.67
47.41
48.10
49.36
50.79
52.08
53.09
53.70
53.86
53.40
52.19
50.08
47.08
43.30
39.02
34.49
29.86
25.13
20.11
14.69
8.87
2.91
-2.77
-7.79
-12.03
-15.68
-19.21
-23.21
-28.13
-34.13
-41.04
-48.32
-55.11
-60.33
-62.82
-61.65
-56.32
-46.98
-34.46
-20.09
-5.39
8.29
20.02
29.40
36.44
41.33
44.39
45.82
45.93
45.04
43.59
42.10
41.03
40.66
41.07
42.13
43.60
45.18
46.61
47.63
48.04
47.72
46.64
44.90
42.64
40.02
37.11
33.99
30.70
27.30
23.82
20.16
16.15
11.60
6.43
0.77
-5.06
-10.76
-16.13
-21.25
-26.33
-31.44
-36.24
-39.94
-41.49
-39.99
-35.08
-27.13
-17.09
-6.18
4.40
13.85
21.71
27.85
32.31
35.19
36.63
36.85
36.09
34.62
32.71
30.57
28.37
26.31
24.63
23.65
23.69
25.07
27.84
31.78
36.27
40.51
43.70
45.31
45.38
44.49
43.63
43.73
45.38
48.53
52.61
56.78
60.26
62.59
63.72
63.89
63.45
62.80
62.26
61.76
60.60
57.40
50.63
39.56
25.23
10.54
-0.69
-5.37
-2.53
6.39
18.41
30.45
40.31
46.68
48.52
44.69
34.48
18.41
-1.05
-20.08
-35.03
-44.13
-48.06
-49.28
-50.49
-53.45
-58.58
-65.63
-74.36
-84.71
-96.34
-108.09
-117.97
-123.88
-124.70
-120.94
-114.57
-108.14
-103.58
-101.53
-101.35
-101.71
-101.43
-100.06
-97.84
-95.42
-93.26
-91.46
-89.67
-87.53
-84.91
-82.12
-79.78
-78.48
-78.35
-78.89
-79.03
-77.49
-73.16
-65.44
-54.43
-40.86
-25.90
-10.81
3.31
15.75
26.24
34.82
41.66
46.84
50.30
51.94
51.85
50.47
48.57
47.02
46.46
47.05
48.45
50.05
51.29
51.89
51.90
51.49
50.73
49.46
47.37
44.11
39.68
34.46
29.06
24.13
19.98
16.52
13.30
9.84
5.77
1.07
-4.06
-9.38
-14.73
-20.06
-25.35
-30.47
-35.16
-39.20
-42.52
-45.20
-47.41
-49.21
-50.44
-50.75
-49.84
-47.66
-44.62
-41.38
-38.54
-36.27
-34.11
-31.36
-27.48
-22.49
-16.94
-11.45
-6.19
-0.71
5.74
13.53
22.21
30.45
36.69
39.92
40.10
38.22
35.66
33.59
32.70
33.11
34.64
36.90
39.38
41.42
42.36
41.69
39.19
34.95
29.23
22.31
14.46
6.01
-2.63
-10.98
-18.65
-25.53
-31.75
-37.55
-43.03
-47.93
-51.55
-53.09
-51.92
-47.86
-41.33
-33.02
-23.72
-14.00
-4.29
5.08
13.66
20.83
25.84
28.07
27.29
23.88
18.94
14.05
10.80
10.22
12.44
16.73
21.87
26.80
30.92
34.03
36.06
36.83
36.16
34.31
32.29
31.60
33.56
38.45
45.19
51.68
55.80
56.27
53.05
46.95
38.86
29.18
17.69
3.96
-12.14
-30.01
-48.43
-65.82
-80.69
-92.02
-99.38
-102.91
-103.07
-100.43
-95.51
-88.82
-80.89
-72.38
-63.96
-56.03
-48.64
-41.55
-34.61
-27.95
-22.16
-17.84
-15.03
-12.86
-9.61
-3.47
6.43
19.33
33.02
44.73
52.56
56.38
57.77
58.95
61.34
64.36
65.51
61.22
48.40
25.72
-5.82
-42.80
-79.64
-109.02
-123.19
-116.08
-86.09
-37.99
17.11
64.76
92.04
92.50
68.70
30.93
-7.11
-33.86
-43.88
-38.75
-24.88
-9.86
0.89
5.45
4.75
0.89
-4.60
-11.22
-18.89
-26.92
-33.34
-35.70
-32.45
-24.27
-14.15
-6.30
-4.14
-8.65
-17.84
-27.64
-33.70
-32.99
-24.83
-10.71
6.52
23.85
39.01
50.97
59.79
66.15
70.69
73.56
74.37
72.47
67.39
59.26
48.88
37.54
26.59
16.98
9.05
2.56
-3.12
-8.65
-14.49
-20.72
-27.00
-32.68
-36.91
-38.87
-38.01
-34.22
-27.90
-19.89
-11.25
-2.98
4.21
9.99
14.37
17.46
19.41
20.32
20.28
19.50
18.29
17.07
16.21
15.92
16.23
17.01
18.07
19.23
20.42
21.54
22.52
23.15
23.25
22.63
21.25
19.21
16.71
13.93
11.06
8.14
5.16
2.08
-1.09
-4.33
-7.61
-10.86
-14.08
-17.30
-20.60
-24.12
-28.02
-32.40
-37.14
-41.79
-45.50
-47.30
-46.29
-42.11
-35.07
-26.11
-16.41
-7.06
1.26
8.28
14.06
18.69
22.19
24.54
25.71
25.84
25.24
24.33
23.51
23.07
23.10
23.49
24.06
24.63
25.11
25.51
25.90
26.23
26.35
26.04
25.05
23.31
20.93
18.17
15.30
12.54
9.93
7.41
4.86
2.15
-0.76
-3.86
-7.10
-10.40
-13.67
-16.85
-19.94
-23.04
-26.31
-29.97
-34.14
-38.68
-43.19
-46.87
-48.85
-48.32
-44.85
-38.56
-30.08
-20.42
-10.62
-1.53
6.30
12.68
17.61
21.16
23.41
24.48
24.56
23.92
22.96
22.09
21.58
21.56
21.96
22.61
23.28
23.81
24.16
24.32
24.31
24.04
23.37
22.16
20.35
18.04
15.47
12.86
10.38
7.96
5.43
2.54
-0.78
-4.42
-8.06
-11.32
-13.98
-16.04
-17.72
-19.38
-21.37
-23.96
-27.22
-31.00
-34.87
-38.14
-39.92
-39.38
-35.92
-29.44
-20.39
-9.74
1.31
11.62
20.30
26.89
31.29
33.72
34.51
33.97
32.34
29.75
26.39
22.58
18.74
15.36
12.75
10.94
9.66
8.50
7.18
5.75
4.52
3.94
4.34
5.78
7.96
10.32
12.20
12.95
12.13
9.59
5.63
0.80
-4.17
-8.62
-12.04
-14.13
-14.82
-14.23
-12.76
-11.08
-10.11
-10.69
-13.18
-17.05
-20.96
-23.13
-22.21
-17.81
-10.73
-2.54
5.14
11.20
15.31
17.65
18.56
18.17
16.40
13.17
8.73
3.71
-1.02
-4.69
-6.89
-7.69
-7.50
-6.82
-6.04
-5.31
-4.59
-3.75
-2.72
-1.62
-0.65
-0.11
-0.17
-0.86
-2.01
-3.36
-4.67
-5.77
-6.72
-7.69
-8.93
-10.63
-12.83
-15.34
-17.85
-20.05
-21.75
-23.08
-24.36
-26.09
-28.62
-32.02
-35.93
-39.61
-42.12
-42.57
-40.40
-35.49
-28.23
-19.35
-9.74
-0.25
8.44
15.90
21.90
26.31
29.17
30.59
30.78
30.06
28.82
27.40
26.10
25.11
24.50
24.31
24.53
25.12
25.98
26.93
27.79
28.33
28.38
27.84
26.68
24.94
22.68
20.05
17.17
14.24
11.38
8.68
6.09
3.50
0.76
-2.21
-5.28
-8.27
-10.93
-13.09
-14.80
-16.28
-17.88
-19.94
-22.69
-26.13
-29.98
-33.64
-36.32
-37.20
-35.67
-31.51
-24.99
-16.77
-7.75
1.15
9.22
15.98
21.20
24.78
26.78
27.34
26.76
25.40
23.63
21.77
20.06
18.68
17.77
17.41
17.63
18.32
19.26
20.11
20.57
20.44
19.67
18.32
16.53
14.43
12.11
9.65
7.09
4.51
1.92
-0.67
-3.29
-5.94
-8.62
-11.24
-13.68
-15.87
-17.83
-19.67
-21.65
-24.02
-26.95
-30.35
-33.80
-36.61
-37.94
-37.04
-33.54
-27.51
-19.58
-10.68
-1.85
6.05
12.47
17.22
20.39
22.19
22.84
22.55
21.52
20.00
18.33
16.83
15.78
15.33
15.43
15.94
16.64
17.37
18.01
18.52
18.87
18.96
18.69
17.93
16.61
14.76
12.49
10.03
7.54
5.15
2.87
0.58
-1.86
-4.57
-7.56
-10.72
-13.86
-16.80
-19.42
-21.70
-23.74
-25.73
-27.87
-30.37
-33.29
-36.55
-39.77
-42.36
-43.58
-42.77
-39.56
-34.01
-26.61
-18.12
-9.38
-1.11
6.20
12.30
17.11
20.67
23.07
24.47
25.07
25.10
24.74
24.12
23.34
22.41
21.43
20.53
19.90
19.75
20.24
21.39
23.14
25.34
27.72
29.96
31.66
32.40
31.80
29.61
25.87
20.90
15.26
9.59
4.43
0.08
-3.41
-6.15
-8.26
-9.73
-10.52
-10.63
-10.24
-9.82
-9.97
-11.29
-14.11
-18.37
-23.65
-29.23
-34.26
-37.94
-39.54
-38.55
-34.60
-27.62
-17.82
-5.89
7.15
19.99
31.37
40.39
46.70
50.57
52.68
53.88
54.89
56.21
58.10
60.76
64.30
68.84
74.40
80.87
88.00
95.41
102.67
109.34
115.12
119.95
123.95
127.30
129.84
131.04
130.08
126.24
119.52
110.57
100.14
87.90
71.91
49.04
16.64
-25.85
-76.25
-130.40
-183.86
-233.08
-275.67
-309.33
-331.12
-337.43
-325.55
-295.36
-250.29
-196.49
-140.75
-88.50
-42.65
-4.18
26.76
50.05
65.48
73.38
74.91
72.18
67.67
63.57
61.28
61.14
62.55
64.34
65.18
64.00
60.30
54.22
46.39
37.62
28.62
19.95
12.02
5.15
-0.52
-5.22
-9.79
-15.62
-24.35
-37.30
-54.70
-75.14
-95.57
-111.94
-120.48
-119.26
-108.96
-92.72
-74.81
-58.84
-46.46
-37.22
-29.48
-21.73
-13.51
-5.36
2.00
8.46
14.82
22.30
31.67
42.78
54.50
65.39
74.29
80.80
85.20
88.06
89.75
90.02
87.97
82.30
72.08
57.50
40.41
24.19
13.00
10.30
17.45
32.89
52.32
69.97
80.46
80.56
69.99
51.22
28.18
4.77
-16.23
-33.59
-47.13
-56.97
-62.89
-64.33
-60.86
-52.91
-42.07
-30.81
-21.64
-16.18
-14.61
-15.88
-18.40
-20.99
-23.34
-25.95
-29.52
-34.18
-39.26
-43.46
-45.55
-45.05
-42.38
-38.64
-34.94
-31.85
-29.21
-26.44
-22.94
-18.56
-13.66
-8.83
-4.55
-0.99
2.01
4.72
7.33
9.80
11.87
13.11
13.05
11.37
8.10
3.65
-1.22
-5.64
-8.86
-10.46
-10.41
-9.08
-7.16
-5.61
-5.51
-7.81
-12.94
-20.38
-28.64
-35.55
-39.12
-38.35
-33.58
-26.48
-19.13
-13.33
-10.05
-9.37
-10.81
-13.76
-17.74
-22.31
-26.97
-30.97
-33.48
-33.74
-31.31
-26.31
-19.26
-11.00
-2.36
5.89
13.23
19.35
24.11
27.48
29.49
30.11
29.35
27.36
24.40
20.94
17.52
14.61
12.51
11.24
10.62
10.39
10.34
10.39
10.47
10.55
10.46
9.98
8.88
7.05
4.56
1.67
-1.26
-3.92
-6.17
-8.11
-10.02
-12.20
-14.81
-17.78
-20.87
-23.88
-26.70
-29.43
-32.21
-35.08
-37.85
-40.20
-41.83
-42.53
-42.17
-40.49
-37.04
-31.32
-23.09
-12.68
-1.09
10.23
19.89
26.98
31.22
32.93
32.72
31.28
29.30
27.52
26.63
27.09
28.89
31.45
33.72
34.63
33.50
30.30
25.62
20.27
14.85
9.54
4.04
-2.02
-8.71
-15.42
-20.83
-23.37
-21.89
-16.24
-7.64
1.51
8.25
9.72
3.83
-10.14
-31.22
-56.55
-81.70
-101.44
-111.16
-108.43
-94.12
-72.32
-48.99
-29.65
-17.38
-11.88
-10.12
-7.95
-1.97
9.23
24.97
43.19
61.55
78.30
92.63
104.44
113.95
121.56
127.81
133.66
140.55
150.10
163.47
180.70
200.26
219.25
234.35
242.77
243.21
235.89
222.16
203.77
182.43
159.48
136.04
113.20
92.03
73.50
58.14
45.82
35.72
26.53
16.86
5.70
-7.31
-21.87
-37.24
-52.51
-66.85
-79.56
-90.06
-97.81
-102.35
-103.40
-101.14
-96.26
-89.92
-83.43
-78.02
-74.43
-72.96
-73.39
-75.22
-77.85
-80.72
-83.36
-85.41
-86.71
-87.20
-86.93
-86.00
-84.50
-82.48
-79.92
-76.82
-73.24
-69.41
-65.53
-61.83
-58.39
-55.21
-52.26
-49.54
-47.10
-45.08
-43.55
-42.45
-41.67
-41.03
-40.48
-40.12
-40.15
-40.75
-41.88
-43.21
-44.08
-43.77
-41.72
-37.71
-31.95
-24.95
-17.34
-9.74
-2.66
3.55
8.65
12.47
14.95
16.10
16.10
15.26
13.94
12.51
11.25
10.26
9.50
8.84
8.14
7.32
6.41
5.48
4.65
3.97
3.38
2.71
1.70
0.17
-1.97
-4.65
-7.66
-10.76
-13.65
-16.12
-18.00
-19.26
-19.98
-20.45
-21.04
-22.15
-24.04
-26.69
-29.76
-32.62
-34.55
-34.92
-33.35
-29.78
-24.50
-18.07
-11.21
-4.65
1.01
5.46
8.67
10.84
12.24
13.09
13.45
13.32
12.67
11.58
10.25
8.95
7.88
7.10
6.54
6.08
5.65
5.25
4.98
4.86
4.88
4.90
4.73
4.25
3.42
2.35
1.22
0.26
-0.42
-0.81
-1.06
-1.38
-1.97
-3.01
-4.61
-6.85
-9.82
-13.51
-17.75
-22.09
-25.84
-28.19
-28.46
-26.34
-22.00
-16.05
-9.30
-2.55
3.66
9.04
13.54
17.16
19.93
21.84
22.86
23.00
22.35
21.10
19.48
17.76
16.13
14.72
13.56
12.66
11.97
11.43
10.96
10.46
9.87
9.11
8.19
7.13
5.94
4.59
2.99
1.10
-1.09
-3.45
-5.80
-7.96
-9.84
-11.49
-13.05
-14.74
-16.75
-19.21
-22.11
-25.29
-28.36
-30.76
-31.88
-31.22
-28.54
-23.95
-17.89
-11.05
-4.16
2.13
7.37
11.35
14.07
15.62
16.17
15.89
14.96
13.57
11.95
10.34
8.96
7.99
7.57
7.74
8.45
9.60
11.00
12.41
13.58
14.27
14.35
13.81
12.75
11.30
9.54
7.53
5.21
2.57
-0.34
-3.34
-6.14
-8.47
-10.25
-11.59
-12.77
-14.12
-15.87
-18.07
-20.57
-23.07
-25.23
-26.66
-27.02
-26.03
-23.59
-19.72
-14.72
-8.98
-2.98
2.83
8.05
12.36
15.50
17.25
17.55
16.50
14.41
11.73
9.01
6.75
5.30
4.82
5.19
6.21
7.57
9.01
10.37
11.57
12.58
13.38
13.87
13.90
13.29
11.90
9.69
6.77
3.33
-0.34
-3.91
-7.16
-9.95
-12.29
-14.26
-15.96
-17.54
-19.08
-20.62
-22.10
-23.30
-23.86
-23.38
-21.51
-18.14
-13.45
-7.95
-2.30
2.89
7.15
10.33
12.50
13.84
14.55
14.77
14.63
14.22
13.70
13.20
12.87
12.79
12.98
13.41
14.00
14.68
15.34
15.86
16.07
15.78
14.84
13.24
11.13
8.73
6.32
4.11
2.17
0.45
-1.23
-3.03
-5.07
-7.34
-9.74
-12.12
-14.33
-16.34
-18.28
-20.33
-22.69
-25.44
-28.41
-31.21
-33.28
-34.04
-33.07
-30.19
-25.54
-19.51
-12.63
-5.51
1.31
7.31
12.13
15.54
17.52
18.24
18.05
17.36
16.56
15.91
15.56
15.50
15.62
15.82
15.99
16.08
16.06
15.94
15.74
15.38
14.70
13.45
11.47
8.68
5.28
1.64
-1.82
-4.80
-7.22
-9.15
-10.78
-12.21
-13.46
-14.47
-15.20
-15.71
-16.19
-16.95
-18.27
-20.39
-23.35
-27.03
-31.09
-34.97
-38.01
-39.58
-39.20
-36.69
-32.21
-26.23
-19.36
-12.23
-5.39
0.80
6.14
10.53
13.93
16.34
17.86
18.68
19.07
19.36
19.80
20.53
21.53
22.68
23.89
25.14
26.50
28.05
29.78
31.52
32.93
33.54
32.93
30.76
26.91
21.45
14.68
7.05
-0.89
-8.61
-15.68
-21.79
-26.88
-31.00
-34.37
-37.24
-39.90
-42.63
-45.58
-48.69
-51.63
-53.83
-54.56
-53.18
-49.32
-42.95
-34.44
-24.37
-13.39
-2.06
9.16
20.00
30.16
39.28
46.85
52.24
54.92
54.62
51.50
46.19
39.63
32.80
26.49
21.15
16.89
13.71
11.51
10.27
9.88
10.22
10.94
11.63
11.91
11.57
10.71
9.65
8.75
8.22
8.05
7.99
7.71
6.94
5.60
3.69
1.29
-1.62
-5.18
-9.52
-14.71
-20.49
-26.28
-31.25
-34.47
-35.29
-33.46
-29.24
-23.37
-16.72
-10.09
-3.96
1.56
6.62
11.34
15.73
19.53
22.31
23.70
23.49
21.85
19.20
16.19
13.50
11.59
10.64
10.50
10.81
11.16
11.29
11.16
11.01
11.13
11.72
12.73
13.83
14.53
14.42
13.28
11.22
8.67
6.23
4.52
3.97
4.62
6.04
7.34
7.40
5.15
0.06
-7.64
-16.80
-25.63
-32.26
-35.44
-35.00
-31.83
-27.50
-23.46
-20.49
-18.37
-16.24
-13.06
-8.19
-1.67
5.84
13.39
20.10
25.32
28.78
30.51
30.77
30.04
28.84
27.69
26.92
26.66
26.88
27.54
28.55
29.81
31.04
31.82
31.72
30.49
28.28
25.65
23.27
21.59
20.58
19.76
18.48
16.32
13.39
10.31
7.94
7.01
7.74
9.83
12.53
14.93
16.31
16.34
15.29
13.90
13.12
13.74
16.03
19.70
23.98
27.99
30.99
32.57
32.61
31.13
28.12
23.66
17.97
11.58
5.25
-0.24
-4.41
-7.25
-9.09
-10.41
-11.45
-12.15
-12.21
-11.39
-9.75
-7.79
-6.30
-6.01
-7.27
-9.95
-13.51
-17.26
-20.67
-23.47
-25.71
-27.54
-29.18
-30.81
-32.58
-34.64
-37.14
-40.11
-43.40
-46.61
-49.03
-49.82
-48.19
-43.62
-36.06
-26.05
-14.62
-3.05
7.38
15.66
21.25
24.02
24.20
22.25
18.73
14.26
9.49
5.04
1.41
-1.20
-2.83
-3.86
-4.72
-5.76
-7.03
-8.30
-9.26
-9.69
-9.66
-9.46
-9.48
-10.01
-11.08
-12.55
-14.18
-15.81
-17.33
-18.68
-19.81
-20.70
-21.45
-22.37
-23.84
-26.19
-29.40
-32.98
-36.01
-37.49
-36.58
-32.95
-26.70
-18.33
-8.53
1.95
12.27
21.61
29.19
34.44
37.17
37.60
36.36
34.25
32.03
30.23
29.04
28.28
27.62
26.70
25.27
23.33
21.04
18.66
16.37
14.26
12.24
10.24
8.10
5.75
3.12
0.13
-3.20
-6.81
-10.46
-13.91
-16.92
-19.44
-21.54
-23.45
-25.31
-27.12
-28.62
-29.29
-28.57
-26.00
-21.41
-15.02
-7.36
0.80
8.73
15.83
21.80
26.52
30.09
32.63
34.23
34.95
34.86
34.06
32.73
31.11
29.40
27.75
26.21
24.75
23.35
21.92
20.42
18.77
16.92
14.84
12.61
10.39
8.32
6.48
4.84
3.23
1.49
-0.50
-2.72
-5.03
-7.22
-9.16
-10.76
-11.99
-12.87
-13.46
-13.86
-14.31
-15.11
-16.64
-19.17
-22.72
-27.04
-31.56
-35.63
-38.56
-39.84
-39.12
-36.30
-31.49
-25.04
-17.58
-9.95
-3.08
2.24
5.52
6.69
6.05
4.15
1.60
-0.98
-3.15
-4.53
-4.89
-4.10
-2.18
0.66
4.12
7.75
11.14
13.91
15.78
16.63
16.41
15.21
13.16
10.47
7.31
3.88
0.37
-3.05
-6.17
-8.83
-10.92
-12.48
-13.63
-14.60
-15.60
-16.77
-18.10
-19.37
-20.29
-20.47
-19.60
-17.51
-14.22
-9.99
-5.21
-0.34
4.25
8.30
11.66
14.30
16.18
17.28
17.54
16.98
15.74
14.14
12.55
11.37
10.89
11.12
11.89
12.89
13.80
14.46
14.86
15.09
15.27
15.46
15.61
15.63
15.44
14.95
14.15
13.02
11.58
9.88
8.00
6.05
4.13
2.28
0.45
-1.41
-3.42
-5.65
-8.14
-10.85
-13.66
-16.31
-18.43
-19.63
-19.54
-17.99
-15.04
-11.04
-6.50
-2.04
1.79
4.62
6.26
6.75
6.27
5.10
3.57
2.00
0.67
-0.22
-0.55
-0.32
0.34
1.22
2.05
2.67
3.02
3.15
3.22
3.32
3.43
3.41
3.02
2.07
0.53
-1.45
-3.57
-5.53
-7.16
-8.52
-9.86
-11.53
-13.82
-16.82
-20.33
-23.97
-27.21
-29.50
-30.43
-29.75
-27.45
-23.72
-18.99
-13.81
-8.76
-4.29
-0.64
2.13
4.10
5.35
5.96
5.98
5.58
5.02
4.60
4.55
4.96
5.74
6.68
7.54
8.11
8.22
7.76
6.70
5.04
2.90
0.46
-2.10
-4.64
-7.01
-9.16
-11.02
-12.57
-13.76
-14.62
-15.22
-15.68
-16.19
-16.98
-18.25
-20.16
-22.71
-25.71
-28.80
-31.53
-33.43
-34.13
-33.40
-31.11
-27.26
-21.98
-15.58
-8.50
-1.35
5.27
10.89
15.30
18.61
21.11
23.21
25.22
27.20
28.96
30.10
30.28
29.34
27.44
25.03
22.58
20.44
18.74
17.37
16.10
14.79
13.41
11.99
10.62
9.33
8.18
7.28
6.71
6.51
6.56
6.61
6.42
5.85
5.01
4.18
3.67
3.66
4.15
5.00
5.95
6.75
7.17
7.09
6.67
6.49
7.58
11.06
17.67
27.26
38.77
50.55
61.01
69.20
75.01
78.83
81.12
81.98
81.16
78.27
73.17
66.12
57.65
48.32
38.50
28.37
18.04
7.72
-2.14
-10.97
-18.24
-23.72
-27.61
-30.50
-33.19
-36.33
-40.18
-44.60
-49.10
-53.13
-56.25
-58.25
-59.08
-58.85
-57.71
-55.89
-53.77
-51.85
-50.63
-50.53
-51.73
-54.13
-57.37
-60.94
-64.27
-66.81
-68.15
-67.98
-66.14
-62.62
-57.50
-51.01
-43.51
-35.45
-27.36
-19.78
-13.11
-7.66
-3.54
-0.69
0.98
1.65
1.52
0.82
-0.23
-1.44
-2.74
-4.10
-5.45
-6.58
-7.01
-6.15
-3.61
0.50
5.56
10.50
14.25
16.14
16.12
14.64
12.49
10.46
9.16
8.94
9.84
11.56
13.57
15.11
15.40
13.88
10.41
5.32
-0.68
-6.76
-12.24
-16.83
-20.66
-24.01
-26.92
-28.81
-28.49
-24.51
-15.91
-2.80
13.38
30.23
45.19
56.33
62.87
65.08
63.92
60.53
55.89
50.80
45.92
41.85
39.00
37.53
37.15
37.26
37.15
36.28
34.44
31.76
28.56
25.05
21.34
17.34
12.96
8.26
3.39
-1.43
-6.10
-10.61
-15.08
-19.61
-24.14
-28.43
-32.17
-35.15
-37.33
-38.90
-40.17
-41.48
-43.03
-44.90
-47.04
-49.40
-51.88
-54.31
-56.42
-57.72
-57.62
-55.62
-51.43
-45.14
-37.18
-28.26
-19.11
-10.43
-2.73
3.68
8.66
12.18
14.35
15.33
15.36
14.76
13.89
13.16
12.90
13.33
14.54
16.45
18.80
21.29
23.55
25.27
26.23
26.29
25.48
23.88
21.64
18.96
16.04
13.07
10.18
7.44
4.81
2.16
-0.63
-3.61
-6.72
-9.73
-12.41
-14.60
-16.32
-17.78
-19.37
-21.48
-24.41
-28.21
-32.64
-37.12
-40.86
-42.97
-42.72
-39.71
-34.01
-26.13
-16.93
-7.34
1.79
9.86
16.48
21.48
24.76
26.40
26.57
25.60
23.97
22.19
20.72
19.90
19.88
20.60
21.85
23.36
24.84
26.10
27.02
27.59
27.83
27.71
27.15
26.04
24.34
22.16
19.70
17.24
15.01
13.01
11.10
9.05
6.64
3.91
1.03
-1.71
-4.14
-6.25
-8.20
-10.20
-12.38
-14.83
-17.56
-20.66
-24.22
-28.20
-32.27
-35.78
-37.82
-37.56
-34.51
-28.72
-20.78
-11.58
-2.11
6.77
14.37
20.26
24.16
25.95
25.76
23.95
21.14
18.09
15.52
13.96
13.60
14.32
15.79
17.59
19.42
21.06
22.42
23.40
23.95
23.94
23.27
21.91
19.91
17.40
14.59
11.68
8.77
5.94
3.16
0.47
-2.08
-4.37
-6.36
-8.17
-10.03
-12.29
-15.15
-18.59
-22.27
-25.54
-27.64
-27.88
-25.77
-21.24
-14.53
-6.21
2.92
12.02
20.31
27.17
32.13
34.96
35.65
34.46
31.85
28.45
24.88
21.70
19.29
17.87
17.45
17.95
19.17
20.82
22.58
24.10
25.09
25.38
24.99
24.09
22.88
21.56
20.12
18.41
16.09
12.86
8.58
3.41
-2.24
-7.85
-13.00
-17.48
-21.38
-24.96
-28.58
-32.54
-37.08
-42.22
-47.82
-53.43
-58.31
-61.58
-62.31
-59.86
-54.03
-45.18
-34.17
-22.16
-10.35
0.30
9.13
15.89
20.57
23.29
24.25
23.68
21.96
19.54
17.02
14.93
13.69
13.50
14.35
16.09
18.46
21.14
23.74
25.92
27.28
27.58
26.69
24.69
21.80
18.34
14.60
10.82
7.10
3.39
-0.38
-4.32
-8.42
-12.54
-16.48
-20.07
-23.28
-26.19
-29.02
-32.03
-35.46
-39.49
-44.16
-49.24
-54.16
-57.98
-59.55
-57.85
-52.37
-43.30
-31.59
-18.62
-5.90
5.31
14.14
20.24
23.63
24.68
23.90
21.95
19.48
17.02
14.94
13.44
12.64
12.60
13.40
15.01
17.37
20.26
23.30
26.10
28.29
29.59
29.89
29.22
27.64
25.29
22.29
18.77
14.86
10.73
6.55
2.45
-1.47
-5.18
-8.66
-11.87
-14.86
-17.71
-20.61
-23.82
-27.51
-31.65
-35.83
-39.29
-41.07
-40.28
-36.32
-29.14
-19.21
-7.44
5.04
17.11
27.82
36.53
42.92
46.92
48.62
48.19
45.90
42.11
37.42
32.55
28.36
25.51
24.38
24.84
26.37
28.23
29.69
30.22
29.51
27.49
24.22
19.91
14.89
9.57
4.37
-0.43
-4.78
-8.86
-12.99
-17.49
-22.52
-28.01
-33.71
-39.20
-44.16
-48.42
-52.10
-55.63
-59.59
-64.57
-70.88
-78.37
-86.36
-93.69
-98.95
-100.79
-98.18
-90.69
-78.66
-63.16
-45.86
-28.59
-12.93
0.13
10.32
17.89
23.38
27.28
30.04
32.05
33.79
35.80
38.55
42.24
46.64
51.26
55.56
59.27
62.48
65.54
68.70
71.90
74.66
76.27
76.11
73.92
69.86
64.45
58.33
52.04
45.93
40.15
34.71
29.54
24.60
19.78
15.00
10.20
5.38
0.56
-4.21
-8.98
-13.90
-19.14
-24.73
-30.30
-35.10
-38.08
-38.22
-34.91
-28.23
-18.89
-8.10
2.84
12.84
21.11
27.17
30.74
31.72
30.22
26.62
21.63
16.13
11.06
7.12
4.75
4.05
4.90
7.07
10.22
13.99
17.93
21.59
24.53
26.43
27.13
26.61
24.99
22.46
19.28
15.71
11.99
8.31
4.78
1.47
-1.59
-4.41
-6.99
-9.33
-11.51
-13.62
-15.82
-18.28
-21.19
-24.71
-28.84
-33.40
-37.90
-41.55
-43.41
-42.60
-38.58
-31.35
-21.49
-10.02
1.78
12.71
21.84
28.62
32.88
34.71
34.46
32.57
29.66
26.38
23.42
21.37
20.58
21.11
22.71
24.95
27.31
29.40
31.02
32.18
32.99
33.58
34.00
34.15
33.91
33.16
31.84
29.98
27.53
24.47
20.80
16.69
12.62
9.20
7.01
6.14
6.17
6.18
5.20
2.61
-1.63
-7.02
-12.72
-17.77
-21.18
-22.02
-19.55
-13.41
-3.98
7.53
19.26
29.27
36.13
39.36
39.47
37.57
34.75
31.69
28.52
24.97
20.69
15.52
9.57
3.14
-3.37
-9.62
-15.29
-20.08
-23.68
-25.84
-26.44
-25.60
-23.73
-21.58
-20.01
-19.84
-21.48
-24.79
-29.07
-33.25
-36.30
-37.57
-36.97
-34.90
-31.95
-28.71
-25.66
-23.24
-21.97
-22.41
-24.90
-29.33
-35.02
-40.80
-45.44
-48.02
-48.10
-45.75
-41.35
-35.43
-28.46
-20.94
-13.41
-6.40
-0.36
4.46
7.96
10.16
11.15
11.04
10.01
8.40
6.69
5.38
4.87
5.26
6.41
8.01
9.76
11.48
13.13
14.72
16.18
17.38
18.08
18.02
17.04
15.19
12.67
9.82
6.92
4.08
1.19
-2.02
-5.77
-10.09
-14.76
-19.48
-24.03
-28.34
-32.50
-36.45
-39.86
-42.01
-42.06
-39.31
-33.59
-25.27
-15.19
-4.39
6.13
15.51
23.10
28.36
30.94
30.72
28.03
23.61
18.55
14.01
10.83
9.31
9.17
9.68
10.06
9.78
8.70
7.05
5.23
3.53
2.09
0.88
-0.25
-1.42
-2.73
-4.29
-6.22
-8.61
-11.55
-15.00
-18.83
-22.80
-26.63
-30.11
-33.11
-35.72
-38.18
-40.85
-44.03
-47.82
-51.88
-55.42
-57.37
-56.71
-52.84
-45.86
-36.50
-25.92
-15.35
-5.75
2.28
8.54
13.09
16.09
17.76
18.33
18.06
17.22
16.08
14.89
13.83
13.07
12.68
12.66
12.96
13.46
14.03
14.52
14.77
14.63
13.95
12.67
10.82
8.52
5.94
3.29
0.71
-1.69
-3.89
-5.87
-7.63
-9.17
-10.51
-11.69
-12.81
-14.04
-15.70
-18.06
-21.39
-25.77
-31.00
-36.47
-41.24
-44.24
-44.51
-41.51
-35.31
-26.54
-16.19
-5.33
5.14
14.55
22.48
28.62
32.75
34.77
34.77
33.12
30.38
27.29
24.55
22.74
22.19
22.94
24.67
26.82
28.66
29.51
28.85
26.54
22.79
18.08
12.94
7.84
3.05
-1.39
-5.55
-9.54
-13.39
-17.04
-20.37
-23.28
-25.76
-27.96
-30.14
-32.64
-35.70
-39.47
-43.79
-48.28
-52.29
-55.05
-55.73
-53.73
-48.75
-41.00
-31.14
-20.21
-9.42
0.20
7.91
13.47
17.01
18.94
19.69
19.62
18.95
17.79
16.28
14.67
13.34
12.65
12.85
13.92
15.57
17.35
18.77
19.51
19.45
18.69
17.35
15.53
13.27
10.52
7.26
3.60
-0.29
-4.17
-7.82
-11.11
-14.06
-16.79
-19.50
-22.46
-25.86
-29.87
-34.44
-39.27
-43.74
-46.94
-47.95
-46.03
-40.93
-32.99
-23.04
-12.19
-1.49
8.28
16.63
23.32
28.16
31.07
32.00
31.13
28.94
26.13
23.45
21.49
20.54
20.53
21.22
22.27
23.41
24.43
25.16
25.43
25.11
24.12
22.46
20.23
17.58
14.65
11.55
8.38
5.17
1.95
-1.29
-4.60
-7.99
-11.46
-14.95
-18.45
-21.97
-25.61
-29.55
-33.90
-38.52
-42.89
-46.12
-47.11
-44.87
-38.94
-29.60
-17.85
-5.22
6.77
16.93
24.66
29.94
33.04
34.35
34.14
32.66
30.22
27.27
24.40
22.14
20.90
20.80
21.74
23.41
25.46
27.47
29.00
29.66
29.13
27.31
24.39
20.80
17.02
13.39
9.95
6.42
2.35
-2.60
-8.49
-14.99
-21.46
-27.24
-31.95
-35.67
-39.03
-42.89
-48.03
-54.70
-62.41
-69.88
-75.40
-77.20
-73.90
-65.19
-52.38
-38.70
-28.86
-27.71
-38.53
-61.42
-92.88
-126.67
-155.74
-174.23
-178.92
-169.52
-148.08
-118.05
-83.51
-48.50
-16.60
9.59
29.00
42.22
51.18
58.24
65.33
73.37
82.22
91.07
98.88
104.83
108.45
109.66
108.68
106.02
102.33
98.35
94.65
91.43
88.39
84.84
80.13
74.00
66.93
60.01
54.60
51.82
52.12
55.26
60.40
66.55
72.75
78.29
82.69
85.63
86.87
86.32
84.11
80.52
76.04
71.24
66.70
63.00
60.57
59.70
60.37
62.25
64.76
67.18
68.95
69.83
70.00
70.03
70.70
72.75
76.62
82.19
88.90
95.93
102.67
108.89
114.69
120.22
125.41
129.77
132.43
132.23
127.84
117.88
101.19
77.24
46.57
11.09
-26.15
-61.58
-92.07
-115.68
-131.99
-141.81
-146.61
-147.99
-147.34
-145.76
-144.01
-142.48
-141.18
-139.76
-137.66
-134.38
-129.61
-123.43
-116.25
-108.72
-101.45
-94.86
-89.04
-83.81
-78.81
-73.77
-68.55
-63.35
-58.58
-54.71
-52.14
-51.00
-51.16
-52.29
-54.03
-56.06
-58.17
-60.17
-61.69
-62.16
-60.74
-56.65
-49.37
-38.95
-26.05
-11.83
2.31
15.03
25.13
31.79
34.56
33.54
29.36
23.05
15.77
8.46
1.66
-4.51
-10.13
-15.24
-19.73
-23.48
-26.46
-28.82
-30.85
-32.75
-34.54
-36.11
-37.33
-38.15
-38.67
-38.96
-38.96
-38.38
-36.87
-34.19
-30.42
-26.08
-21.96
-18.91
-17.52
-17.82
-19.19
-20.58
-20.83
-19.15
-15.38
-9.98
-3.77
2.46
8.20
13.30
17.81
21.81
25.25
27.95
29.65
30.14
29.36
27.57
25.34
23.50
22.90
24.11
27.20
31.71
36.80
41.61
45.49
48.06
49.18
48.74
46.75
43.32
38.85
33.96
29.44
25.97
23.94
23.38
23.92
24.88
25.40
24.59
21.74
16.59
9.47
1.38
-6.29
-12.09
-14.99
-14.51
-10.87
-4.71
3.06
11.47
19.49
26.10
30.27
31.13
28.22
21.71
12.52
2.23
-7.18
-13.84
-16.40
-14.51
-8.86
-1.00
7.15
13.93
18.30
19.99
19.35
17.02
13.68
9.92
6.19
2.82
0.05
-2.09
-3.76
-5.29
-7.17
-9.82
-13.47
-18.04
-23.15
-28.03
-31.82
-33.69
-33.15
-30.19
-25.29
-19.22
-12.77
-6.58
-0.98
3.86
7.82
10.68
12.16
11.99
10.12
6.84
2.75
-1.34
-4.72
-6.99
-8.10
-8.27
-7.76
-6.76
-5.35
-3.58
-1.68
-0.09
0.61
-0.08
-2.40
-6.19
-10.91
-15.83
-20.26
-23.69
-25.99
-27.34
-28.26
-29.33
-31.01
-33.44
-36.34
-39.07
-40.81
-40.76
-38.36
-33.41
-26.10
-16.90
-6.54
4.15
14.31
23.22
30.37
35.60
38.98
40.78
41.33
40.96
39.97
38.66
37.37
36.37
35.84
35.76
35.87
35.86
35.41
34.39
32.85
30.97
28.90
26.66
24.12
21.11
17.51
13.34
8.79
4.19
-0.16
-4.05
-7.45
-10.48
-13.36
-16.31
-19.50
-23.01
-26.85
-31.01
-35.40
-39.79
-43.73
-46.49
-47.23
-45.27
-40.32
-32.70
-23.29
-13.21
-3.52
5.04
12.07
17.47
21.26
23.51
24.34
23.93
22.66
20.97
19.32
18.06
17.33
17.10
17.18
17.36
17.46
17.40
17.17
16.76
16.11
15.03
13.27
10.66
7.21
3.14
-1.12
-5.23
-9.04
-12.65
-16.25
-20.09
-24.25
-28.74
-33.48
-38.33
-43.03
-47.09
-49.74
-50.10
-47.48
-41.65
-33.08
-22.79
-12.02
-1.88
6.97
14.24
19.96
24.15
26.80
27.85
27.37
25.71
23.45
21.27
19.70
18.98
19.04
19.60
20.36
21.13
21.76
22.14
22.15
21.65
20.56
18.87
16.60
13.79
10.44
6.52
2.11
-2.59
-7.23
-11.47
-15.09
-18.11
-20.77
-23.42
-26.41
-29.97
-34.16
-38.81
-43.41
-47.21
-49.29
-48.78
-45.17
-38.47
-29.28
-18.64
-7.69
2.56
11.39
18.41
23.43
26.41
27.39
26.62
24.57
21.87
19.30
17.55
17.04
17.82
19.59
21.84
24.00
25.68
26.65
26.86
26.33
25.16
23.45
21.35
18.99
16.45
13.74
10.74
7.37
3.60
-0.37
-4.28
-7.85
-11.00
-13.84
-16.68
-19.89
-23.71
-28.28
-33.52
-39.14
-44.63
-49.19
-51.93
-51.93
-48.58
-41.80
-32.11
-20.56
-8.46
2.95
12.73
20.37
25.77
29.10
30.64
30.73
29.73
28.01
26.07
24.38
23.37
23.26
24.05
25.49
27.26
29.04
30.64
31.92
32.80
33.10
32.68
31.41
29.26
26.40
23.07
19.55
16.03
12.61
9.29
6.04
2.80
-0.50
-3.86
-7.27
-10.74
-14.24
-17.85
-21.67
-25.78
-30.18
-34.62
-38.58
-41.30
-42.02
-40.12
-35.39
-28.05
-18.75
-8.38
2.04
11.61
19.53
25.24
28.44
29.19
27.83
25.02
21.53
18.13
15.43
13.81
13.40
14.01
15.28
16.69
17.76
18.19
17.91
17.08
15.93
14.60
13.04
11.04
8.40
5.03
1.06
-3.20
-7.46
-11.47
-15.12
-18.42
-21.50
-24.53
-27.71
-31.23
-35.12
-39.21
-43.00
-45.71
-46.47
-44.52
-39.54
-31.70
-21.73
-10.74
0.09
9.71
17.43
22.93
26.24
27.53
27.08
25.18
22.26
18.82
15.50
12.87
11.29
10.81
11.15
11.89
12.59
13.00
13.04
12.75
12.24
11.55
10.70
9.62
8.19
6.28
3.76
0.55
-3.28
-7.50
-11.73
-15.61
-18.83
-21.30
-23.21
-24.91
-26.87
-29.45
-32.77
-36.61
-40.43
-43.40
-44.68
-43.49
-39.40
-32.39
-22.96
-11.98
-0.60
10.02
18.94
25.57
29.72
31.50
31.25
29.41
26.50
23.08
19.77
17.17
15.73
15.62
16.72
18.66
20.87
22.86
24.25
24.88
24.76
23.95
22.50
20.44
17.75
14.47
10.73
6.75
2.82
-0.83
-4.03
-6.74
-9.01
-10.96
-12.72
-14.44
-16.30
-18.48
-21.11
-24.17
-27.39
-30.25
-32.04
-32.03
-29.68
-24.83
-17.77
-9.13
0.23
9.42
17.69
24.50
29.60
32.95
34.66
34.97
34.12
32.45
30.30
28.08
26.13
24.77
24.14
24.23
24.86
25.76
26.63
27.19
27.25
26.68
25.42
23.44
20.82
17.66
14.10
10.32
6.43
2.52
-1.39
-5.26
-9.05
-12.69
-16.15
-19.45
-22.72
-26.14
-29.85
-33.91
-38.16
-42.33
-45.94
-48.45
-49.27
-47.90
-44.10
-37.95
-29.99
-21.05
-12.11
-4.09
2.35
6.82
9.22
9.68
8.60
6.53
4.18
2.29
1.39
1.73
3.19
5.38
7.81
9.98
11.52
12.25
12.16
11.36
10.00
8.22
6.09
3.58
0.67
-2.64
-6.20
-9.81
-13.22
-16.29
-19.04
-21.68
-24.49
-27.75
-31.58
-35.87
-40.13
-43.58
-45.26
-44.31
-40.22
-33.02
-23.32
-12.20
-0.92
9.33
17.67
23.61
27.04
28.15
27.34
25.15
22.20
19.14
16.55
14.86
14.28
14.71
15.76
16.94
17.80
18.11
17.88
17.31
16.54
15.54
14.08
11.87
8.72
4.74
0.26
-4.23
-8.31
-11.78
-14.73
-17.48
-20.46
-24.09
-28.59
-33.83
-39.29
-44.11
-47.32
-48.03
-45.72
-40.35
-32.34
-22.50
-11.83
-1.29
8.29
16.38
22.67
27.06
29.53
30.12
28.97
26.48
23.27
20.18
17.98
17.15
17.72
19.27
21.16
22.79
23.80
24.13
23.88
23.25
22.31
21.09
19.44
17.17
14.00
9.65
4.06
-2.55
-9.56
-16.15
-21.54
-25.38
-27.91
-29.89
-32.35
-36.07
-41.36
-47.78
-54.36
-59.84
-62.97
-62.81
-58.89
-51.27
-40.51
-27.55
-13.53
0.42
13.27
24.21
32.69
38.39
41.23
41.45
39.56
36.36
32.72
29.48
27.19
26.03
25.85
26.29
26.96
27.56
27.88
27.79
27.14
25.78
23.52
20.33
16.24
11.52
6.47
1.41
-3.42
-7.94
-12.11
-15.98
-19.59
-23.08
-26.61
-30.49
-35.03
-40.47
-46.80
-53.66
-60.24
-65.45
-68.09
-67.26
-62.57
-54.34
-43.39
-30.92
-18.04
-5.66
5.66
15.56
23.76
30.03
34.17
36.26
36.62
35.86
34.69
33.72
33.29
33.43
33.88
34.32
34.47
34.23
33.64
32.82
31.80
30.47
28.57
25.81
21.96
17.01
11.16
4.85
-1.41
-7.18
-12.18
-16.45
-20.34
-24.40
-29.17
-35.00
-41.84
-49.22
-56.19
-61.56
-64.15
-63.00
-57.68
-48.37
-35.90
-21.55
-6.74
7.27
19.61
29.80
37.68
43.27
46.59
47.77
47.07
45.02
42.30
39.68
37.74
36.72
36.54
36.84
37.22
37.32
36.97
36.11
34.69
32.62
29.73
25.89
21.09
15.53
9.56
3.62
-1.98
-7.07
-11.74
-16.21
-20.82
-25.84
-31.46
-37.73
-44.52
-51.38
-57.53
-61.90
-63.27
-60.65
-53.60
-42.47
-28.42
-13.12
1.71
14.73
25.21
33.02
38.36
41.59
43.00
42.90
41.65
39.73
37.67
35.95
34.81
34.26
34.12
34.16
34.27
34.48
34.86
35.38
35.77
35.57
34.32
31.67
27.63
22.51
16.82
11.15
5.92
1.33
-2.66
-6.26
-9.74
-13.37
-17.34
-21.71
-26.50
-31.71
-37.30
-43.17
-48.97
-54.03
-57.38
-58.06
-55.43
-49.41
-40.59
-30.06
-19.03
-8.52
0.80
8.66
15.04
19.97
23.46
25.48
26.06
25.45
24.11
22.67
21.70
21.61
22.46
24.03
25.90
27.64
28.91
29.47
29.24
28.15
26.20
23.47
20.04
16.07
11.69
7.01
2.09
-3.07
-8.41
-13.85
-19.23
-24.36
-29.11
-33.46
-37.59
-41.81
-46.51
-52.02
-58.50
-65.80
-73.27
-79.81
-83.88
-83.92
-78.81
-68.29
-53.18
-35.17
-16.37
1.33
16.69
29.21
38.94
46.19
51.22
54.20
55.35
55.04
53.88
52.58
51.76
51.76
52.57
53.92
55.44
56.81
57.89
58.62
58.97
58.79
57.86
55.97
53.04
49.15
44.61
39.81
35.07
30.63
26.50
22.59
18.75
14.88
10.93
6.97
3.10
-0.68
-4.42
-8.31
-12.63
-17.60
-23.31
-29.53
-35.64
-40.71
-43.61
-43.34
-39.36
-31.80
-21.51
-9.84
1.73
11.97
20.14
25.97
29.48
30.84
30.31
28.22
25.09
21.60
18.45
16.20
15.11
15.10
15.83
16.89
17.95
18.80
19.40
19.70
19.63
19.03
17.69
15.45
12.32
8.53
4.49
0.64
-2.76
-5.75
-8.62
-11.73
-15.31
-19.28
-23.33
-27.09
-30.30
-32.96
-35.34
-37.82
-40.82
-44.60
-49.28
-54.69
-60.34
-65.34
-68.56
-68.86
-65.43
-58.11
-47.48
-34.73
-21.32
-8.57
2.54
11.53
18.29
22.90
25.54
26.45
25.94
24.45
22.51
20.69
19.50
19.29
20.17
22.02
24.48
27.02
29.09
30.27
30.38
29.53
27.96
25.96
23.66
21.05
17.98
14.35
10.21
5.73
1.18
-3.19
-7.21
-10.83
-14.10
-17.15
-20.18
-23.40
-27.09
-31.41
-36.32
-41.45
-46.06
-49.19
-49.86
-47.40
-41.76
-33.48
-23.59
-13.26
-3.51
5.05
12.12
17.74
21.92
24.70
26.06
26.04
24.83
22.77
20.34
18.05
16.31
15.35
15.16
15.55
16.22
16.85
17.19
17.08
16.47
15.34
13.76
11.85
9.72
7.51
5.31
3.08
0.74
-1.90
-4.96
-8.52
-12.50
-16.66
-20.68
-24.24
-27.12
-29.35
-31.20
-33.18
-35.84
-39.50
-44.08
-48.89
-52.79
-54.46
-52.80
-47.32
-38.30
-26.71
-13.90
-1.23
10.23
19.87
27.50
33.24
37.34
40.06
41.69
42.49
42.77
42.83
42.92
43.20
43.69
44.33
45.02
45.65
46.18
46.45
46.25
45.23
42.99
39.24
33.85
27.02
19.17
10.91
2.82
-4.61
-11.08
-16.50
-20.95
-24.62
-27.79
-30.70
-33.54
-36.35
-39.10
-41.71
-44.13
-46.46
-48.94
-51.90
-55.57
-59.95
-64.60
-68.73
-71.27
-71.20
-67.84
-61.10
-51.47
-39.94
-27.73
-16.00
-5.62
2.95
9.56
14.31
17.42
19.16
19.80
19.64
19.00
18.23
17.61
17.35
17.48
17.95
18.61
19.35
20.10
20.93
21.90
23.00
24.07
24.70
24.44
22.92
20.09
16.24
11.95
7.81
4.18
1.09
-1.74
-4.69
-7.98
-11.57
-15.17
-18.39
-20.99
-22.96
-24.55
-26.20
-28.33
-31.26
-35.11
-39.67
-44.47
-48.73
-51.47
-51.75
-48.97
-42.96
-34.17
-23.53
-12.22
-1.34
8.22
15.92
21.56
25.13
26.82
26.94
25.86
24.10
22.12
20.38
19.18
18.65
18.74
19.31
20.17
21.15
22.15
23.07
23.77
24.06
23.70
22.49
20.34
17.32
13.70
9.81
5.96
2.37
-0.88
-3.85
-6.67
-9.45
-12.29
-15.21
-18.14
-20.98
-23.57
-25.89
-28.01
-30.21
-32.84
-36.18
-40.25
-44.66
-48.64
-51.18
-51.28
-48.32
-42.17
-33.30
-22.63
-11.29
-0.38
9.25
17.01
22.63
26.02
27.33
26.86
25.06
22.48
19.74
17.39
15.85
15.30
15.68
16.76
18.20
19.70
21.05
22.11
22.81
23.02
22.65
21.55
19.68
17.16
14.21
11.16
8.27
5.68
3.32
1.02
-1.47
-4.27
-7.36
-10.52
-13.45
-15.89
-17.74
-19.15
-20.46
-22.16
-24.71
-28.42
-33.19
-38.51
-43.39
-46.55
-46.79
-43.29
-35.95
-25.48
-13.18
-0.65
10.68
19.85
26.45
30.55
32.46
32.57
31.22
28.80
25.78
22.76
20.28
18.77
18.34
18.83
19.84
21.01
22.08
22.98
23.69
24.20
24.37
23.98
22.82
20.81
18.05
14.80
11.39
8.08
4.95
1.90
-1.24
-4.54
-7.91
-11.10
-13.85
-16.00
-17.70
-19.28
-21.20
-23.77
-27.13
-31.04
-34.94
-38.07
-39.54
-38.55
-34.61
-27.74
-18.50
-7.94
2.68
12.19
19.79
25.14
28.25
29.33
28.62
26.39
22.95
18.80
14.62
11.14
8.91
8.14
8.60
9.76
11.00
11.84
12.05
11.63
10.70
9.38
7.70
5.63
3.11
0.14
-3.24
-6.92
-10.73
-14.47
-17.98
-21.15
-23.97
-26.51
-28.92
-31.40
-34.13
-37.27
-40.85
-44.69
-48.34
-51.05
-51.93
-50.22
-45.51
-37.99
-28.35
-17.63
-6.88
3.08
11.72
18.76
24.02
27.37
28.78
28.39
26.64
24.17
21.77
20.07
19.45
19.91
21.17
22.82
24.45
25.79
26.65
26.92
26.56
25.52
23.80
21.47
18.60
15.28
11.53
7.41
3.02
-1.46
-5.76
-9.67
-13.04
-15.93
-18.59
-21.36
-24.63
-28.64
-33.39
-38.53
-43.33
-46.80
-47.94
-46.03
-40.83
-32.71
-22.55
-11.51
-0.76
8.76
16.44
22.03
25.62
27.49
28.00
27.50
26.28
24.58
22.65
20.83
19.50
19.00
19.49
20.84
22.67
24.45
25.69
26.06
25.49
24.08
22.01
19.48
16.59
13.37
9.82
5.93
1.77
-2.54
-6.83
-10.94
-14.80
-18.46
-22.01
-25.59
-29.35
-33.37
-37.69
-42.26
-46.83
-50.91
-53.72
-54.36
-52.05
-46.41
-37.67
-26.63
-14.50
-2.54
8.14
16.79
22.99
26.65
27.94
27.26
25.17
22.39
19.59
17.35
16.01
15.64
16.13
17.24
18.71
20.24
21.59
22.48
22.64
21.81
19.82
16.56
12.08
6.57
0.42
-5.83
-11.59
-16.35
-19.78
-21.83
-22.76
-22.99
-23.11
-23.62
-24.85
-26.85
-29.31
-31.60
-32.90
-32.38
-29.47
-24.00
-16.21
-6.79
3.31
12.97
21.15
26.98
29.94
29.95
27.41
23.16
18.22
13.61
10.10
8.10
7.60
8.26
9.66
11.37
13.14
14.79
16.16
16.96
16.75
14.96
11.15
5.18
-2.64
-11.41
-19.71
-25.92
-28.83
-28.32
-25.82
-24.08
-26.22
-34.26
-47.88
-64.04
-77.67
-83.24
-76.33
-54.79
-19.36
26.52
77.05
125.10
163.51
186.78
192.55
182.34
160.85
134.28
108.08
85.50
67.19
52.03
38.45
25.44
12.92
1.49
-8.05
-14.90
-18.47
-18.48
-15.17
-9.50
-3.14
1.84
3.63
1.25
-5.08
-14.16
-24.35
-34.20
-42.79
-49.80
-55.24
-59.34
-62.31
-64.53
-66.48
-68.75
-71.81
-75.85
-80.63
-85.56
-89.83
-92.59
-93.08
-90.64
-84.79
-75.27
-62.16
-45.91
-27.41
-7.87
11.25
28.53
42.77
53.19
59.57
62.29
62.33
60.99
59.64
59.32
60.47
62.82
65.58
67.74
68.36
66.96
63.48
58.19
51.59
44.17
36.40
28.72
21.31
14.13
6.71
-1.56
-11.18
-22.16
-33.86
-45.12
-54.70
-61.68
-65.80
-67.46
-67.43
-66.57
-65.56
-64.89
-64.75
-65.05
-65.34
-64.74
-62.08
-56.23
-46.55
-33.19
-17.21
-0.32
15.69
29.32
39.80
47.05
51.51
53.86
54.71
54.57
53.81
52.81
51.95
51.65
52.17
53.58
55.66
57.93
59.85
60.93
60.87
59.65
57.46
54.57
51.32
47.99
44.84
42.11
39.86
38.02
36.22
33.92
30.62
26.19
21.03
15.97
11.98
9.62
8.78
8.57
7.72
5.11
0.43
-5.64
-11.49
-15.13
-14.88
-9.91
-0.50
12.08
26.00
39.37
50.65
58.80
63.30
63.96
60.90
54.52
45.50
34.72
23.17
11.73
1.08
-8.35
-16.28
-22.59
-27.37
-30.97
-34.11
-37.68
-42.54
-49.16
-57.47
-66.82
-76.20
-84.55
-90.91
-94.60
-95.19
-92.65
-87.34
-80.07
-72.06
-64.63
-58.92
-55.50
-54.26
-54.57
-55.55
-56.44
-56.84
-56.68
-55.96
-54.56
-52.07
-47.92
-41.59
-32.90
-22.12
-9.88
2.97
15.62
27.31
37.48
45.65
51.50
54.85
55.83
54.86
52.67
50.15
48.07
46.90
46.75
47.35
48.28
49.11
49.52
49.43
48.88
48.15
47.56
47.34
47.44
47.40
46.35
43.26
37.34
28.44
17.13
4.53
-8.19
-20.22
-31.27
-41.45
-50.99
-59.99
-68.37
-75.95
-82.54
-87.97
-91.93
-93.84
-92.89
-88.32
-79.73
-67.44
-52.49
-36.47
-21.03
-7.49
3.38
11.40
16.77
19.91
21.32
21.54
21.18
20.85
21.06
22.08
23.81
25.84
27.66
28.87
29.45
29.74
30.29
31.54
33.54
35.87
37.72
38.21
36.67
32.87
27.11
20.10
12.82
6.16
0.84
-2.83
-4.92
-5.89
-6.40
-7.16
-8.74
-11.44
-15.21
-19.66
-24.07
-27.55
-29.14
-28.04
-23.79
-16.46
-6.67
4.48
15.68
25.68
33.56
38.91
41.80
42.66
42.01
40.33
37.92
34.97
31.63
28.12
24.68
21.50
18.70
16.21
13.92
11.71
9.61
7.74
6.29
5.40
5.08
5.20
5.47
5.58
5.24
4.29
2.72
0.59
-1.93
-4.69
-7.54
-10.40
-13.22
-16.07
-19.09
-22.37
-25.86
-29.26
-31.88
-32.89
-31.56
-27.49
-20.91
-12.55
-3.50
5.14
12.43
17.78
20.89
21.70
20.35
17.13
12.48
6.96
1.21
-4.11
-8.44
-11.46
-13.06
-13.47
-13.07
-12.39
-11.90
-11.89
-12.44
-13.46
-14.85
-16.60
-18.87
-21.91
-25.93
-30.95
-36.61
-42.28
-47.29
-51.11
-53.59
-55.00
-55.90
-56.87
-58.37
-60.59
-63.44
-66.61
-69.54
-71.53
-71.71
-69.25
-63.65
-54.97
-43.90
-31.59
-19.24
-7.76
2.41
11.17
18.43
23.91
27.23
28.17
27.07
24.88
23.05
22.88
25.12
29.70
35.86
42.55
48.78
53.95
57.81
60.37
61.70
61.80
60.57
57.81
53.39
47.26
39.63
30.88
21.52
11.98
2.56
-6.63
-15.55
-24.17
-32.49
-40.53
-48.38
-56.07
-63.44
-69.89
-74.44
-75.94
-73.42
-66.46
-55.45
-41.50
-26.13
-10.96
2.78
14.30
23.28
29.77
33.99
36.28
37.02
36.63
35.66
34.63
34.01
33.94
34.26
34.46
33.93
32.16
29.01
24.70
19.70
14.49
9.32
4.14
-1.38
-7.54
-14.41
-21.68
-28.72
-34.81
-39.42
-42.46
-44.29
-45.63
-47.34
-50.21
-54.80
-61.25
-69.18
-77.55
-84.65
-88.40
-86.85
-78.80
-64.35
-45.04
-23.51
-2.75
14.67
27.16
34.29
36.41
34.44
29.48
22.81
15.94
10.53
8.18
9.99
16.21
26.08
37.98
49.97
60.32
67.87
72.22
73.54
72.31
69.15
64.66
59.42
53.99
48.82
44.19
40.13
36.37
32.49
28.05
22.76
16.58
9.73
2.53
-4.70
-11.79
-18.80
-25.99
-33.59
-41.57
-49.45
-56.14
-60.26
-60.50
-56.13
-47.29
-34.99
-20.81
-6.40
6.84
18.04
26.74
32.82
36.34
37.52
36.79
34.78
32.22
29.79
27.99
27.05
26.96
27.60
28.78
30.34
32.03
33.53
34.42
34.27
32.74
29.73
25.43
20.25
14.67
9.07
3.56
-2.01
-7.97
-14.57
-21.83
-29.41
-36.72
-43.16
-48.43
-52.74
-56.83
-61.70
-68.22
-76.80
-87.06
-97.93
-107.87
-115.16
-118.11
-115.14
-105.05
-87.60
-64.15
-37.95
-13.42
5.40
16.85
22.72
27.84
38.09
57.85
88.20
127.04
170.80
216.18
260.78
302.08
336.05
356.87
358.70
338.59
298.77
246.61
191.90
142.85
103.07
71.08
42.47
13.09
-18.45
-50.46
-79.66
-103.23
-120.21
-131.47
-138.81
-143.86
-147.50
-149.91
-151.08
-151.26
-151.15
-151.46
-152.43
-153.57
-153.58
-150.84
-144.01
-132.56
-116.98
-98.70
-79.57
-61.41
-45.66
-33.24
-24.63
-19.95
-19.06
-21.56
-26.55
-32.43
-36.87
-37.16
-31.12
-18.20
-0.31
18.41
33.21
41.03
42.50
42.11
46.33
60.52
86.18
120.21
156.44
188.18
210.45
220.70
218.43
204.67
181.70
153.05
123.18
96.40
75.30
59.65
46.52
31.83
12.34
-12.88
-42.21
-72.36
-99.65
-121.00
-134.36
-138.76
-134.37
-122.46
-105.23
-85.46
-65.98
-49.16
-36.58
-28.77
-25.26
-24.87
-26.02
-27.31
-27.79
-27.13
-25.40
-22.87
-19.68
-15.84
-11.28
-6.08
-0.55
4.74
9.16
12.18
13.50
13.05
11.03
7.77
3.76
-0.48
-4.48
-7.93
-10.76
-13.06
-15.03
-16.83
-18.59
-20.41
-22.46
-24.99
-28.22
-32.28
-36.98
-41.71
-45.42
-46.89
-45.00
-39.06
-29.11
-15.95
-1.01
14.05
27.63
38.60
46.37
50.87
52.39
51.43
48.58
44.50
39.94
35.64
32.25
30.17
29.48
29.92
31.00
32.20
33.10
33.51
33.40
32.77
31.60
29.79
27.27
24.03
20.20
16.00
11.60
7.13
2.54
-2.22
-7.14
-12.11
-16.90
-21.26
-25.03
-28.24
-31.10
-33.95
-37.20
-41.17
-45.94
-51.20
-56.16
-59.68
-60.50
-57.66
-50.82
-40.44
-27.69
-14.06
-1.05
10.20
18.99
25.00
28.24
28.89
27.33
24.13
20.03
15.88
12.47
10.37
9.83
10.73
12.62
14.93
17.07
18.59
19.25
19.00
17.95
16.24
14.02
11.39
8.41
5.07
1.32
-2.89
-7.53
-12.41
-17.22
-21.63
-25.34
-28.28
-30.60
-32.56
-34.48
-36.57
-39.05
-42.05
-45.64
-49.65
-53.53
-56.35
-56.91
-54.17
-47.63
-37.54
-24.87
-11.05
2.45
14.43
24.09
31.04
35.23
36.80
36.11
33.64
30.04
26.02
22.28
19.39
17.73
17.42
18.32
20.10
22.30
24.39
25.95
26.65
26.33
24.97
22.70
19.67
16.15
12.39
8.60
4.86
1.15
-2.67
-6.69
-10.89
-15.10
-19.03
-22.47
-25.38
-27.99
-30.67
-33.81
-37.65
-42.08
-46.63
-50.44
-52.52
-51.88
-47.86
-40.34
-29.79
-17.23
-3.94
8.77
19.86
28.60
34.64
37.98
38.86
37.69
35.02
31.46
27.64
24.14
21.46
19.94
19.71
20.58
22.14
23.81
25.04
25.43
24.84
23.39
21.37
19.05
16.64
14.25
11.82
9.24
6.44
3.36
-0.00
-3.61
-7.46
-11.53
-15.78
-20.18
-24.66
-29.25
-34.05
-39.31
-45.28
-51.98
-59.06
-65.62
-70.46
-72.29
-70.18
-63.89
-53.98
-41.66
-28.41
-15.66
-4.44
4.62
11.27
15.51
17.45
17.33
15.58
12.78
9.72
7.18
5.77
5.80
7.15
9.40
12.00
14.41
16.33
17.63
18.40
18.76
18.86
18.71
18.26
17.40
16.03
14.10
11.67
8.89
5.96
3.10
0.45
-1.95
-4.14
-6.23
-8.42
-10.94
-14.08
-18.03
-22.75
-27.75
-32.12
-34.63
-34.14
-29.99
-22.19
-11.54
0.67
13.00
24.18
33.31
39.95
43.92
45.34
44.42
41.56
37.28
32.25
27.25
22.97
19.94
18.34
18.04
18.58
19.34
19.69
19.15
17.50
14.83
11.45
7.80
4.28
1.13
-1.63
-4.15
-6.66
-9.39
-12.45
-15.83
-19.40
-23.02
-26.49
-29.76
-32.85
-35.98
-39.49
-43.73
-48.85
-54.61
-60.27
-64.60
-66.19
-63.81
-56.87
-45.64
-31.29
-15.57
-0.35
12.86
23.21
30.51
35.03
37.23
37.58
36.52
34.51
32.14
30.09
29.05
29.49
31.57
35.08
39.49
44.13
48.36
51.71
53.91
54.92
54.88
54.01
52.53
50.66
48.47
45.98
43.10
39.74
35.77
31.15
25.90
20.10
13.92
7.54
1.19
-4.88
-10.51
-15.61
-20.29
-24.76
-29.17
-33.35
-36.74
-38.40
-37.34
-32.88
-25.04
-14.59
-2.85
8.69
18.80
26.76
32.31
35.55
36.74
36.22
34.39
31.82
29.15
27.02
25.90
25.96
26.99
28.57
30.14
31.28
31.72
31.34
30.18
28.33
25.90
23.00
19.76
16.27
12.63
8.83
4.81
0.53
-3.98
-8.62
-13.17
-17.44
-21.27
-24.71
-27.94
-31.26
-35.01
-39.38
-44.35
-49.56
-54.31
-57.61
-58.46
-56.03
-50.01
-40.74
-29.14
-16.54
-4.37
6.21
14.46
20.10
23.21
24.10
23.21
21.03
18.13
15.18
12.80
11.51
11.52
12.73
14.69
16.85
18.67
19.83
20.28
20.09
19.43
18.36
16.84
14.72
11.85
8.18
3.84
-0.92
-5.79
-10.49
-14.91
-19.11
-23.32
-27.82
-32.85
-38.48
-44.62
-50.93
-56.86
-61.68
-64.57
-64.76
-61.74
-55.42
-46.26
-35.16
-23.28
-11.75
-1.42
7.29
14.31
19.76
23.81
26.50
27.89
28.07
27.28
25.95
24.54
23.42
22.79
22.62
22.77
23.04
23.28
23.32
23.03
22.33
21.08
19.22
16.72
13.64
10.05
6.03
1.66
-2.95
-7.63
-12.17
-16.37
-20.09
-23.36
-26.36
-29.35
-32.66
-36.50
-41.02
-46.15
-51.69
-57.20
-61.99
-65.15
-65.73
-63.03
-56.87
-47.70
-36.51
-24.53
-12.85
-2.27
6.85
14.40
20.43
24.97
28.09
29.90
30.62
30.57
30.11
29.62
29.32
29.32
29.57
29.93
30.25
30.42
30.45
30.34
30.05
29.43
28.28
26.40
23.76
20.47
16.75
12.82
8.75
4.56
0.23
-4.21
-8.60
-12.77
-16.58
-19.98
-23.05
-25.99
-29.00
-32.36
-36.35
-41.20
-46.88
-53.02
-58.76
-62.90
-64.20
-61.80
-55.56
-46.07
-34.48
-22.18
-10.42
-0.09
8.35
14.83
19.50
22.55
24.18
24.55
23.84
22.32
20.38
18.49
17.10
16.53
16.78
17.67
18.83
19.92
20.67
20.94
20.66
19.83
18.44
16.46
13.96
10.99
7.66
4.08
0.39
-3.28
-6.75
-9.86
-12.45
-14.43
-15.89
-17.11
-18.52
-20.57
-23.55
-27.37
-31.54
-35.16
-37.16
-36.58
-32.87
-26.05
-16.78
-6.13
4.63
14.44
22.50
28.43
32.14
33.70
33.34
31.37
28.35
24.99
22.07
20.26
19.86
20.74
22.39
24.16
25.50
26.10
25.89
24.94
23.33
21.11
18.30
14.97
11.22
7.23
3.10
-1.04
-5.13
-9.10
-12.82
-16.18
-19.09
-21.60
-23.94
-26.48
-29.64
-33.76
-38.97
-45.05
-51.41
-57.11
-60.99
-61.97
-59.33
-52.94
-43.30
-31.51
-18.91
-6.80
3.86
12.57
19.23
24.05
27.32
29.32
30.23
30.26
29.61
28.65
27.74
27.22
27.26
27.78
28.53
29.18
29.45
29.15
28.22
26.61
24.32
21.36
17.81
13.81
9.58
5.33
1.20
-2.72
-6.44
-10.01
-13.49
-16.91
-20.24
-23.44
-26.48
-29.46
-32.58
-36.11
-40.22
-44.82
-49.37
-52.93
-54.44
-52.93
-47.96
-39.72
-29.02
-17.00
-4.86
6.41
16.18
24.15
30.30
34.74
37.64
39.20
39.64
39.20
38.17
36.88
35.65
34.75
34.35
34.40
34.73
35.01
34.92
34.18
32.67
30.36
27.37
23.88
20.10
16.22
12.37
8.67
5.14
1.78
-1.52
-4.90
-8.52
-12.45
-16.60
-20.79
-24.76
-28.39
-31.74
-35.13
-38.98
-43.58
-48.78
-53.87
-57.68
-58.83
-56.24
-49.49
-38.99
-25.88
-11.70
2.04
14.26
24.36
32.13
37.58
40.79
41.90
41.17
39.10
36.35
33.70
31.71
30.68
30.50
30.82
31.21
31.39
31.25
30.90
30.43
29.85
29.03
27.71
25.71
22.93
19.45
15.51
11.33
7.08
2.80
-1.57
-6.07
-10.72
-15.38
-19.84
-23.93
-27.60
-30.94
-34.21
-37.73
-41.71
-46.11
-50.61
-54.50
-56.86
-56.76
-53.50
-46.89
-37.32
-25.68
-13.19
-1.06
9.73
18.51
25.02
29.23
31.32
31.62
30.58
28.76
26.73
24.94
23.73
23.24
23.47
24.28
25.44
26.68
27.73
28.35
28.39
27.78
26.49
24.56
22.05
19.04
15.70
12.19
8.67
5.23
1.81
-1.74
-5.57
-9.67
-13.84
-17.74
-21.03
-23.53
-25.32
-26.73
-28.24
-30.33
-33.32
-37.31
-42.12
-47.26
-51.88
-54.92
-55.27
-52.11
-45.14
-34.84
-22.29
-8.99
3.63
14.51
23.09
29.23
33.04
34.74
34.63
33.15
30.87
28.47
26.60
25.65
25.68
26.49
27.70
28.93
29.92
30.57
30.91
30.97
30.74
30.11
28.88
26.87
24.00
20.39
16.36
12.32
8.61
5.36
2.40
-0.60
-3.98
-7.92
-12.32
-16.91
-21.38
-25.48
-29.11
-32.30
-35.15
-37.83
-40.60
-43.69
-47.27
-51.22
-54.93
-57.43
-57.55
-54.42
-47.78
-38.11
-26.49
-14.20
-2.34
8.31
17.37
24.62
29.92
33.16
34.34
33.66
31.60
28.85
26.13
24.04
22.90
22.74
23.33
24.34
25.42
26.26
26.65
26.50
25.74
24.42
22.58
20.22
17.36
14.01
10.28
6.40
2.59
-0.98
-4.30
-7.55
-10.94
-14.57
-18.30
-21.81
-24.79
-27.06
-28.75
-30.18
-31.76
-33.84
-36.58
-39.99
-43.86
-47.72
-50.86
-52.37
-51.38
-47.27
-39.98
-29.98
-18.30
-6.18
5.18
14.84
22.23
27.13
29.62
29.98
28.67
26.24
23.34
20.58
18.46
17.31
17.22
18.08
19.60
21.44
23.24
24.75
25.78
26.23
26.02
25.08
23.38
20.97
17.96
14.56
10.98
7.40
3.84
0.30
-3.28
-6.91
-10.55
-14.10
-17.54
-20.85
-24.04
-27.10
-30.01
-32.77
-35.57
-38.69
-42.48
-47.01
-51.89
-56.20
-58.69
-58.20
-54.11
-46.53
-36.32
-24.76
-13.24
-2.85
5.65
11.93
15.94
17.86
18.08
17.09
15.53
13.99
12.95
12.66
13.11
14.09
15.27
16.40
17.34
18.16
19.03
20.13
21.43
22.73
23.65
23.75
22.71
20.42
17.08
13.06
8.86
4.87
1.37
-1.56
-4.03
-6.23
-8.39
-10.74
-13.50
-16.81
-20.72
-25.08
-29.43
-33.11
-35.27
-35.19
-32.42
-26.98
-19.31
-10.18
-0.49
8.92
17.42
24.52
29.94
33.43
34.89
34.35
32.05
28.47
24.28
20.21
16.93
14.94
14.45
15.47
17.75
20.90
24.36
27.52
29.77
30.61
29.76
27.20
23.16
18.04
12.26
6.24
0.32
-5.24
-10.21
-14.46
-17.94
-20.74
-23.11
-25.40
-27.95
-31.04
-34.76
-39.01
-43.52
-47.83
-51.34
-53.42
-53.41
-50.78
-45.32
-37.15
-26.85
-15.28
-3.49
7.52
16.91
24.14
29.01
31.51
31.85
30.44
27.81
24.59
21.46
19.06
17.82
17.91
19.11
20.94
22.74
23.89
23.96
22.86
20.79
18.09
15.08
11.87
8.43
4.63
0.38
-4.20
-8.85
-13.26
-17.21
-20.64
-23.70
-26.67
-29.83
-33.49
-37.89
-43.15
-49.11
-55.27
-60.69
-64.24
-64.83
-61.76
-55.01
-45.22
-33.58
-21.41
-9.86
0.32
8.76
15.44
20.44
23.90
26.02
27.08
27.48
27.68
28.09
28.94
30.18
31.56
32.71
33.36
33.41
32.96
32.16
31.13
29.88
28.25
26.01
23.00
19.19
14.77
10.03
5.32
0.87
-3.25
-7.17
-11.15
-15.51
-20.46
-26.02
-31.95
-37.61
-42.10
-44.34
-43.39
-38.74
-30.52
-19.58
-7.19
5.18
16.35
25.53
32.46
37.20
39.97
40.98
40.46
38.77
36.43
34.09
32.46
31.99
32.70
34.20
35.79
36.74
36.59
35.20
32.74
29.53
25.89
22.08
18.28
14.63
11.19
7.92
4.66
1.21
-2.61
-6.75
-10.96
-14.87
-18.17
-20.83
-23.03
-25.25
-27.96
-31.56
-36.27
-42.00
-48.33
-54.44
-59.18
-61.25
-59.65
-53.93
-44.44
-32.17
-18.55
-5.03
7.22
17.41
25.17
30.43
33.34
34.27
33.71
32.24
30.44
28.75
27.50
26.85
26.83
27.39
28.43
29.78
31.23
32.52
33.36
33.49
32.70
30.91
28.17
24.63
20.55
16.19
11.81
7.57
3.55
-0.28
-3.99
-7.58
-10.98
-14.05
-16.64
-18.74
-20.54
-22.47
-25.05
-28.71
-33.55
-39.21
-44.81
-49.18
-51.08
-49.62
-44.50
-36.09
-25.39
-13.65
-2.14
8.21
16.85
23.62
28.52
31.60
32.93
32.62
30.99
28.49
25.77
23.47
22.02
21.58
22.03
23.06
24.26
25.27
25.84
25.81
25.15
23.88
22.07
19.79
17.08
13.92
10.30
6.29
2.06
-2.14
-6.07
-9.57
-12.68
-15.54
-18.41
-21.49
-24.96
-28.89
-33.20
-37.68
-41.86
-45.07
-46.48
-45.33
-41.14
-33.96
-24.40
-13.45
-2.32
7.96
16.62
23.24
27.69
30.00
30.32
29.01
26.58
23.69
21.09
19.32
18.66
19.01
20.01
21.27
22.45
23.35
23.85
23.85
23.19
21.81
19.75
17.18
14.31
11.33
8.27
5.08
1.66
-2.08
-6.10
-10.28
-14.51
-18.65
-22.65
-26.43
-29.96
-33.25
-36.47
-39.88
-43.80
-48.39
-53.44
-58.28
-61.77
-62.64
-59.90
-53.21
-43.07
-30.63
-17.37
-4.69
6.45
15.56
22.57
27.62
30.90
32.62
33.03
32.48
31.41
30.26
29.40
28.97
28.91
29.01
29.03
28.84
28.44
27.93
27.32
26.53
25.39
23.65
21.19
18.06
14.47
10.70
7.01
3.52
0.22
-3.00
-6.25
-9.55
-12.75
-15.64
-18.03
-19.85
-21.24
-22.54
-24.20
-26.67
-30.25
-35.00
-40.67
-46.69
-52.16
-55.95
-56.94
-54.28
-47.69
-37.65
-25.31
-12.21
0.20
10.87
19.34
25.61
29.90
32.48
33.55
33.32
32.13
30.50
29.00
28.08
27.94
28.43
29.24
30.05
30.69
31.12
31.40
31.52
31.32
30.59
29.09
26.72
23.61
20.05
16.40
12.97
9.87
7.04
4.23
1.19
-2.28
-6.15
-10.28
-14.39
-18.19
-21.48
-24.26
-26.70
-29.18
-32.10
-35.81
-40.40
-45.53
-50.47
-54.15
-55.47
-53.63
-48.34
-39.98
-29.49
-18.08
-6.90
3.21
11.83
18.92
24.57
28.78
31.48
32.54
31.99
30.15
27.64
25.21
23.52
22.91
23.36
24.59
26.22
27.89
29.37
30.44
30.98
30.81
29.84
28.01
25.39
22.11
18.40
14.54
10.80
7.42
4.46
1.83
-0.77
-3.63
-6.94
-10.64
-14.48
-18.11
-21.27
-23.89
-26.12
-28.25
-30.64
-33.58
-37.30
-41.81
-46.88
-51.97
-56.25
-58.75
-58.55
-55.08
-48.29
-38.70
-27.29
-15.24
-3.69
6.55
14.99
21.52
26.20
29.12
30.42
30.20
28.80
26.70
24.56
23.03
22.55
23.17
24.58
26.25
27.61
28.33
28.30
27.63
26.55
25.22
23.74
22.09
20.23
18.08
15.62
12.84
9.80
6.63
3.44
0.41
-2.38
-4.89
-7.19
-9.46
-11.89
-14.61
-17.67
-21.04
-24.58
-28.16
-31.64
-34.93
-38.08
-41.21
-44.53
-48.23
-52.35
-56.55
-60.13
-62.11
-61.46
-57.50
-50.12
-39.85
-27.73
-15.01
-2.87
7.82
16.49
22.83
26.75
28.38
28.04
26.29
23.89
21.62
20.19
19.99
21.08
23.24
26.06
29.05
31.73
33.71
34.74
34.74
33.84
32.30
30.39
28.33
26.23
24.10
21.90
19.58
17.13
14.59
12.03
9.53
7.19
5.05
3.08
1.18
-0.77
-2.90
-5.24
-7.74
-10.33
-12.93
-15.52
-18.18
-21.06
-24.36
-28.32
-33.00
-38.21
-43.37
-47.57
-49.74
-49.01
-44.94
-37.69
-27.99
-16.85
-5.38
5.45
14.91
22.48
27.90
31.16
32.45
32.24
31.09
29.59
28.22
27.32
27.05
27.38
28.12
29.00
29.71
30.03
29.83
29.16
28.21
27.16
26.15
25.14
24.00
22.52
20.49
17.81
14.53
10.87
7.15
3.65
0.56
-2.16
-4.72
-7.40
-10.39
-13.68
-17.10
-20.34
-23.16
-25.52
-27.59
-29.76
-32.43
-35.90
-40.25
-45.22
-50.27
-54.61
-57.29
-57.42
-54.42
-48.13
-38.97
-27.83
-15.93
-4.48
5.48
13.34
18.91
22.29
23.81
23.80
22.66
20.78
18.61
16.66
15.37
15.00
15.58
16.91
18.64
20.40
21.92
23.06
23.79
24.11
23.97
23.23
21.79
19.52
16.50
12.95
9.23
5.69
2.56
-0.14
-2.57
-4.92
-7.32
-9.80
-12.30
-14.71
-16.95
-19.02
-20.93
-22.82
-24.91
-27.49
-30.91
-35.37
-40.82
-46.79
-52.36
-56.34
-57.56
-55.20
-49.05
-39.61
-27.91
-15.31
-3.07
7.80
16.71
23.37
27.75
29.97
30.25
29.00
26.74
24.02
21.34
19.02
17.12
15.58
14.29
13.22
12.43
12.00
11.93
12.07
12.18
11.99
11.35
10.33
9.19
8.24
7.67
7.50
7.47
7.18
6.20
4.27
1.37
-2.22
-6.08
-9.74
-12.93
-15.62
-18.02
-20.53
-23.55
-27.35
-32.01
-37.25
-42.48
-46.83
-49.26
-48.81
-44.89
-37.46
-27.13
-15.04
-2.61
8.84
18.32
25.29
29.67
31.69
31.81
30.52
28.34
25.69
22.92
20.36
18.27
16.87
16.25
16.40
17.12
18.12
19.07
19.73
19.94
19.63
18.72
17.17
14.97
12.16
8.90
5.43
1.97
-1.32
-4.38
-7.27
-10.05
-12.75
-15.40
-18.04
-20.74
-23.64
-26.86
-30.55
-34.79
-39.55
-44.59
-49.40
-53.19
-55.04
-54.12
-49.93
-42.49
-32.41
-20.74
-8.69
2.57
12.20
19.76
25.10
28.32
29.64
29.31
27.67
25.21
22.52
20.21
18.82
18.57
19.40
20.93
22.72
24.32
25.43
25.90
25.70
24.85
23.49
21.71
19.64
17.33
14.82
12.14
9.30
6.39
3.42
0.40
-2.77
-6.18
-9.81
-13.56
-17.17
-20.44
-23.34
-26.13
-29.23
-32.99
-37.47
-42.28
-46.63
-49.49
-49.97
-47.47
-41.89
-33.58
-23.27
-11.90
-0.50
9.99
18.78
25.43
29.83
32.18
32.89
32.50
31.48
30.23
29.07
28.24
27.92
28.18
29.03
30.30
31.73
32.95
33.62
33.51
32.54
30.79
28.47
25.79
22.91
19.92
16.80
13.53
10.12
6.61
3.10
-0.34
-3.65
-6.86
-10.06
-13.39
-16.97
-20.92
-25.26
-29.88
-34.56
-38.92
-42.38
-44.26
-43.89
-40.79
-34.83
-26.34
-16.05
-5.01
5.73
15.29
23.08
28.84
32.53
34.28
34.29
32.83
30.27
27.13
24.00
21.49
20.02
19.74
20.50
21.87
23.35
24.48
25.01
24.90
24.31
23.47
22.54
21.50
20.24
18.60
16.46
13.85
10.86
7.63
4.24
0.75
-2.76
-6.22
-9.53
-12.66
-15.70
-18.87
-22.40
-26.37
-30.56
-34.40
-37.10
-37.85
-36.10
-31.66
-24.81
-16.19
-6.67
2.84
11.50
18.61
23.68
26.43
26.92
25.45
22.61
19.08
15.49
12.38
10.03
8.55
7.97
8.17
8.98
10.13
11.28
12.12
12.42
12.04
10.98
9.24
6.91
4.12
1.06
-1.96
-4.68
-6.92
-8.75
-10.41
-12.28
-14.74
-18.11
-22.51
-27.89
-33.96
-40.15
-45.66
-49.53
-50.85
-49.09
-44.19
-36.65
-27.32
-17.23
-7.31
1.67
9.13
14.69
18.10
19.38
18.85
17.18
15.19
13.68
13.23
14.01
15.84
18.28
20.84
23.07
24.71
25.63
25.85
25.41
24.36
22.72
20.44
17.49
13.85
9.67
5.18
0.71
-3.46
-7.22
-10.63
-13.89
-17.32
-21.20
-25.75
-31.01
-36.74
-42.31
-46.78
-49.04
-48.15
-43.69
-35.84
-25.41
-13.61
-1.66
9.39
18.81
26.15
31.28
34.24
35.27
34.73
33.11
30.87
28.49
26.32
24.61
23.42
22.72
22.36
22.15
21.89
21.46
20.77
19.87
18.82
17.65
16.30
14.60
12.34
9.44
5.97
2.19
-1.54
-4.95
-7.91
-10.51
-12.97
-15.51
-18.35
-21.59
-25.27
-29.22
-33.06
-36.18
-37.83
-37.30
-34.16
-28.44
-20.64
-11.64
-2.43
6.07
13.15
18.43
21.74
23.17
22.98
21.52
19.29
16.77
14.38
12.48
11.29
10.86
11.12
11.85
12.74
13.45
13.73
13.45
12.63
11.36
9.71
7.69
5.19
2.18
-1.30
-5.00
-8.62
-11.83
-14.47
-16.56
-18.31
-20.01
-21.96
-24.38
-27.28
-30.42
-33.29
-35.17
-35.27
-33.04
-28.30
-21.36
-13.00
-4.24
3.90
10.64
15.56
18.63
20.07
20.25
19.54
18.26
16.68
15.04
13.58
12.55
12.09
12.22
12.78
13.51
14.14
14.48
14.48
14.14
13.53
12.60
11.27
9.34
6.68
3.27
-0.74
-5.04
-9.25
-13.09
-16.42
-19.31
-21.98
-24.74
-27.85
-31.44
-35.43
-39.42
-42.73
-44.52
-43.96
-40.53
-34.17
-25.41
-15.24
-4.88
4.53
12.15
17.62
20.99
22.57
22.77
21.95
20.45
18.53
16.45
14.52
12.99
12.03
11.60
11.51
11.46
11.18
10.50
9.42
7.97
6.20
4.02
1.24
-2.38
-6.97
-12.43
-18.37
-24.18
-29.19
-32.91
-35.18
-36.25
-36.67
-37.10
-38.12
-40.06
-42.90
-46.27
-49.50
-51.77
-52.24
-50.28
-45.64
-38.53
-29.60
-19.74
-9.91
-0.85
6.97
13.40
18.45
22.20
24.72
26.07
26.31
25.59
24.19
22.50
20.96
19.96
19.73
20.26
21.33
22.55
23.50
23.83
23.37
22.05
19.88
16.87
13.02
8.37
3.02
-2.79
-8.71
-14.32
-19.32
-23.54
-27.07
-30.19
-33.25
-36.59
-40.40
-44.67
-49.12
-53.23
-56.31
-57.54
-56.19
-51.81
-44.36
-34.33
-22.69
-10.66
0.59
10.19
17.75
23.31
27.15
29.61
30.94
31.28
30.81
29.78
28.63
27.83
27.76
28.53
29.92
31.46
32.68
33.21
33.00
32.21
31.09
29.80
28.33
26.51
24.07
20.84
16.77
12.05
6.99
1.97
-2.68
-6.77
-10.26
-13.31
-16.15
-19.11
-22.42
-26.19
-30.29
-34.34
-37.65
-39.39
-38.73
-35.14
-28.61
-19.66
-9.29
1.35
11.23
19.67
26.33
31.15
34.19
35.57
35.51
34.35
32.59
30.83
29.62
29.30
29.91
31.20
32.74
34.08
34.89
34.98
34.37
33.15
31.43
29.26
26.65
23.57
20.06
16.18
12.13
8.11
4.29
0.75
-2.53
-5.62
-8.65
-11.78
-15.21
-19.14
-23.72
-28.91
-34.40
-39.56
-43.48
-45.23
-44.01
-39.48
-31.81
-21.73
-10.31
1.26
11.87
20.71
27.22
31.17
32.58
31.71
29.07
25.43
21.63
18.50
16.65
16.28
17.27
19.18
21.43
23.49
24.97
25.67
25.54
24.66
23.11
20.99
18.39
15.39
12.08
8.57
5.00
1.49
-1.86
-4.99
-7.88
-10.60
-13.25
-16.01
-19.06
-22.48
-26.25
-30.11
-33.62
-36.19
-37.18
-36.03
-32.40
-26.31
-18.17
-8.77
0.91
9.88
17.30
22.64
25.67
26.49
25.41
22.97
19.79
16.51
13.71
11.77
10.87
10.94
11.73
12.96
14.31
15.54
16.52
17.16
17.42
17.17
16.28
14.59
12.00
8.56
4.49
0.13
-4.13
-8.00
-11.33
-14.17
-16.68
-19.17
-21.93
-25.13
-28.79
-32.58
-35.89
-37.94
-37.95
-35.40
-30.19
-22.73
-13.77
-4.22
5.04
13.29
20.02
24.95
27.93
28.96
28.27
26.27
23.59
20.88
18.65
17.15
16.32
15.92
15.68
15.45
15.20
14.97
14.76
14.50
14.00
13.11
11.68
9.65
7.08
4.06
0.73
-2.71
-6.08
-9.20
-11.98
-14.47
-16.84
-19.38
-22.42
-26.13
-30.32
-34.48
-37.75
-39.19
-38.06
-34.05
-27.46
-19.05
-9.80
-0.70
7.51
14.37
19.74
23.63
26.12
27.30
27.22
25.97
23.76
20.91
17.86
15.07
12.86
11.40
10.69
10.63
11.06
11.82
12.70
13.38
13.55
12.85
11.11
8.34
4.79
0.86
-3.03
-6.49
-9.30
-11.42
-13.01
-14.46
-16.19
-18.62
-21.85
-25.57
-29.08
-31.43
-31.71
-29.37
-24.38
-17.24
-8.79
0.03
8.48
16.03
22.43
27.51
31.11
33.01
33.13
31.57
28.80
25.50
22.46
20.24
19.08
18.86
19.19
19.62
19.84
19.61
18.83
17.39
15.20
12.20
8.43
4.07
-0.56
-5.10
-9.24
-12.86
-16.02
-18.93
-21.89
-25.08
-28.60
-32.28
-35.78
-38.55
-39.95
-39.35
-36.33
-30.85
-23.29
-14.48
-5.43
2.84
9.59
14.48
17.49
18.82
18.72
17.50
15.48
13.07
10.73
8.87
7.74
7.38
7.65
8.29
9.09
9.85
10.42
10.63
10.29
9.25
7.42
4.90
1.87
-1.41
-4.73
-8.00
-11.27
-14.68
-18.39
-22.52
-26.93
-31.29
-35.00
-37.38
-37.79
-35.82
-31.40
-24.83
-16.74
-7.96
0.60
8.18
14.17
18.26
20.40
20.73
19.58
17.42
14.76
12.10
9.88
8.32
7.45
7.10
7.02
7.00
6.88
6.63
6.22
5.63
4.74
3.38
1.38
-1.32
-4.63
-8.27
-11.92
-15.29
-18.28
-20.98
-23.72
-26.78
-30.38
-34.39
-38.33
-41.46
-42.96
-42.17
-38.77
-32.90
-25.07
-16.07
-6.77
2.04
9.79
16.15
20.96
24.30
26.26
27.03
26.80
25.82
24.41
22.93
21.73
21.02
20.83
20.98
21.19
21.17
20.76
19.94
18.75
17.26
15.43
13.15
10.30
6.89
3.09
-0.80
-4.50
-7.81
-10.75
-13.49
-16.30
-19.37
-22.82
-26.62
-30.63
-34.53
-37.89
-40.15
-40.70
-39.06
-35.02
-28.81
-21.00
-12.36
-3.71
4.32
11.34
17.16
21.74
25.09
27.25
28.30
28.38
27.69
26.53
25.20
24.00
23.14
22.64
22.39
22.16
21.77
21.08
20.10
18.90
17.55
16.01
14.19
12.01
9.40
6.45
3.26
-0.01
-3.32
-6.62
-9.94
-13.25
-16.55
-19.86
-23.21
-26.68
-30.28
-33.86
-37.10
-39.50
-40.47
-39.52
-36.38
-31.13
-24.15
-16.08
-7.67
0.38
7.53
13.46
18.00
21.11
22.80
23.13
22.34
20.78
18.96
17.37
16.37
16.04
16.22
16.57
16.78
16.66
16.22
15.56
14.76
13.84
12.71
11.20
9.18
6.58
3.46
-0.01
-3.57
-6.96
-9.95
-12.49
-14.65
-16.69
-18.88
-21.52
-24.73
-28.46
-32.38
-35.91
-38.35
-38.93
-37.09
-32.70
-26.07
-17.94
-9.26
-0.85
6.68
13.03
18.11
21.84
24.21
25.23
25.07
24.06
22.60
21.11
19.84
18.95
18.47
18.42
18.75
19.37
20.07
20.61
20.70
20.14
18.80
16.71
14.01
10.86
7.50
4.10
0.76
-2.45
-5.54
-8.44
-11.08
-13.45
-15.66
-17.99
-20.76
-24.20
-28.19
-32.28
-35.73
-37.70
-37.56
-35.00
-30.08
-23.19
-14.97
-6.13
2.55
10.47
17.15
22.35
25.98
28.05
28.64
27.89
26.13
23.78
21.41
19.50
18.33
17.88
17.86
17.88
17.65
17.07
16.19
15.13
13.93
12.47
10.54
8.02
4.91
1.40
-2.25
-5.79
-9.06
-12.06
-14.86
-17.57
-20.27
-23.03
-25.94
-29.08
-32.50
-36.07
-39.45
-42.04
-43.17
-42.24
-38.98
-33.55
-26.51
-18.61
-10.63
-3.16
3.47
9.08
13.61
16.96
19.03
19.79
19.39
18.13
16.47
14.89
13.75
13.24
13.29
13.72
14.30
14.82
15.14
15.18
14.89
14.27
13.34
12.16
10.75
9.17
7.48
5.71
3.93
2.16
0.35
-1.57
-3.76
-6.30
-9.28
-12.68
-16.46
-20.45
-24.43
-28.05
-30.79
-32.09
-31.40
-28.42
-23.17
-16.07
-7.82
0.71
8.71
15.50
20.66
23.98
25.50
25.42
24.03
21.76
19.06
16.31
13.89
12.03
10.85
10.36
10.46
11.01
11.80
12.67
13.43
13.89
13.89
13.31
12.13
10.47
8.51
6.46
4.42
2.39
0.25
-2.15
-4.86
-7.81
-10.80
-13.62
-16.12
-18.36
-20.57
-23.07
-26.16
-29.96
-34.30
-38.69
-42.43
-44.74
-44.93
-42.57
-37.62
-30.43
-21.74
-12.43
-3.46
4.48
10.97
15.88
19.32
21.44
22.40
22.35
21.52
20.24
18.92
17.89
17.38
17.41
17.85
18.47
19.10
19.59
19.84
19.80
19.34
18.40
16.94
14.95
12.51
9.76
6.89
4.04
1.31
-1.30
-3.84
-6.37
-8.91
-11.44
-13.91
-16.29
-18.61
-20.96
-23.47
-26.23
-29.15
-32.00
-34.34
-35.63
-35.33
-33.11
-28.87
-22.86
-15.58
-7.71
0.03
7.00
12.77
17.10
19.95
21.43
21.75
21.21
20.16
18.94
17.86
17.10
16.74
16.71
16.89
17.15
17.35
17.38
17.17
16.65
15.76
14.48
12.83
10.90
8.76
6.43
3.90
1.11
-1.95
-5.24
-8.60
-11.81
-14.67
-17.08
-19.08
-20.81
-22.48
-24.33
-26.55
-29.29
-32.54
-36.05
-39.31
-41.57
-42.04
-40.12
-35.65
-28.93
-20.70
-11.88
-3.37
4.19
10.43
15.27
18.74
20.89
21.79
21.49
20.15
18.14
15.95
14.14
13.15
13.17
14.09
15.55
17.12
18.45
19.36
19.76
19.67
19.11
18.09
16.58
14.58
12.14
9.38
6.48
3.56
0.74
-1.99
-4.67
-7.37
-10.09
-12.84
-15.58
-18.31
-21.10
-24.06
-27.26
-30.60
-33.76
-36.17
-37.13
-36.03
-32.49
-26.58
-18.79
-9.97
-1.09
7.00
13.73
18.78
22.07
23.67
23.71
22.43
20.18
17.42
14.60
12.11
10.23
9.04
8.51
8.52
8.91
9.49
10.03
10.35
10.27
9.70
8.66
7.24
5.52
3.52
1.27
-1.22
-3.89
-6.65
-9.36
-11.89
-14.18
-16.22
-18.08
-19.89
-21.78
-23.92
-26.48
-29.53
-32.94
-36.34
-39.12
-40.56
-39.97
-36.98
-31.58
-24.20
-15.59
-6.59
1.97
9.47
15.51
19.88
22.55
23.66
23.51
22.50
21.08
19.74
18.87
18.71
19.36
20.71
22.47
24.21
25.50
25.91
25.24
23.45
20.71
17.30
13.52
9.59
5.61
1.63
-2.33
-6.14
-9.63
-12.54
-14.65
-15.88
-16.39
-16.60
-17.06
-18.32
-20.72
-24.30
-28.74
-33.41
-37.40
-39.77
-39.66
-36.52
-30.31
-21.55
-11.27
-0.75
8.76
16.35
21.56
24.38
25.16
24.44
22.79
20.79
18.91
17.53
16.83
16.81
17.32
18.13
18.95
19.56
19.84
19.77
19.43
18.91
18.26
17.45
16.45
15.14
13.45
11.35
8.78
5.74
2.24
-1.62
-5.65
-9.57
-13.12
-16.19
-18.86
-21.41
-24.17
-27.34
-30.83
-34.25
-36.98
-38.32
-37.64
-34.58
-29.11
-21.61
-12.77
-3.48
5.36
13.03
19.10
23.45
26.18
27.46
27.55
26.69
25.26
23.66
22.33
21.60
21.55
22.03
22.67
23.12
23.14
22.68
21.88
20.95
20.03
19.14
18.13
16.75
14.76
11.94
8.31
3.99
-0.65
-5.22
-9.31
-12.67
-15.27
-17.26
-18.98
-20.83
-23.12
-26.03
-29.43
-32.88
-35.66
-36.96
-36.10
-32.78
-27.10
-19.57
-10.88
-1.79
7.01
14.96
21.62
26.71
30.12
31.93
32.37
31.78
30.49
28.77
26.87
25.00
23.35
22.05
21.13
20.50
20.01
19.48
18.80
17.89
16.69
15.19
13.35
11.13
8.49
5.37
1.78
-2.24
-6.49
-10.68
-14.45
-17.49
-19.66
-21.05
-21.99
-22.93
-24.25
-26.19
-28.78
-31.75
-34.67
-36.94
-37.88
-36.85
-33.40
-27.41
-19.28
-9.80
0.01
9.12
16.81
22.69
26.64
28.69
28.91
27.48
24.75
21.37
18.20
16.10
15.63
16.88
19.39
22.39
25.07
26.86
27.56
27.29
26.33
24.93
23.24
21.24
18.86
16.06
12.85
9.34
5.56
1.54
-2.83
-7.62
-12.86
-18.49
-24.33
-30.13
-35.60
-40.40
-44.09
-46.16
-46.10
-43.59
-38.59
-31.48
-23.08
-14.36
-6.29
0.49
5.68
9.32
11.61
12.76
12.97
12.43
11.49
10.60
10.26
10.86
12.42
14.63
16.89
18.57
19.27
18.93
17.77
16.16
14.39
12.57
10.58
8.19
5.16
1.43
-2.85
-7.34
-11.63
-15.40
-18.51
-21.04
-23.18
-25.21
-27.37
-29.79
-32.51
-35.37
-38.07
-40.08
-40.75
-39.47
-35.85
-29.88
-21.99
-12.96
-3.71
4.82
11.95
17.26
20.67
22.33
22.54
21.64
19.95
17.80
15.49
13.41
11.90
11.27
11.64
12.93
14.83
16.95
18.89
20.39
21.30
21.57
21.16
20.05
18.19
15.60
12.36
8.67
4.79
1.00
-2.48
-5.55
-8.27
-10.92
-13.84
-17.39
-21.77
-26.92
-32.49
-37.83
-42.19
-44.77
-44.90
-42.16
-36.49
-28.21
-18.08
-7.14
3.52
12.97
20.60
26.17
29.79
31.70
32.21
31.58
30.01
27.73
25.00
22.13
19.44
17.21
15.57
14.49
13.82
13.37
13.01
12.67
12.35
12.04
11.68
11.17
10.37
9.18
7.55
5.50
3.11
0.53
-2.02
-4.32
-6.21
-7.61
-8.62
-9.42
-10.28
-11.50
-13.32
-15.92
-19.34
-23.34
-27.29
-30.18
-30.75
-27.95
-21.38
-11.45
0.65
13.42
25.59
36.39
45.62
53.32
59.40
63.44
64.91
63.55
59.78
54.67
49.58
45.46
42.43
39.71
36.04
30.43
22.64
13.29
3.53
-5.55
-13.39
-19.99
-25.70
-30.84
-35.41
-39.17
-41.87
-43.46
-44.30
-44.94
-46.00
-47.88
-50.72
-54.26
-58.00
-61.19
-63.03
-62.72
-59.77
-54.08
-46.03
-36.33
-25.86
-15.44
-5.63
3.19
10.84
17.18
22.17
25.85
28.34
29.85
30.65
31.02
31.22
31.53
32.18
33.36
35.12
37.36
39.77
41.88
43.16
43.22
42.05
40.20
38.67
38.60
40.70
44.73
49.32
52.36
51.76
46.33
36.37
23.57
10.50
-0.29
-6.76
-7.79
-3.22
5.96
17.59
28.43
34.89
34.13
25.27
9.87
-8.48
-25.55
-38.08
-44.82
-46.56
-45.26
-42.89
-40.64
-38.78
-37.08
-35.28
-33.34
-31.28
-29.01
-26.16
-22.20
-16.71
-9.73
-1.75
6.37
13.75
19.80
24.43
28.02
31.19
34.52
38.39
42.90
47.98
53.28
58.18
61.71
62.58
59.50
51.61
38.93
22.45
3.87
-14.97
-32.66
-48.46
-62.21
-73.92
-83.38
-90.07
-93.31
-92.66
-88.18
-80.54
-70.86
-60.37
-50.12
-40.84
-32.85
-26.24
-20.99
-17.12
-14.77
-14.09
-15.15
-17.64
-20.70
-23.05
-23.34
-20.69
-15.20
-7.85
-0.25
6.11
10.35
12.41
12.76
11.99
10.47
8.29
5.50
2.37
-0.54
-2.60
-3.45
-3.36
-3.35
-4.83
-9.18
-17.06
-28.07
-40.74
-52.99
-62.87
-69.18
-71.71
-71.02
-67.95
-63.04
-56.41
-47.87
-37.30
-24.99
-11.67
1.67
14.15
25.18
34.62
42.52
48.97
53.95
57.35
59.14
59.66
59.67
60.25
62.43
66.78
73.18
80.87
88.73
95.66
100.93
104.31
105.91
106.09
105.23
103.53
100.90
96.99
91.20
82.87
71.43
56.71
39.03
19.15
-1.89
-23.03
-43.50
-62.85
-80.81
-97.02
-110.71
-120.66
-125.56
-124.51
-117.58
-106.00
-91.78
-77.13
-63.75
-52.41
-43.08
-35.36
-28.95
-23.89
-20.47
-18.87
-18.90
-19.93
-21.10
-21.64
-21.23
-20.04
-18.57
-17.44
-17.00
-17.23
-17.79
-18.20
-18.14
-17.60
-16.81
-16.13
-15.77
-15.60
-15.18
-13.86
-11.04
-6.42
-0.09
7.49
15.67
23.86
31.66
38.97
45.92
52.83
60.14
68.33
77.85
88.92
101.40
114.53
126.85
136.36
140.91
138.77
129.28
113.06
91.92
68.33
44.73
22.98
4.06
-11.78
-24.76
-35.24
-43.57
-50.00
-54.80
-58.20
-60.41
-61.50
-61.53
-60.52
-58.69
-56.41
-54.25
-52.71
-52.09
-52.39
-53.32
-54.50
-55.62
-56.56
-57.39
-58.32
-59.56
-61.20
-63.16
-65.07
-66.30
-66.06
-63.63
-58.53
-50.81
-41.04
-30.17
-19.29
-9.41
-1.29
4.61
8.06
9.08
7.90
5.01
1.10
-2.97
-6.42
-8.59
-9.15
-8.16
-5.94
-2.98
0.23
3.37
6.24
8.72
10.57
11.48
11.13
9.39
6.51
3.10
-0.16
-2.77
-4.71
-6.44
-8.63
-11.84
-16.28
-21.75
-27.78
-33.71
-38.92
-42.73
-44.52
-43.85
-40.51
-34.71
-27.04
-18.32
-9.38
-0.93
6.58
12.84
17.57
20.50
21.46
20.52
18.12
14.98
11.98
9.85
8.98
9.39
10.82
12.89
15.18
17.34
19.07
20.12
20.40
19.88
18.67
16.89
14.65
12.07
9.23
6.27
3.23
0.05
-3.54
-7.92
-13.40
-20.08
-27.74
-35.88
-43.78
-50.64
-55.60
-57.82
-56.64
-51.80
-43.61
-33.02
-21.36
-9.96
0.23
8.87
16.05
22.09
27.14
31.10
33.77
35.04
35.10
34.35
33.24
32.02
30.66
28.97
26.81
24.22
21.47
18.91
16.77
15.09
13.71
12.46
11.28
10.20
9.35
8.79
8.46
8.17
7.66
6.71
5.20
3.10
0.41
-2.99
-7.29
-12.68
-19.18
-26.49
-33.92
-40.51
-45.24
-47.26
-46.09
-41.66
-34.38
-24.99
-14.45
-3.80
6.04
14.37
20.78
25.13
27.48
28.07
27.27
25.65
23.87
22.63
22.41
23.40
25.36
27.73
29.84
31.12
31.29
30.44
28.91
27.12
25.39
23.79
22.23
20.45
18.28
15.61
12.46
8.93
5.18
1.38
-2.25
-5.48
-8.18
-10.42
-12.51
-14.85
-17.77
-21.27
-24.87
-27.78
-29.03
-27.91
-24.10
-17.84
-9.75
-0.69
8.46
17.01
24.44
30.47
34.93
37.80
39.13
39.10
38.03
36.33
34.52
33.06
32.30
32.33
33.03
34.02
34.87
35.20
34.77
33.61
31.84
29.72
27.41
24.97
22.32
19.33
15.89
12.01
7.84
3.61
-0.40
-3.96
-6.96
-9.50
-11.82
-14.22
-17.02
-20.36
-24.14
-28.01
-31.37
-33.56
-33.92
-32.01
-27.71
-21.26
-13.21
-4.33
4.53
12.61
19.38
24.58
28.21
30.46
31.59
31.89
31.65
31.12
30.55
30.14
29.97
29.94
29.79
29.14
27.70
25.39
22.43
19.25
16.32
13.97
12.30
11.16
10.26
9.31
8.10
6.57
4.79
2.89
0.92
-1.23
-3.82
-7.23
-11.73
-17.36
-23.79
-30.28
-35.79
-39.18
-39.48
-36.16
-29.31
-19.65
-8.38
3.10
13.56
22.13
28.41
32.33
33.98
33.44
30.83
26.46
20.98
15.38
10.79
8.08
7.56
8.84
11.08
13.34
15.01
15.89
16.12
15.83
14.99
13.30
10.37
6.00
0.33
-6.07
-12.38
-17.79
-21.68
-23.87
-24.58
-24.45
-24.22
-24.58
-25.85
-27.91
-30.22
-32.03
-32.64
-31.60
-28.80
-24.50
-19.15
-13.28
-7.35
-1.68
3.48
7.97
11.61
14.23
15.76
16.22
15.83
14.92
13.82
12.75
11.78
10.78
9.55
7.99
6.17
4.33
2.85
2.00
1.90
2.35
2.93
3.14
2.53
0.92
-1.60
-4.73
-8.13
-11.52
-14.85
-18.22
-21.77
-25.57
-29.55
-33.48
-37.01
-39.74
-41.25
-41.12
-39.03
-34.81
-28.57
-20.71
-11.91
-2.94
5.41
12.52
17.93
21.33
22.56
21.70
19.15
15.65
12.19
9.69
8.75
9.41
11.29
13.69
15.93
17.58
18.47
18.67
18.29
17.35
15.71
13.24
9.84
5.68
1.23
-2.87
-5.95
-7.61
-7.87
-7.19
-6.31
-5.99
-6.72
-8.62
-11.40
-14.52
-17.38
-19.44
-20.40
-20.10
-18.56
-15.91
-12.32
-8.08
-3.50
1.07
5.36
9.25
12.69
15.78
18.55
20.92
22.72
23.83
24.16
23.85
23.20
22.59
22.28
22.31
22.45
22.29
21.37
19.41
16.39
12.67
8.81
5.39
2.78
1.00
-0.26
-1.42
-2.84
-4.65
-6.77
-9.03
-11.35
-13.77
-16.53
-19.86
-23.92
-28.67
-33.89
-39.21
-44.22
-48.44
-51.37
-52.53
-51.52
-48.07
-42.24
-34.46
-25.45
-16.11
-7.32
0.23
6.17
10.43
13.15
14.59
15.05
14.80
14.15
13.37
12.72
12.41
12.54
13.12
14.05
15.15
16.21
17.09
17.71
18.06
18.15
17.92
17.25
16.03
14.24
12.05
9.78
7.79
6.31
5.29
4.39
3.13
1.10
-1.97
-6.03
-10.79
-15.69
-20.07
-23.25
-24.73
-24.26
-21.98
-18.35
-13.98
-9.50
-5.36
-1.77
1.22
3.61
5.36
6.36
6.52
5.82
4.38
2.51
0.53
-1.19
-2.47
-3.23
-3.49
-3.29
-2.64
-1.54
-0.08
1.50
2.84
3.53
3.27
2.00
-0.11
-2.72
-5.45
-8.09
-10.53
-12.84
-15.13
-17.47
-19.90
-22.41
-24.95
-27.38
-29.47
-30.84
-30.99
-29.43
-25.81
-20.10
-12.64
-4.15
4.44
12.26
18.62
23.19
25.97
27.15
27.05
25.97
24.19
22.03
19.84
17.97
16.60
15.79
15.30
14.84
14.11
12.99
11.58
10.10
8.75
7.57
6.40
4.94
2.90
0.21
-3.01
-6.37
-9.44
-11.90
-13.71
-15.11
-16.56
-18.52
-21.20
-24.50
-27.83
-30.41
-31.45
-30.45
-27.33
-22.39
-16.12
-9.02
-1.51
6.08
13.37
19.87
25.08
28.58
30.22
30.19
28.94
27.03
25.04
23.38
22.33
21.93
22.06
22.44
22.74
22.72
22.20
21.11
19.43
17.15
14.27
10.85
7.04
3.03
-0.97
-4.86
-8.65
-12.42
-16.31
-20.37
-24.60
-28.96
-33.33
-37.57
-41.44
-44.61
-46.62
-46.97
-45.20
-41.06
-34.64
-26.35
-16.95
-7.28
1.87
9.91
16.55
21.70
25.37
27.62
28.55
28.30
27.18
25.56
23.94
22.70
22.10
22.17
22.69
23.38
23.95
24.25
24.19
23.80
23.07
21.96
20.42
18.41
15.99
13.24
10.30
7.27
4.17
0.94
-2.59
-6.56
-11.10
-16.24
-21.87
-27.75
-33.52
-38.71
-42.81
-45.25
-45.55
-43.38
-38.69
-31.87
-23.69
-15.15
-7.24
-0.70
4.11
7.13
8.55
8.58
7.46
5.45
2.89
0.24
-2.02
-3.47
-3.90
-3.34
-2.00
-0.14
1.99
4.26
6.58
8.84
10.87
12.43
13.27
13.23
12.25
10.43
7.94
5.02
1.94
-1.07
-3.85
-6.36
-8.66
-10.90
-13.24
-15.83
-18.72
-21.87
-25.10
-28.07
-30.21
-30.87
-29.42
-25.51
-19.21
-11.12
-2.13
6.72
14.58
20.88
25.35
27.97
28.88
28.29
26.56
24.14
21.57
19.33
17.73
16.87
16.57
16.61
16.81
17.11
17.56
18.18
18.82
19.18
18.85
17.56
15.27
12.21
8.79
5.34
2.08
-0.98
-3.94
-6.91
-9.97
-13.17
-16.60
-20.26
-24.02
-27.53
-30.18
-31.29
-30.33
-27.19
-22.17
-15.91
-9.04
-2.09
4.58
10.70
15.90
19.78
21.93
22.23
20.90
18.50
15.76
13.31
11.49
10.34
9.72
9.41
9.31
9.35
9.50
9.67
9.67
9.29
8.37
6.85
4.78
2.32
-0.34
-3.04
-5.66
-8.16
-10.52
-12.82
-15.16
-17.66
-20.48
-23.74
-27.40
-31.24
-34.80
-37.44
-38.51
-37.49
-34.24
-28.95
-22.12
-14.42
-6.52
0.98
7.62
13.05
17.08
19.61
20.73
20.67
19.80
18.56
17.38
16.56
16.19
16.19
16.35
16.46
16.39
16.12
15.73
15.25
14.63
13.73
12.36
10.41
7.85
4.78
1.39
-2.13
-5.60
-8.84
-11.79
-14.50
-17.19
-20.19
-23.81
-28.16
-32.96
-37.60
-41.21
-42.93
-42.19
-38.81
-33.14
-25.88
-17.93
-10.17
-3.24
2.49
6.93
10.12
12.26
13.49
14.00
13.93
13.45
12.78
12.15
11.80
11.86
12.38
13.26
14.34
15.39
16.26
16.90
17.33
17.59
17.65
17.31
16.31
14.40
11.52
7.86
3.83
-0.12
-3.67
-6.70
-9.40
-12.09
-15.16
-18.86
-23.30
-28.38
-33.82
-39.16
-43.72
-46.75
-47.53
-45.59
-40.87
-33.80
-25.17
-15.94
-6.91
1.43
8.94
15.71
21.85
27.37
32.15
36.06
39.04
41.24
42.99
44.61
46.39
48.41
50.58
52.66
54.26
54.96
54.29
51.88
47.58
41.55
34.27
26.43
18.78
11.96
6.34
2.08
-0.92
-2.86
-4.03
-4.74
-5.30
-6.02
-7.19
-9.00
-11.59
-14.98
-19.06
-23.58
-28.05
-31.85
-34.23
-34.57
-32.54
-28.30
-22.41
-15.78
-9.37
-3.99
-0.09
2.22
3.10
2.86
1.86
0.45
-1.01
-2.19
-2.81
-2.67
-1.74
-0.15
1.81
3.77
5.36
6.41
6.86
6.82
6.44
5.81
4.86
3.46
1.49
-1.08
-4.13
-7.47
-10.88
-14.25
-17.55
-20.83
-24.13
-27.45
-30.78
-34.07
-37.27
-40.36
-43.26
-45.84
-47.83
-48.83
-48.36
-45.93
-41.24
-34.32
-25.55
-15.66
-5.48
4.16
12.61
19.44
24.37
27.31
28.32
27.63
25.76
23.33
21.01
19.34
18.56
18.62
19.24
20.09
20.90
21.49
21.84
21.90
21.62
20.92
19.71
17.95
15.69
13.05
10.10
6.90
3.47
-0.16
-3.90
-7.67
-11.45
-15.30
-19.40
-23.86
-28.58
-33.07
-36.54
-38.08
-36.96
-32.93
-26.28
-17.79
-8.44
0.75
8.99
15.67
20.49
23.30
24.22
23.62
22.06
20.26
18.88
18.40
18.92
20.18
21.68
22.90
23.49
23.40
22.83
22.05
21.25
20.40
19.34
17.81
15.67
12.97
9.90
6.72
3.60
0.61
-2.25
-5.07
-7.96
-11.04
-14.41
-18.18
-22.36
-26.77
-31.01
-34.42
-36.24
-35.78
-32.66
-26.91
-19.02
-9.85
-0.39
8.47
16.02
21.84
25.77
27.80
28.12
27.04
25.03
22.69
20.65
19.39
19.12
19.70
20.75
21.83
22.61
22.98
22.98
22.69
22.08
21.02
19.30
16.81
13.62
9.96
6.12
2.35
-1.21
-4.50
-7.53
-10.31
-12.90
-15.37
-17.92
-20.70
-23.78
-27.03
-30.06
-32.30
-33.13
-32.03
-28.67
-23.07
-15.54
-6.77
2.35
10.81
17.72
22.50
24.96
25.30
24.00
21.64
18.71
15.63
12.70
10.16
8.21
7.00
6.59
6.91
7.77
8.92
10.12
11.21
12.07
12.64
12.78
12.31
11.03
8.87
5.99
2.78
-0.26
-2.72
-4.54
-6.03
-7.74
-10.25
-13.81
-18.19
-22.71
-26.41
-28.38
-28.04
-25.29
-20.51
-14.38
-7.69
-1.13
4.74
9.56
13.05
14.98
15.31
14.17
