1564006935.00
64.000000
-0.00
-0.00
-0.00
-0.00
-0.00
-0.00
-0.00
-0.00
-0.00
-0.00
0.00
0.01
0.01
-0.00
-0.03
-0.05
-0.05
0.00
0.13
0.36
0.66
1.01
1.37
1.72
2.06
2.40
2.79
3.24
3.80
4.42
5.07
5.69
6.25
6.76
7.30
7.93
8.70
9.72
10.91
12.16
13.35
14.42
15.43
16.53
17.95
19.82
22.37
25.41
28.67
31.85
34.79
37.56
40.50
44.04
48.52
54.32
61.09
68.31
75.41
82.04
88.29
94.67
101.91
110.57
121.19
133.29
146.06
158.63
170.43
181.53
192.59
205.01
217.52
232.42
250.30
271.27
294.09
315.85
332.25
338.70
331.88
310.96
278.34
237.88
193.87
149.50
106.29
64.50
24.04
-14.79
-51.20
-83.86
-112.11
-135.72
-155.12
-170.73
-182.67
-190.72
-194.46
-193.79
-188.95
-180.94
-171.13
-160.91
-151.31
-142.86
-135.57
-128.76
-121.87
-114.53
-106.89
-99.34
-92.33
-86.19
-80.95
-76.38
-72.12
-67.89
-63.52
-59.06
-54.70
-50.66
-47.06
-43.93
-41.13
-38.50
-35.93
-33.36
-30.82
-28.38
-26.14
-24.16
-22.47
-21.06
-19.89
-18.96
-18.25
-17.75
-17.42
-17.25
-17.19
-17.20
-17.24
-17.28
-17.30
-17.28
-17.22
-17.08
-16.86
-16.58
-16.24
-15.87
-15.46
-15.08
-14.70
-14.40
-14.16
-14.03
-14.01
-14.11
-14.32
-14.61
-14.92
-15.17
-15.30
-15.26
-15.04
-14.66
-14.17
-13.65
-13.14
-12.73
-12.44
-12.27
-12.26
-12.42
-12.76
-13.28
-13.92
-14.58
-15.11
-15.38
-15.29
-14.86
-14.19
-13.52
-13.03
-12.93
-13.27
-14.03
-15.09
-16.30
-17.60
-19.05
-20.82
-23.09
-25.95
-29.29
-32.82
-36.13
-38.92
-41.10
-42.97
-45.10
-48.12
-52.42
-57.92
-64.11
-70.19
-75.50
-79.87
-83.77
-88.17
-94.07
-101.96
-111.64
-122.11
-132.25
-141.21
-148.95
-156.23
-164.22
-173.93
-185.86
-200.23
-217.05
-236.46
-257.82
-279.43
-298.03
-309.61
-310.74
-300.19
-279.92
-254.57
-229.47
-208.21
-191.36
-176.83
-161.96
-145.47
-128.49
-113.55
-102.90
-96.63
-92.24
-85.94
-74.68
-58.31
-39.90
-24.21
-14.87
-12.07
-12.37
-10.60
-2.88
10.86
26.94
39.90
45.88
45.00
41.48
41.08
47.77
61.28
77.41
90.36
96.20
94.84
89.97
86.93
89.40
97.61
107.88
115.29
116.33
111.38
104.66
101.61
105.96
117.00
130.19
139.23
139.99
132.71
121.93
113.91
113.02
119.42
128.86
135.36
134.32
125.43
112.49
101.36
96.40
97.79
101.56
101.66
93.98
78.70
60.47
45.81
39.41
41.58
48.23
53.46
52.98
46.43
37.29
30.52
29.41
33.58
39.32
41.88
38.44
29.88
20.40
15.09
16.90
24.78
34.18
39.56
37.67
29.37
19.29
13.06
14.03
21.25
29.97
34.25
30.49
19.56
6.28
-3.23
-4.97
0.53
8.83
14.07
12.66
5.30
-3.47
-7.86
-4.55
5.49
17.28
24.69
23.91
15.53
4.05
-4.55
-6.36
-1.37
6.46
11.81
11.05
4.23
-4.81
-10.96
-10.75
-4.46
4.04
9.45
8.20
0.60
-9.30
-16.02
-15.62
-8.13
2.77
11.80
15.33
13.28
8.82
6.32
8.30
14.13
20.23
22.52
18.92
10.94
2.91
-0.52
2.79
11.00
19.15
21.92
16.80
5.74
-5.78
-11.99
-10.17
-2.32
6.07
9.31
5.04
-4.30
-12.93
-15.38
-9.57
1.66
12.57
17.52
14.40
5.52
-4.02
-9.08
-7.43
-0.69
6.68
10.26
8.05
1.62
-4.90
-7.38
-4.10
3.03
9.68
11.46
6.75
-2.38
-11.08
-14.65
-11.11
-2.59
5.98
9.70
6.53
-1.48
-9.42
-12.30
-7.95
1.62
11.56
16.80
14.94
7.69
-0.46
-4.58
-2.38
4.70
12.36
16.03
13.64
6.70
-0.50
-3.69
-1.03
5.52
11.54
12.71
7.57
-1.61
-10.10
-13.42
-10.01
-2.03
5.90
9.42
6.97
0.64
-5.08
-6.05
-0.72
8.65
17.45
21.04
17.50
8.67
-0.97
-6.60
-5.90
-0.15
6.50
9.51
6.66
-0.54
-7.78
-10.68
-7.38
0.16
7.30
9.38
4.77
-4.30
-12.82
-16.02
-12.28
-4.03
3.55
5.73
0.96
-8.02
-15.80
-17.33
-10.90
0.82
12.23
17.85
15.44
7.08
-1.96
-6.36
-3.80
3.87
11.68
14.71
10.85
2.25
-6.15
-9.40
-5.76
2.57
10.53
13.32
9.26
0.68
-7.40
-10.33
-6.56
1.47
8.85
11.17
7.17
-0.52
-7.00
-8.09
-2.82
5.89
12.99
14.23
8.76
-0.36
-7.94
-9.65
-4.63
4.09
11.36
12.89
7.76
-1.09
-8.62
-10.47
-5.69
2.91
10.26
12.12
7.31
-1.46
-9.32
-12.03
-8.51
-1.39
4.56
5.23
-0.24
-9.09
-16.35
-17.80
-12.49
-3.13
5.56
9.61
8.21
4.09
1.73
4.57
12.68
22.67
29.44
29.24
21.93
10.98
1.67
-2.00
0.31
4.92
6.26
0.27
-12.91
-28.41
-39.05
-39.04
-27.22
-7.87
11.58
24.22
27.12
22.00
13.67
6.81
3.31
1.77
-0.81
-6.69
-15.54
-24.50
-29.83
-29.25
-23.45
-15.86
-11.04
-12.13
-19.11
-28.84
-36.89
-40.08
-38.36
-34.95
-34.26
-39.36
-50.02
-62.77
-73.03
-77.66
-76.68
-73.01
-70.55
-71.73
-76.16
-81.19
-83.89
-83.12
-80.68
-80.39
-86.20
-99.81
-119.45
-140.86
-159.28
-172.36
-181.23
-189.72
-202.12
-220.58
-243.88
-267.98
-288.05
-300.62
-304.63
-300.96
-291.18
-276.33
-256.57
-231.63
-201.32
-165.52
-122.75
-71.35
-9.42
63.74
146.79
235.49
322.99
401.80
465.86
512.33
541.30
555.33
557.40
550.28
535.90
514.95
487.38
452.71
411.15
364.41
317.38
277.43
253.77
254.11
280.08
324.83
373.72
408.39
412.59
381.99
319.51
235.91
145.51
60.38
-12.92
-73.73
-124.75
-169.84
-211.01
-249.35
-285.04
-317.89
-348.17
-374.87
-394.73
-399.20
-382.98
-344.87
-288.88
-224.57
-158.30
-93.68
-31.07
31.01
93.77
153.09
203.02
237.21
252.78
252.58
243.30
232.37
224.30
218.60
209.88
192.48
163.28
123.96
80.45
39.00
3.44
-25.92
-51.10
-74.53
-96.56
-115.67
-129.67
-136.80
-137.48
-134.32
-130.78
-129.90
-133.47
-141.16
-151.35
-161.98
-171.42
-179.53
-187.51
-197.19
-210.20
-227.34
-248.24
-271.82
-296.66
-321.33
-345.12
-367.70
-388.64
-407.04
-421.35
-429.51
-429.27
-419.92
-400.34
-370.15
-329.79
-280.45
-224.05
-162.91
-99.59
-36.75
22.97
77.36
124.48
162.93
191.90
211.46
222.11
224.94
221.28
212.57
200.29
185.79
170.23
154.66
139.89
126.51
114.48
103.03
90.72
75.77
56.35
31.18
-0.02
-36.52
-76.71
-118.66
-160.75
-201.68
-240.76
-277.49
-311.12
-340.12
-362.36
-375.54
-378.11
-369.57
-350.97
-323.95
-290.34
-251.17
-205.99
-153.17
-90.29
-14.56
76.74
185.63
312.19
453.42
601.40
744.82
871.32
971.02
1039.21
1077.12
1090.11
1084.40
1064.03
1030.01
981.37
917.42
839.35
750.41
654.66
555.63
455.54
355.67
257.33
162.68
74.48
-4.24
-71.25
-125.85
-168.92
-202.51
-228.97
-250.18
-267.06
-279.54
-287.05
-289.16
-286.04
-278.61
-268.26
-256.40
-244.00
-231.48
-218.59
-205.02
-190.51
-175.37
-160.40
-146.86
-136.12
-128.77
-125.70
-127.38
-133.85
-144.66
-159.01
-175.74
-193.61
-211.23
-227.22
-240.43
-249.85
-254.78
-254.95
-250.26
-240.86
-226.91
-208.57
-185.91
-159.28
-128.88
-94.10
-55.73
-15.18
25.80
65.52
102.24
134.55
160.90
180.51
193.10
198.88
199.03
194.10
184.76
171.54
154.95
134.83
111.33
84.58
55.00
22.88
-11.59
-47.97
-85.67
-122.41
-157.09
-188.50
-217.64
-243.78
-266.06
-283.93
-297.05
-305.45
-309.45
-310.04
-307.58
-301.91
-292.23
-277.63
-257.42
-230.93
-197.79
-155.59
-105.72
-50.79
5.92
61.34
112.50
156.85
192.63
218.95
235.58
242.52
240.75
231.95
218.20
201.54
183.74
166.34
150.58
137.23
126.39
118.13
112.57
109.81
109.76
111.91
115.63
120.02
123.83
125.72
124.72
120.41
112.96
103.52
92.03
78.37
62.28
43.43
21.72
-2.43
-27.85
-52.66
-74.83
-92.91
-106.22
-115.12
-120.65
-123.89
-125.37
-124.40
-119.19
-107.87
-89.33
-63.77
-32.97
0.11
31.78
57.94
74.76
79.61
71.74
53.22
29.09
5.99
-9.98
-14.44
-8.48
2.37
11.36
14.03
10.10
2.81
-3.67
-6.70
-6.29
-4.64
-3.97
-5.12
-7.43
-9.69
-11.32
-12.85
-15.56
-20.73
-28.95
-39.49
-50.56
-60.04
-66.38
-69.28
-69.76
-69.63
-70.66
-74.03
-79.54
-85.95
-91.35
-93.99
-92.94
-88.45
-81.86
-74.85
-69.04
-65.11
-62.84
-61.27
-59.45
-57.02
-54.68
-54.20
-57.44
-65.76
-79.00
-95.37
-111.75
-124.81
-132.06
-132.70
-128.50
-121.10
-112.15
-101.88
-88.96
-70.83
-44.73
-8.67
37.87
93.16
153.29
210.68
255.89
279.33
274.68
242.12
189.76
132.91
85.97
58.89
53.16
61.90
73.54
77.46
68.59
48.62
24.14
2.48
-11.04
-14.97
-10.82
-1.05
12.52
29.75
51.07
76.34
103.79
130.63
153.63
169.72
176.30
171.18
153.14
122.78
83.78
43.11
9.90
-6.86
-2.16
22.50
58.84
94.43
116.63
117.08
94.51
55.22
11.23
-24.04
-40.08
-32.63
-4.47
35.61
76.22
107.46
121.84
117.77
98.09
67.38
29.70
-11.82
-54.76
-96.29
-132.50
-159.51
-174.44
-176.41
-166.23
-146.74
-120.36
-90.15
-60.88
-39.10
-31.40
-40.93
-65.20
-95.63
-120.28
-128.21
-114.00
-79.24
-31.16
20.54
66.89
100.60
116.41
110.99
83.73
37.75
-19.65
-78.10
-127.00
-157.59
-166.49
-156.02
-132.99
-106.44
-85.81
-78.68
-88.88
-115.08
-150.59
-185.70
-210.64
-219.22
-210.40
-187.51
-155.70
-119.51
-81.84
-44.60
-10.19
18.87
40.89
56.08
67.65
80.90
100.72
129.29
165.10
203.47
239.38
268.81
289.34
300.02
300.68
291.13
271.26
243.33
208.17
167.88
126.61
89.59
61.56
44.47
35.68
30.02
21.78
7.43
-12.08
-32.99
-52.22
-70.57
-93.43
-127.30
-174.41
-230.32
-285.01
-326.49
-345.92
-340.82
-314.92
-272.56
-220.40
-163.07
-102.71
-40.27
22.83
83.54
137.42
180.27
209.62
225.26
230.38
229.68
227.21
225.37
224.05
221.09
213.62
200.45
179.36
149.35
110.52
64.30
13.99
-35.17
-76.26
-102.96
-112.89
-109.16
-98.34
-88.04
-83.67
-86.65
-94.96
-105.12
-114.55
-122.67
-130.37
-138.20
-145.76
-151.59
-154.12
-152.57
-147.26
-139.07
-129.03
-118.11
-104.94
-87.40
-63.47
-32.20
5.84
48.45
92.45
134.31
171.08
200.87
222.46
235.35
239.29
234.11
219.70
196.26
163.44
122.84
77.05
28.84
-19.15
-64.81
-106.77
-144.31
-177.21
-205.71
-229.82
-249.55
-264.84
-275.53
-281.35
-281.99
-278.09
-269.36
-255.68
-237.05
-213.87
-186.97
-157.49
-126.63
-95.62
-65.52
-37.13
-11.19
11.79
31.33
47.03
58.56
65.78
68.74
67.70
63.28
56.09
47.00
36.75
26.00
15.25
4.74
-5.43
-15.23
-24.54
-33.36
-41.51
-48.97
-55.81
-62.08
-67.71
-72.32
-75.29
-75.65
-73.45
-68.61
-61.50
-52.76
-43.33
-33.97
-25.03
-16.31
-7.13
3.20
15.33
29.19
44.18
59.45
74.33
88.67
102.88
117.66
133.61
151.31
171.21
193.96
220.05
249.16
279.31
306.66
326.40
334.54
329.75
313.93
291.28
266.23
241.64
218.14
195.04
172.00
150.00
131.30
117.74
109.37
103.75
96.89
85.21
67.26
44.46
20.34
-1.07
-17.08
-27.09
-32.47
-35.23
-36.84
-37.60
-36.89
-34.43
-31.14
-29.55
-32.65
-42.21
-57.32
-74.17
-87.50
-92.97
-89.31
-78.78
-66.07
-55.74
-50.23
-49.27
-50.70
-52.33
-53.02
-52.89
-52.38
-51.25
-48.24
-41.71
-30.88
-16.66
-1.66
10.83
18.18
19.58
16.23
10.67
5.62
2.81
2.50
3.63
4.63
4.37
2.81
0.95
0.21
1.57
4.98
9.36
13.08
14.78
13.99
11.34
7.99
4.95
2.42
-0.27
-4.07
-9.39
-15.44
-20.40
-22.21
-19.79
-13.79
-6.49
-0.86
0.92
-1.52
-6.54
-11.47
-14.02
-13.49
-10.87
-8.04
-6.42
-5.99
-5.27
-2.31
3.78
12.03
19.88
24.48
24.34
20.15
14.35
9.77
8.02
8.77
10.28
10.58
8.90
6.15
4.32
5.29
9.73
16.78
24.72
31.96
37.85
42.72
47.33
51.81
55.17
55.56
51.35
42.35
30.50
19.54
13.62
15.68
25.90
41.41
57.58
69.82
75.33
73.96
67.69
58.36
47.98
37.90
28.82
21.04
14.91
10.67
8.36
7.46
6.95
5.75
2.98
-1.72
-7.98
-14.88
-21.30
-26.21
-29.06
-29.97
-29.29
-27.70
-25.73
-23.59
-21.09
-17.77
-13.08
-6.62
1.56
11.17
21.49
31.53
40.18
46.81
50.49
50.39
46.02
37.19
24.30
7.96
-10.77
-30.56
-49.79
-66.87
-80.31
-88.97
-92.33
-90.46
-84.42
-75.56
-65.26
-54.48
-43.51
-31.90
-18.70
-2.98
15.72
36.50
57.69
77.39
93.84
106.05
113.95
118.13
119.21
118.05
113.61
103.96
86.88
60.66
24.75
-20.11
-72.46
-130.77
-190.28
-247.05
-297.53
-339.14
-370.85
-393.49
-409.07
-419.33
-423.93
-419.45
-400.85
-363.61
-306.77
-234.93
-157.51
-85.59
-28.19
10.65
32.29
41.10
42.16
39.04
33.32
25.21
14.88
2.74
-10.54
-24.27
-38.24
-52.35
-66.17
-78.12
-86.27
-86.64
-75.63
-52.22
-19.23
16.88
48.43
69.89
80.57
84.43
88.56
99.14
118.45
144.16
171.02
193.79
209.50
217.93
220.50
218.91
213.94
205.63
194.21
180.61
166.44
153.69
143.68
136.63
131.82
127.79
123.12
117.10
110.06
103.08
97.63
94.79
94.69
96.61
99.15
100.70
99.85
96.23
89.14
78.32
63.62
45.03
22.67
-2.98
-30.92
-59.58
-86.94
-110.95
-129.71
-141.92
-147.13
-145.72
-138.69
-127.46
-113.51
-98.26
-82.93
-68.31
-54.88
-42.88
-32.32
-23.10
-15.04
-7.82
-1.25
4.83
10.50
15.92
21.07
26.05
30.98
36.05
41.54
47.76
54.99
63.47
73.35
84.36
96.16
108.27
120.17
131.34
141.30
149.71
156.40
161.37
164.47
165.73
165.28
163.36
160.17
155.79
150.11
142.69
134.65
126.36
117.91
109.37
100.75
92.18
83.76
75.62
67.93
60.73
53.77
46.76
39.55
32.12
24.60
17.28
10.44
4.25
-1.34
-6.75
-12.49
-18.85
-25.92
-33.39
-40.72
-47.42
-53.34
-58.82
-64.74
-72.14
-81.76
-93.72
-107.42
-121.80
-135.74
-148.67
-160.90
-173.62
-188.30
-206.09
-227.23
-250.95
-275.87
-300.53
-324.07
-346.53
-368.78
-392.27
-418.80
-450.28
-488.13
-532.11
-579.20
-623.09
-655.26
-667.57
-655.26
-619.04
-564.82
-501.51
-437.48
-378.18
-325.28
-277.91
-234.50
-194.33
-157.57
-124.68
-95.36
-68.31
-41.80
-14.39
14.30
43.66
72.23
98.72
122.40
143.62
163.44
183.20
203.86
225.59
247.88
270.13
292.33
315.20
339.59
365.37
390.52
411.19
423.10
423.23
411.27
389.67
362.45
333.36
304.76
277.31
251.09
226.44
204.34
185.79
170.87
158.30
145.95
132.16
116.69
101.02
87.36
77.35
70.95
66.48
61.53
54.38
44.86
34.43
25.23
18.92
15.79
14.98
15.07
15.02
14.69
14.81
16.14
18.85
22.07
24.18
23.80
20.51
15.38
10.35
7.36
7.17
8.99
10.92
11.01
8.49
4.09
-0.28
-2.72
-2.31
0.30
3.37
4.93
3.98
0.90
-2.75
-5.21
-5.57
-4.26
-2.85
-3.05
-5.61
-9.75
-13.52
-14.89
-12.98
-8.62
-3.90
-1.05
-1.17
-3.65
-6.62
-8.05
-6.98
-3.99
-0.91
0.42
-0.91
-4.12
-7.28
-8.26
-5.89
-0.63
5.74
11.06
14.09
14.99
15.28
16.59
19.56
23.24
25.48
24.18
18.57
9.93
1.02
-5.31
-7.54
-6.39
-4.24
-3.76
-6.33
-11.30
-16.34
-18.93
-17.93
-14.09
-9.73
-7.00
-6.77
-8.03
-8.74
-7.26
-3.53
0.76
3.22
2.11
-2.42
-8.44
-13.18
-14.54
-12.10
-7.30
-2.53
0.12
-0.07
-2.16
-4.26
-4.62
-2.71
0.48
2.99
3.16
0.61
-3.42
-6.81
-7.75
-5.81
-2.22
0.93
1.84
0.17
-2.84
-5.05
-4.83
-2.01
1.92
4.68
4.49
1.23
-3.53
-7.31
-8.08
-5.45
-0.79
3.34
4.81
2.87
-1.18
-5.01
-6.36
-4.53
-0.64
2.95
4.14
2.28
-1.39
-4.55
-5.18
-2.79
1.20
4.48
5.14
2.93
-0.63
-3.27
-3.38
-1.10
1.78
3.00
1.19
-3.12
-7.83
-10.48
-9.61
-5.78
-1.09
1.79
1.31
-2.34
-7.24
-11.02
-12.00
-10.20
-7.05
-4.65
-4.39
-6.30
-8.97
-10.52
-9.64
-6.48
-2.60
0.10
0.38
-1.43
-3.71
-4.44
-2.53
1.60
6.20
9.30
9.89
8.57
7.12
7.43
10.30
14.87
19.07
20.74
18.92
14.36
9.21
5.75
5.18
6.85
8.72
8.54
5.17
-0.64
-6.67
-10.41
-10.56
-7.63
-3.81
-1.59
-2.39
-5.87
-10.08
-12.72
-12.40
-9.50
-5.71
-3.17
-3.09
-5.26
-8.14
-9.85
-9.25
-6.60
-3.48
-1.75
-2.43
-5.06
-7.90
-8.88
-6.81
-1.96
3.73
8.06
9.59
8.63
6.93
6.70
9.02
13.30
17.23
18.36
15.71
10.26
4.87
2.39
4.29
9.50
15.04
17.60
15.71
10.48
5.10
2.99
5.54
11.65
17.88
20.77
18.72
13.02
6.87
3.56
4.29
7.79
10.91
10.64
5.93
-1.85
-9.55
-14.21
-14.56
-11.58
-7.91
-6.29
-7.92
-11.96
-15.79
-16.80
-13.97
-8.49
-3.28
-1.31
-3.84
-9.49
-15.01
-16.94
-13.84
-7.07
-0.23
2.91
0.68
-5.54
-11.93
-14.59
-11.76
-4.90
2.09
5.23
2.85
-3.39
-9.38
-11.14
-7.12
0.74
8.23
11.17
8.07
0.82
-6.28
-9.15
-6.25
0.52
6.80
8.68
4.67
-3.01
-10.03
-12.20
-8.09
0.04
7.67
10.47
7.07
-0.36
-7.10
-9.03
-4.85
3.01
9.85
11.63
7.15
-1.07
-8.45
-11.06
-7.96
-1.59
3.75
4.53
0.33
-6.09
-10.40
-9.38
-3.05
5.44
11.33
11.30
5.24
-3.41
-9.87
-10.47
-4.99
3.45
9.95
10.76
5.38
-3.25
-10.41
-12.62
-9.40
-3.57
0.71
0.56
-3.80
-9.24
-11.52
-8.21
-0.15
8.80
14.08
12.96
6.23
-2.15
-7.41
-6.49
0.14
8.98
15.34
16.18
11.49
4.46
-0.71
-1.07
3.18
9.10
12.63
11.30
5.57
-1.32
-5.49
-4.60
0.46
6.36
8.94
6.11
-1.25
-9.44
-14.25
-13.35
-7.48
-0.22
4.37
3.74
-1.42
-7.92
-11.59
-9.99
-3.57
4.30
9.32
8.55
2.34
-5.88
-11.46
-11.24
-5.41
2.57
7.95
7.44
1.35
-6.69
-11.76
-10.77
-4.19
4.15
9.41
8.70
2.72
-4.67
-8.75
-6.92
-0.12
7.48
11.19
8.35
0.12
-9.36
-15.04
-14.07
-7.22
1.59
7.60
7.84
2.89
-3.73
-7.70
-6.50
-0.95
5.35
8.31
5.84
-0.72
-7.41
-9.93
-6.39
1.65
9.83
13.69
11.15
3.96
-3.65
-7.14
-4.69
2.08
8.87
11.38
7.79
-0.15
-8.25
-12.23
-10.20
-3.76
3.09
6.26
4.02
-2.13
-8.10
-10.10
-6.54
0.55
7.06
8.97
5.15
-2.21
-8.65
-10.03
-5.13
3.79
12.06
15.41
12.17
4.47
-3.36
-6.93
-4.55
2.06
8.69
11.14
7.63
-0.14
-7.92
-11.43
-8.73
-1.44
6.30
10.14
8.22
1.95
-4.56
-7.44
-5.00
0.96
6.39
7.48
2.98
-4.90
-12.00
-14.39
-11.12
-4.43
1.22
2.14
-2.61
-10.51
-17.22
-19.16
-15.63
-9.27
-4.51
-4.73
-10.37
-18.62
-25.05
-26.24
-21.82
-14.57
-8.73
-7.86
-12.51
-20.31
-27.23
-30.25
-29.01
-26.22
-25.84
-30.53
-40.51
-52.32
-61.13
-63.14
-58.18
-49.86
-44.11
-46.08
-56.82
-74.23
-92.10
-103.84
-105.17
-95.85
-79.45
-61.37
-46.46
-36.07
-30.64
-27.27
-22.38
-12.59
4.78
32.05
71.14
122.61
186.47
257.24
328.49
392.84
444.53
480.93
503.12
514.73
511.75
505.72
493.54
470.91
433.20
379.14
312.87
243.73
182.57
136.14
104.23
76.09
39.43
-13.77
-82.22
-155.77
-221.05
-268.45
-296.21
-308.57
-313.93
-316.83
-316.74
-310.43
-295.09
-271.49
-244.30
-219.82
-202.41
-194.15
-192.58
-192.33
-187.85
-175.66
-156.22
-133.65
-113.88
-100.92
-95.74
-94.90
-92.81
-85.23
-71.50
-54.86
-40.40
-32.18
-30.64
-33.10
-34.83
-32.11
-24.22
-13.92
-5.60
-2.74
-5.67
-11.37
-15.22
-13.81
-7.22
1.06
6.21
5.41
-0.58
-7.56
-10.89
-8.27
-1.33
5.54
7.92
4.33
-3.01
-9.62
-11.34
-6.97
1.24
9.00
12.53
10.69
5.70
1.72
2.45
8.92
18.61
26.49
27.81
20.93
8.31
-4.46
-11.77
-10.90
-3.59
5.42
11.03
10.98
6.81
2.77
3.01
8.73
17.58
24.74
25.79
19.26
7.61
-4.26
-11.55
-12.03
-7.24
-1.26
1.59
-0.55
-6.04
-10.72
-10.50
-3.92
6.75
16.70
21.22
18.51
10.60
2.19
-2.15
-0.52
5.12
10.34
10.80
4.96
-5.06
-14.55
-18.90
-16.33
-8.56
0.01
5.07
4.70
0.29
-4.44
-5.80
-2.39
3.90
9.28
10.05
5.08
-3.34
-10.86
-13.29
-9.07
-0.06
9.41
15.08
14.90
10.26
4.83
2.32
4.22
8.97
12.91
12.55
6.94
-1.87
-9.66
-12.63
-9.38
-1.84
6.02
10.33
9.53
5.07
0.36
-1.23
1.64
7.61
13.38
15.65
12.85
6.16
-1.31
-6.17
-6.68
-3.66
0.11
1.60
-0.64
-5.42
-9.66
-10.25
-6.07
1.14
7.72
10.03
6.77
-0.37
-7.46
-10.93
-9.27
-4.17
0.81
2.35
-0.50
-5.70
-9.60
-8.97
-3.41
4.52
10.47
11.04
5.81
-2.41
-9.10
-10.82
-7.07
-0.65
4.30
4.82
0.81
-4.82
-8.09
-6.25
0.40
8.80
14.75
15.28
10.34
2.57
-3.89
-6.02
-3.22
2.08
6.22
6.12
1.39
-5.44
-10.46
-10.58
-5.40
2.48
8.94
10.89
7.87
2.45
-1.60
-1.47
2.74
8.36
11.47
9.62
3.23
-4.57
-9.69
-9.54
-4.48
2.28
6.70
6.14
1.07
-5.25
-8.64
-6.62
0.25
8.36
13.37
12.48
6.27
-1.84
-7.37
-7.54
-2.66
4.10
8.51
7.95
2.73
-3.94
-8.18
-7.54
-2.63
3.56
7.22
6.35
1.71
-3.54
-5.83
-3.43
2.50
8.38
10.54
7.16
-0.30
-8.01
-11.72
-9.25
-1.69
7.02
12.29
11.28
4.56
-4.21
-10.24
-10.37
-4.80
3.04
8.55
8.71
3.80
-2.77
-6.80
-5.81
-0.66
5.26
7.93
5.59
-0.43
-6.45
-8.79
-6.07
0.05
5.72
7.34
3.50
-3.99
-11.31
-14.71
-12.66
-6.61
-0.01
3.60
2.80
-1.14
-4.98
-5.55
-1.75
4.81
10.56
12.34
9.06
2.63
-3.23
-5.00
-1.46
5.64
12.51
15.36
12.60
5.67
-1.70
-5.66
-4.52
0.41
5.48
6.99
3.31
-3.91
-10.76
-13.17
-9.46
-1.37
6.89
10.86
8.51
1.19
-7.03
-11.75
-10.70
-4.87
2.10
6.25
5.47
0.71
-4.78
-7.40
-5.55
-0.44
4.61
6.29
3.27
-2.82
-8.30
-9.57
-5.31
2.72
10.41
13.74
10.86
3.40
-4.64
-8.90
-7.28
-1.16
5.49
8.31
5.24
-2.28
-10.11
-13.84
-11.44
-4.36
3.33
7.56
6.56
1.89
-2.73
-3.84
-0.53
5.14
9.41
9.29
4.55
-2.18
-6.87
-6.57
-1.30
5.87
10.61
9.77
3.27
-5.56
-12.08
-12.72
-7.19
1.41
8.38
10.10
6.06
-0.99
-6.75
-7.99
-4.33
1.76
6.38
6.79
2.77
-3.25
-7.71
-8.05
-4.06
1.89
6.59
7.45
4.30
-0.72
-4.31
-4.00
0.40
6.54
10.87
10.76
5.89
-1.19
-6.71
-7.60
-3.37
3.75
9.93
11.91
8.94
2.94
-2.45
-4.15
-1.40
3.87
8.08
8.17
3.42
-3.98
-10.24
-11.98
-8.31
-1.33
5.02
7.16
3.95
-2.65
-8.75
-10.93
-8.15
-2.51
2.15
2.68
-1.52
-7.93
-12.53
-12.20
-6.89
0.68
6.26
6.93
2.79
-3.24
-7.10
-6.30
-1.25
4.88
8.35
6.98
1.68
-4.24
-7.01
-4.65
1.70
8.62
12.15
10.30
3.97
-3.30
-7.41
-5.98
0.34
8.01
12.63
11.22
4.19
-4.94
-11.25
-11.26
-4.90
4.47
11.81
13.38
8.74
0.99
-5.24
-6.59
-2.94
2.60
5.83
4.02
-2.19
-9.17
-12.54
-9.78
-1.92
7.01
12.13
10.86
4.08
-3.97
-8.37
-6.24
1.45
10.54
15.95
14.69
7.57
-1.33
-6.84
-5.99
0.50
8.47
13.08
11.41
4.43
-3.72
-8.22
-6.44
0.26
7.56
10.46
6.67
-2.36
-11.81
-16.62
-14.18
-6.02
3.32
8.71
7.53
0.92
-6.94
-11.28
-9.68
-3.24
3.96
7.39
4.77
-2.71
-10.98
-15.45
-13.72
-6.78
1.40
6.33
5.44
-0.35
-7.29
-11.06
-9.42
-3.54
2.79
5.34
2.33
-4.70
-11.36
-13.37
-8.82
0.40
9.60
14.03
11.33
3.03
-6.52
-12.36
-11.80
-5.53
2.71
8.50
9.27
5.62
0.91
-1.02
1.66
7.51
12.76
13.55
8.70
0.47
-6.40
-7.73
-2.41
6.84
14.91
17.29
12.66
3.45
-5.49
-9.93
-8.35
-2.84
2.58
4.16
0.83
-5.32
-10.33
-10.69
-5.47
2.93
10.10
12.19
8.01
-0.15
-7.80
-10.83
-7.94
-1.19
5.19
7.32
4.10
-2.33
-7.62
-8.10
-2.84
5.52
12.30
13.39
7.71
-2.00
-10.84
-14.24
-10.69
-2.51
5.44
8.67
5.46
-2.00
-9.10
-11.47
-7.53
0.61
8.40
11.67
8.84
2.10
-4.24
-6.10
-2.26
5.13
11.58
13.28
9.17
1.71
-4.61
-6.08
-1.93
5.10
10.48
10.39
4.19
-5.20
-12.92
-14.96
-10.44
-2.11
5.08
7.05
2.69
-5.26
-12.11
-13.73
-9.23
-1.32
5.22
6.52
1.91
-5.53
-11.03
-10.89
-4.89
3.79
10.21
11.02
6.17
-0.89
-5.37
-3.85
3.50
12.99
19.56
19.41
12.53
2.27
-6.13
-9.00
-5.65
0.87
6.11
6.63
2.20
-4.34
-8.87
-8.51
-3.45
3.34
7.93
7.77
3.24
-2.89
-6.97
-6.75
-2.45
3.26
7.04
6.49
1.80
-4.45
-8.66
-8.28
-3.30
3.59
8.42
8.21
2.74
-5.12
-10.97
-11.50
-6.48
1.06
6.54
6.54
1.03
-6.80
-12.29
-12.16
-6.36
1.81
7.87
8.63
4.25
-2.21
-6.43
-5.68
-0.38
6.07
9.55
7.57
0.92
-6.62
-10.64
-8.51
-1.04
7.96
13.70
13.30
7.12
-1.32
-7.54
-8.71
-5.32
-0.69
1.21
-1.77
-8.28
-14.21
-15.08
-8.90
2.43
13.80
19.74
17.56
8.67
-2.02
-9.16
-9.67
-4.40
2.74
7.14
6.37
1.18
-4.77
-7.53
-5.05
1.42
8.01
10.52
6.93
-1.36
-10.16
-14.73
-12.65
-5.09
3.70
9.10
8.57
3.37
-2.48
-4.64
-1.32
5.74
12.29
14.19
10.20
2.35
-4.83
-7.30
-3.66
3.86
10.86
12.89
8.33
-1.08
-10.91
-16.62
-15.92
-10.06
-3.00
0.90
-0.60
-6.27
-12.26
-14.21
-10.02
-0.99
8.66
14.45
13.96
8.50
2.15
-0.59
2.38
9.59
16.74
19.17
14.95
5.74
-3.78
-8.98
-7.70
-1.97
3.81
5.09
0.41
-7.80
-14.59
-15.52
-9.40
0.99
10.23
13.67
9.74
0.96
-7.66
-11.39
-8.62
-1.53
5.31
7.54
3.78
-3.74
-10.40
-11.98
-7.14
1.61
9.51
12.13
8.08
-0.18
-7.85
-10.55
-6.70
1.40
9.13
12.27
9.37
2.67
-3.41
-4.90
-0.64
7.05
13.51
14.60
9.08
-0.66
-9.63
-13.20
-9.59
-1.03
7.74
11.73
8.97
1.24
-6.88
-10.90
-8.93
-3.02
2.42
3.18
-2.06
-10.62
-17.59
-18.62
-12.66
-2.50
6.52
9.95
6.47
-1.16
-7.95
-9.64
-5.11
2.92
9.64
11.01
6.21
-2.04
-8.84
-10.27
-5.49
2.56
9.18
10.57
6.22
-0.87
-6.03
-5.82
-0.11
7.56
12.36
10.82
3.21
-6.53
-13.15
-13.01
-6.27
3.31
10.34
11.32
6.00
-2.11
-8.21
-8.85
-4.05
2.96
7.60
6.63
0.24
-8.25
-13.86
-13.20
-6.09
4.00
11.95
13.90
9.33
1.47
-4.76
-5.58
-0.75
6.34
10.79
9.10
1.55
-7.95
-14.03
-13.10
-5.34
5.27
13.16
14.54
9.22
0.72
-5.93
-7.12
-2.77
3.86
8.24
7.25
1.34
-6.06
-10.17
-8.06
-0.08
9.92
16.93
17.48
11.51
2.42
-4.97
-7.07
-3.63
2.37
6.41
5.26
-1.02
-9.18
-14.51
-14.00
-7.97
-0.11
4.71
3.40
-3.37
-11.57
-16.15
-14.07
-6.08
3.58
9.87
9.60
3.53
-4.47
-9.47
-8.60
-2.36
5.39
10.08
8.89
2.54
-5.30
-10.09
-9.08
-2.95
4.72
9.44
8.65
2.99
-3.79
-7.32
-5.00
2.18
10.45
15.33
14.26
8.21
0.93
-3.06
-1.40
5.04
12.26
15.85
13.20
5.32
-3.95
-9.97
-10.12
-5.03
1.71
5.85
4.93
-0.48
-7.06
-10.97
-9.99
-4.87
1.31
4.96
4.22
-0.10
-4.97
-6.94
-4.28
2.01
8.60
11.80
9.54
2.73
-5.23
-10.36
-10.29
-5.49
0.77
4.59
3.55
-1.95
-8.91
-13.51
-13.54
-9.36
-3.82
-0.57
-1.76
-6.92
-13.15
-16.79
-15.60
-10.14
-3.46
0.66
-0.29
-5.91
-13.26
-18.67
-19.93
-17.44
-13.90
-12.35
-14.37
-19.42
-25.14
-29.15
-30.71
-30.99
-32.32
-36.40
-42.80
-49.30
-53.47
-53.78
-51.16
-48.57
-49.62
-56.30
-67.68
-79.24
-85.45
-82.82
-71.10
-53.92
-37.05
-25.36
-20.28
-18.96
-14.54
-0.19
27.65
68.43
117.24
166.15
207.47
236.13
251.03
256.19
261.48
272.78
292.38
318.77
346.94
370.11
381.93
371.99
337.91
283.25
214.81
140.42
66.46
-2.71
-63.95
-114.58
-152.43
-175.56
-184.63
-183.32
-176.44
-168.70
-163.18
-160.71
-160.27
-160.08
-157.75
-152.38
-144.95
-137.32
-131.44
-128.54
-128.76
-131.15
-134.47
-137.22
-138.76
-139.51
-140.45
-142.68
-146.97
-153.55
-161.92
-171.32
-180.62
-188.89
-195.34
-199.24
-199.82
-196.26
-189.10
-177.59
-161.40
-140.81
-116.92
-91.31
-65.83
-42.20
-21.66
-4.87
8.47
19.06
28.09
37.00
47.36
60.43
77.08
97.59
121.38
147.04
172.21
193.89
208.88
214.41
208.27
189.33
157.71
114.51
61.63
1.34
-63.80
-130.97
-196.58
-256.67
-306.76
-342.41
-360.31
-359.20
-340.42
-307.77
-266.66
-222.20
-179.23
-140.66
-107.42
-79.28
-56.91
-41.88
-36.45
-42.25
-57.95
-80.79
-104.85
-122.19
-124.72
-105.99
-62.13
7.77
99.95
207.85
318.54
417.18
491.16
534.63
550.53
548.60
540.17
532.40
533.05
537.59
537.61
527.10
505.28
475.84
444.04
414.18
381.13
349.98
320.64
291.98
260.38
222.16
177.89
131.00
85.54
44.59
10.78
-12.28
-22.91
-18.03
6.29
51.66
114.18
181.55
236.45
265.63
261.18
223.72
161.37
85.66
6.79
-68.94
-138.88
-201.94
-256.32
-301.02
-335.70
-360.47
-376.37
-385.42
-390.36
-393.84
-397.48
-401.11
-404.20
-406.43
-407.56
-407.72
-407.19
-406.39
-405.57
-404.48
-402.38
-398.89
-394.27
-389.11
-384.74
-381.15
-377.02
-369.67
-355.41
-330.33
-291.65
-238.48
-172.13
-95.93
-14.33
67.93
146.38
217.17
277.09
323.44
354.09
367.94
365.38
348.74
322.33
291.73
262.85
240.81
229.11
228.85
238.26
252.69
265.75
271.15
264.91
246.93
220.22
190.09
161.55
137.20
116.73
98.23
79.67
60.41
41.40
24.60
11.82
3.77
-0.50
-3.44
-8.26
-17.73
-32.77
-51.29
-68.44
-78.24
-76.30
-62.22
-40.50
-19.27
-7.34
-10.58
-29.32
-57.59
-84.87
-99.75
-94.27
-67.41
-26.04
17.35
49.16
59.99
48.10
19.73
-13.89
-41.02
-53.69
-49.72
-32.39
-8.26
15.50
33.18
41.53
39.65
28.11
8.09
-19.03
-51.55
-87.06
-122.07
-152.31
-173.60
-183.02
-179.84
-165.70
-143.81
-117.45
-88.73
-58.16
-25.30
9.90
46.11
80.32
108.80
128.39
137.73
137.68
130.88
120.72
110.08
100.59
92.40
84.64
76.18
66.30
55.11
43.44
32.44
23.07
15.78
10.35
6.20
2.57
-1.05
-4.87
-8.72
-12.28
-15.24
-17.45
-18.96
-19.93
-20.59
-21.11
-21.57
-21.96
-22.22
-22.29
-22.16
-21.86
-21.43
-20.91
-20.34
-19.71
-19.05
-18.33
-17.55
-16.72
-15.84
-14.91
-13.91
-12.86
-11.77
-10.67
-9.56
-8.47
-7.32
-6.22
-5.19
-4.24
-3.26
-2.21
-0.95
0.65
2.75
5.53
8.84
12.50
16.06
19.00
20.53
19.84
16.37
9.68
-0.14
-12.58
-26.62
-40.92
-53.98
-64.41
-70.82
-72.60
-69.72
-62.67
-52.49
-40.45
-27.89
-16.07
-5.85
2.27
8.10
11.75
13.63
14.23
14.02
13.35
12.46
11.59
10.87
10.33
9.86
9.47
9.11
8.73
8.30
7.80
7.26
6.71
6.21
5.78
5.46
5.20
4.90
4.47
3.83
3.02
2.16
1.39
0.86
0.66
0.68
0.67
0.35
-0.44
-1.68
-3.11
-4.29
-4.84
-4.61
-3.83
-3.06
-2.92
-3.81
-5.70
-8.02
-9.92
-10.62
-9.88
-8.08
-6.17
-5.33
-6.22
-8.84
-12.26
-15.09
-16.19
-14.94
-11.55
-6.80
-1.76
2.77
6.01
7.28
6.20
3.36
0.62
1.03
7.43
20.65
38.43
55.58
65.70
64.89
52.77
32.56
9.22
-13.02
-32.21
-48.50
-63.17
-76.85
-88.90
-98.03
-103.22
-104.14
-101.33
-95.57
-87.58
-77.38
-64.46
-48.17
-28.53
-6.62
15.70
36.27
53.18
65.29
72.55
75.96
77.03
77.23
78.09
79.96
82.78
86.29
90.10
94.19
98.10
101.36
103.29
103.15
100.16
93.71
83.54
69.80
52.47
33.42
14.04
-4.44
-21.02
-35.05
-46.26
-54.75
-60.95
-65.40
-68.60
-71.24
-73.74
-76.26
-78.71
-80.77
-81.96
-81.85
-80.02
-76.04
-70.03
-62.21
-53.08
-43.23
-33.31
-23.91
-15.56
-8.55
-2.85
1.41
4.42
6.33
7.31
7.56
7.25
6.41
5.12
3.68
2.12
0.67
-0.46
-1.08
-0.95
-0.01
1.60
3.68
6.13
8.49
10.49
11.94
12.87
13.67
14.68
16.30
17.77
20.35
24.51
30.45
37.92
47.70
58.80
70.12
80.52
88.92
94.60
96.70
94.74
88.41
75.24
57.44
36.77
14.53
-7.99
-29.17
-47.64
-62.07
-71.16
-74.78
-72.54
-64.84
-52.83
-38.10
-22.22
-6.93
6.35
16.50
22.96
24.48
22.26
17.58
11.63
5.65
0.56
-2.85
-4.24
-3.65
-1.32
2.15
5.62
7.89
8.02
5.36
-0.15
-8.24
-18.39
-29.70
-41.20
-51.95
-61.43
-68.63
-72.16
-70.50
-62.39
-47.12
-24.77
3.49
35.27
67.42
96.81
120.80
137.79
147.39
150.28
147.73
141.00
130.71
116.91
99.38
78.13
53.97
28.78
5.30
-13.53
-25.39
-29.30
-25.10
-13.11
5.77
29.69
55.71
80.08
98.58
107.35
102.86
84.02
52.38
10.83
-37.38
-88.62
-138.62
-182.24
-213.37
-227.62
-222.24
-198.62
-163.97
-130.66
-111.68
-114.57
-138.81
-177.13
-221.77
-265.38
-302.54
-329.50
-342.95
-338.70
-311.85
-260.50
-179.21
-81.77
6.56
64.17
85.92
82.85
68.08
52.51
41.97
40.05
46.04
58.77
77.42
100.45
124.54
145.26
159.56
166.30
166.30
159.80
148.21
134.02
119.61
106.18
93.80
82.42
71.91
62.07
51.74
40.83
30.91
24.33
22.77
26.61
35.14
46.69
59.35
71.08
81.13
90.32
100.06
111.31
123.90
136.72
148.19
156.83
161.44
161.61
157.55
149.72
138.50
124.20
107.13
87.81
66.87
44.99
22.78
0.66
-21.29
-43.33
-65.89
-89.31
-113.46
-137.68
-160.80
-181.50
-198.69
-211.76
-220.54
-225.18
-225.82
-222.64
-215.93
-206.08
-193.49
-178.50
-161.31
-142.02
-120.76
-97.60
-72.81
-46.93
-20.63
5.35
30.15
52.80
72.13
86.79
95.79
98.46
94.66
84.99
70.80
53.99
36.50
19.83
4.84
-7.50
-16.73
-23.04
-27.00
-29.35
-30.63
-31.26
-31.66
-32.12
-31.22
-27.60
-20.77
-11.37
-0.53
10.65
21.24
30.45
37.83
45.73
56.33
70.34
86.72
103.86
120.49
135.89
149.48
160.84
172.78
187.45
205.00
223.63
241.44
257.50
271.84
284.43
278.71
246.79
193.03
131.27
73.93
25.91
-13.85
-48.36
-78.97
-108.64
-134.88
-154.56
-166.46
-171.81
-172.93
-172.08
-168.10
-161.05
-151.72
-138.74
-121.58
-101.36
-80.59
-61.79
-46.53
-35.26
-28.02
-24.25
-21.43
-17.55
-12.17
-6.35
-1.66
0.84
0.81
-1.80
-6.83
-13.32
-20.80
-29.57
-40.32
-53.47
-68.78
-85.43
-102.59
-119.42
-134.69
-147.00
-154.90
-157.04
-152.50
-141.11
-123.62
-101.80
-77.84
-53.84
-31.43
-11.63
5.13
18.83
29.84
38.77
46.24
52.84
58.87
64.47
69.69
74.53
79.02
83.05
86.36
88.55
89.35
88.64
86.63
83.68
80.07
75.83
70.75
64.71
57.97
51.33
45.81
42.30
41.15
41.97
43.85
45.58
46.14
44.87
41.64
36.60
30.02
22.27
13.80
5.12
-3.21
-10.81
-17.55
-23.53
-29.07
-34.58
-40.22
-45.78
-50.69
-54.26
-56.06
-56.09
-54.61
-52.09
-48.85
-44.56
-38.01
-27.57
-12.15
8.04
31.29
54.88
75.80
91.62
101.12
104.56
102.83
96.52
85.61
70.08
50.89
29.98
9.75
-7.60
-20.63
-29.40
-35.41
-40.91
-47.26
-53.76
-58.35
-58.66
-52.84
-39.46
-18.11
10.67
45.13
82.51
119.52
151.49
172.67
175.48
156.28
119.99
79.05
45.50
22.25
6.38
-7.15
-23.84
-48.41
-79.80
-116.27
-155.59
-195.86
-234.71
-267.72
-288.61
-290.54
-268.36
-220.78
-153.07
-76.63
-6.06
45.73
72.05
73.28
55.12
25.45
-8.23
-40.70
-68.82
-91.00
-106.36
-114.20
-114.68
-109.06
-99.37
-87.91
-76.66
-66.81
-58.86
-52.65
-47.31
-41.91
-35.51
-27.61
-18.17
-7.43
4.06
15.87
27.77
39.72
51.53
62.65
72.14
79.13
83.26
84.75
84.31
82.45
79.32
74.90
69.60
64.58
61.56
62.15
66.60
73.37
79.37
81.26
76.91
66.05
50.03
30.94
11.14
-7.30
-22.34
-31.97
-34.65
-29.69
-17.79
-1.11
17.36
35.20
51.26
65.94
80.22
94.58
108.42
120.13
128.12
131.64
132.11
132.60
136.17
143.61
152.80
159.42
158.99
149.20
130.11
105.18
79.66
58.10
42.52
32.55
26.44
21.88
16.63
6.99
-9.88
-35.23
-68.80
-109.25
-153.95
-199.42
-243.01
-283.09
-320.90
-356.10
-384.56
-398.84
-390.80
-354.22
-287.78
-197.14
-84.10
33.02
128.59
184.95
202.06
192.82
173.21
158.11
150.90
150.62
152.60
152.62
148.04
138.04
121.18
98.30
72.28
47.52
30.03
23.20
27.51
39.56
52.28
56.20
42.83
7.61
-48.39
-115.10
-176.07
-215.15
-225.84
-213.28
-187.94
-158.24
-128.17
-98.73
-69.97
-43.81
-23.46
-11.78
-8.84
-11.67
-15.02
-13.84
-5.34
10.61
30.57
49.75
63.00
67.10
61.46
47.60
27.82
4.94
-17.23
-33.23
-38.32
-30.49
-11.46
13.55
37.71
54.98
62.57
61.58
55.22
46.25
35.45
22.45
6.31
-11.72
-28.14
-38.43
-39.02
-28.75
-9.58
14.27
37.55
55.75
66.84
71.50
72.19
71.62
71.57
71.98
71.15
66.70
56.55
39.55
15.98
-12.10
-40.69
-63.72
-74.51
-68.41
-45.28
-10.71
25.11
51.86
63.37
59.69
46.90
33.54
25.97
25.56
28.51
27.96
18.00
-4.01
-36.77
-76.24
-116.88
-152.71
-177.72
-183.54
-166.46
-126.98
-70.86
-8.15
49.60
94.31
122.83
135.91
138.10
134.67
129.75
124.74
118.74
109.05
93.20
70.07
39.69
4.62
-31.50
-64.73
-92.51
-113.70
-128.94
-139.14
-140.16
-132.04
-115.22
-91.10
-62.02
-32.00
-0.72
32.47
67.87
104.61
138.28
163.32
174.78
170.67
152.90
126.51
96.96
65.42
34.72
5.67
-21.33
-45.79
-66.72
-82.87
-93.22
-98.07
-98.57
-95.86
-91.90
-87.92
-84.11
-79.25
-70.73
-55.20
-30.43
3.46
43.63
84.12
118.20
140.51
148.63
143.18
126.68
102.04
71.70
38.01
3.48
-28.45
-53.96
-70.31
-77.31
-77.67
-75.72
-75.24
-77.40
-80.39
-80.28
-73.08
-56.71
-32.03
-2.53
26.93
51.64
68.34
75.69
74.26
66.09
53.95
40.45
27.16
14.23
0.51
-15.55
-34.84
-56.80
-79.32
-99.32
-113.87
-121.14
-120.58
-112.84
-99.10
-80.72
-59.22
-36.22
-13.32
8.16
27.40
44.16
58.57
70.84
81.01
89.07
95.07
98.94
100.46
99.15
94.47
86.28
75.16
62.50
50.04
39.23
30.68
24.07
18.49
12.89
6.38
-1.88
-12.71
-26.86
-44.56
-65.19
-86.96
-107.29
-123.45
-133.28
-135.74
-130.99
-120.06
-104.43
-85.59
-64.93
-43.78
-23.49
-5.38
9.40
20.05
26.20
27.96
25.72
20.08
11.67
1.17
-10.67
-23.00
-34.94
-45.54
-53.96
-59.53
-61.80
-60.55
-55.92
-48.33
-38.48
-27.20
-15.38
-3.80
6.87
16.11
23.55
28.94
32.25
33.65
33.51
32.41
30.93
29.57
28.64
28.21
28.17
28.30
28.35
28.12
27.48
26.33
24.63
22.31
19.39
15.92
12.07
8.07
4.15
0.54
-2.61
-5.24
-7.36
-9.09
-10.55
-11.83
-12.92
-13.71
-13.97
-13.48
-12.12
-9.97
-7.23
-4.22
-1.23
1.50
3.86
5.72
7.03
7.74
7.91
7.68
7.24
6.84
6.67
6.91
7.73
9.24
11.51
14.47
17.90
21.40
24.52
26.77
27.77
27.26
25.15
21.57
16.84
11.40
5.81
0.54
-4.09
-7.89
-10.80
-12.76
-13.74
-13.69
-12.70
-10.97
-8.82
-6.55
-4.36
-2.26
-0.15
2.16
4.72
7.45
10.11
12.41
14.17
15.37
16.14
16.66
17.04
17.32
17.45
17.43
17.29
17.11
16.93
16.66
16.12
15.02
13.20
10.64
7.55
4.30
1.31
-1.10
-2.79
-3.80
-4.26
-4.34
-4.17
-3.81
-3.29
-2.65
-1.99
-1.46
-1.21
-1.33
-1.86
-2.70
-3.66
-4.41
-4.63
-4.06
-2.61
-0.40
2.26
5.03
7.59
9.78
11.53
12.80
13.52
13.63
13.15
12.24
11.18
10.26
9.70
9.44
9.30
9.02
8.42
7.48
6.33
5.15
4.04
3.07
2.22
1.54
1.10
1.03
1.37
2.06
2.85
3.46
3.58
3.00
1.69
-0.25
-2.52
-4.75
-6.51
-7.43
-7.28
-6.02
-3.82
-1.00
2.02
4.81
7.02
8.36
8.71
8.06
6.56
4.47
2.11
-0.19
-2.15
-3.59
-4.45
-4.76
-4.65
-4.29
-3.88
-3.59
-3.52
-3.70
-4.11
-4.69
-5.31
-5.92
-6.47
-6.94
-7.35
-7.70
-7.97
-8.19
-8.38
-8.50
-8.50
-8.22
-7.43
-5.94
-3.72
-0.91
2.17
5.16
7.80
9.98
11.68
13.00
13.98
14.69
15.25
15.80
16.51
17.48
18.68
19.95
21.02
21.65
21.65
20.93
19.49
17.35
14.51
11.01
6.91
2.38
-2.34
-6.90
-11.00
-14.40
-17.00
-18.83
-20.01
-20.63
-20.72
-20.24
-19.14
-17.37
-14.95
-12.00
-8.72
-5.42
-2.40
0.06
1.78
2.72
3.01
2.90
2.65
2.52
2.61
2.93
3.34
3.68
3.73
3.35
2.45
1.07
-0.61
-2.37
-3.92
-4.98
-5.34
-4.86
-3.48
-1.28
1.50
4.51
7.31
9.52
10.84
11.16
10.56
9.19
7.32
5.22
3.18
1.47
0.31
-0.18
0.00
0.76
1.90
3.19
4.42
5.40
6.02
6.24
6.09
5.64
5.00
4.24
3.43
2.67
2.03
1.62
1.45
1.46
1.50
1.37
0.99
0.36
-0.37
-1.06
-1.56
-1.85
-1.97
-2.02
-2.09
-2.27
-2.58
-3.05
-3.68
-4.44
-5.33
-6.26
-7.14
-7.74
-7.83
-7.16
-5.64
-3.35
-0.65
2.00
4.18
5.63
6.36
6.53
6.30
5.82
5.10
4.14
3.05
2.01
1.25
0.91
0.96
1.22
1.50
1.65
1.69
1.71
1.76
1.81
1.71
1.30
0.51
-0.56
-1.71
-2.75
-3.56
-4.13
-4.53
-4.85
-5.12
-5.37
-5.61
-5.85
-6.13
-6.44
-6.69
-6.72
-6.32
-5.31
-3.67
-1.54
0.79
2.99
4.81
6.11
6.90
7.25
7.29
7.07
6.65
6.03
5.26
4.38
3.49
2.67
2.00
1.56
1.33
1.26
1.24
1.16
0.94
0.57
0.10
-0.39
-0.78
-1.06
-1.25
-1.44
-1.75
-2.28
-3.01
-3.86
-4.67
-5.28
-5.61
-5.66
-5.59
-5.56
-5.70
-6.01
-6.32
-6.39
-5.96
-4.92
-3.27
-1.22
0.95
2.96
4.58
5.69
6.26
6.34
5.99
5.36
4.56
3.68
2.81
2.00
1.25
0.60
0.02
-0.47
-0.88
-1.24
-1.53
-1.76
-1.94
-2.09
-2.25
-2.47
-2.78
-3.17
-3.60
-4.00
-4.34
-4.61
-4.88
-5.23
-5.73
-6.42
-7.27
-8.15
-8.88
-9.17
-8.83
-7.78
-6.11
-4.06
-1.96
-0.05
1.53
2.77
3.69
4.28
4.50
4.28
3.67
2.81
1.91
1.16
0.64
0.33
0.16
0.08
0.09
0.15
0.23
0.24
0.09
-0.27
-0.78
-1.38
-1.96
-2.49
-3.02
-3.58
-4.20
-4.81
-5.35
-5.71
-5.86
-5.87
-5.82
-5.84
-6.01
-6.34
-6.75
-7.06
-7.05
-6.51
-5.33
-3.58
-1.44
0.79
2.82
4.45
5.63
6.42
6.92
7.19
7.20
6.91
6.34
5.57
4.81
4.27
4.07
4.15
4.31
4.33
4.04
3.45
2.67
1.89
1.22
0.67
0.20
-0.31
-0.90
-1.56
-2.27
-2.98
-3.64
-4.22
-4.68
-4.99
-5.16
-5.24
-5.32
-5.50
-5.85
-6.36
-6.94
-7.40
-7.48
-6.98
-5.79
-3.95
-1.71
0.61
2.68
4.27
5.30
5.85
6.01
5.90
5.56
5.02
4.31
3.55
2.87
2.41
2.31
2.58
3.16
3.96
4.80
5.54
6.01
6.14
5.86
5.21
4.34
3.40
2.53
1.76
1.00
0.09
-1.07
-2.48
-4.01
-5.42
-6.49
-7.08
-7.25
-7.14
-7.01
-7.08
-7.45
-8.06
-8.69
-9.04
-8.84
-7.97
-6.51
-4.62
-2.55
-0.50
1.40
3.07
4.42
5.40
5.98
6.18
6.08
5.76
5.25
4.60
3.86
3.14
2.62
2.43
2.62
3.06
3.45
3.56
3.27
2.72
2.16
1.81
1.72
1.74
1.63
1.19
0.44
-0.46
-1.28
-1.86
-2.23
-2.47
-2.76
-3.16
-3.71
-4.37
-5.16
-6.09
-7.20
-8.44
-9.70
-10.88
-11.88
-12.70
-13.38
-13.98
-14.53
-15.02
-15.44
-15.73
-15.89
-15.84
-15.50
-14.76
-13.53
-11.76
-9.46
-6.68
-3.46
0.15
4.10
8.23
12.34
16.26
19.83
23.07
26.08
29.01
31.93
34.80
37.45
39.66
41.25
42.11
42.21
41.56
40.15
37.90
34.73
30.57
25.44
19.49
12.96
6.16
-0.64
-7.26
-13.62
-19.70
-25.43
-30.64
-35.03
-38.25
-39.98
-40.09
-38.69
-36.14
-32.92
-29.52
-26.34
-23.58
-21.22
-19.11
-17.03
-14.80
-12.35
-9.72
-7.03
-4.38
-1.82
0.70
3.22
5.78
8.25
10.40
11.90
12.46
11.95
10.41
8.07
5.25
2.23
-0.81
-3.82
-6.86
-10.07
-13.55
-17.37
-21.52
-25.92
-30.52
-35.32
-40.42
-46.00
-52.25
-59.12
-66.13
-72.32
-76.32
-76.65
-72.10
-61.99
-46.28
-25.46
-0.41
27.69
57.36
86.86
114.42
138.60
158.42
173.26
182.59
185.60
181.42
169.52
150.31
125.40
97.35
69.09
43.25
21.73
5.53
-5.14
-10.82
-12.64
-12.13
-10.85
-9.87
-9.57
-9.79
-10.21
-10.76
-11.68
-13.21
-15.37
-17.89
-20.50
-23.17
-26.24
-30.20
-35.19
-40.69
-45.42
-47.89
-47.01
-42.74
-36.23
-29.43
-24.32
-22.19
-23.14
-26.23
-30.02
-33.25
-35.25
-36.02
-35.86
-34.98
-33.30
-30.59
-26.72
-21.91
-16.75
-11.98
-8.16
-5.38
-3.25
-1.16
1.45
4.70
8.27
11.53
13.87
14.94
14.82
13.88
12.62
11.42
10.38
9.38
8.24
6.86
5.33
3.96
3.13
3.02
3.63
4.75
6.17
7.80
9.67
11.81
14.15
16.39
18.07
18.65
17.75
15.26
11.43
6.72
1.70
-3.16
-7.62
-11.67
-15.55
-19.45
-23.50
-27.50
-31.10
-33.92
-35.76
-36.73
-37.10
-37.10
-36.77
-35.96
-34.43
-32.05
-28.98
-25.58
-22.26
-19.34
-16.88
-14.69
-12.49
-9.99
-7.03
-3.59
0.20
4.15
7.97
11.41
14.23
16.26
17.38
17.62
17.04
15.74
13.84
11.44
8.67
5.72
2.90
0.56
-0.96
-1.51
-1.14
-0.15
1.06
2.17
3.00
3.48
3.66
3.55
3.12
2.35
1.27
-0.03
-1.42
-2.79
-4.09
-5.27
-6.34
-7.24
-7.89
-8.12
-7.78
-6.80
-5.23
-3.27
-1.20
0.72
2.31
3.50
4.35
4.90
5.24
5.38
5.31
5.00
4.39
3.39
1.95
0.08
-2.09
-4.33
-6.41
-8.22
-9.74
-11.04
-12.16
-13.03
-13.56
-13.73
-13.64
-13.58
-13.82
-14.45
-15.35
-16.23
-16.82
-17.04
-17.05
-17.04
-17.10
-17.03
-16.39
-14.71
-11.70
-7.44
-2.43
2.57
6.80
9.66
10.94
10.84
9.78
8.29
6.78
5.39
4.15
3.06
2.31
2.26
3.29
5.57
8.79
12.23
15.04
16.58
16.65
15.56
13.81
11.87
9.99
8.12
6.15
4.02
1.80
-0.35
-2.26
-3.86
-5.13
-6.07
-6.67
-6.87
-6.61
-5.83
-4.57
-2.94
-1.14
0.60
2.04
3.02
3.43
3.30
2.77
2.04
1.34
0.84
0.64
0.72
1.04
1.47
1.94
2.35
2.67
2.92
3.06
3.10
3.00
2.76
2.41
2.00
1.59
1.22
0.87
0.44
-0.17
-1.02
-2.09
-3.23
-4.26
-5.04
-5.53
-5.80
-5.96
-6.08
-6.10
-5.90
-5.32
-4.32
-2.98
-1.46
0.01
1.29
2.35
3.25
4.06
4.82
5.49
5.97
6.15
5.98
5.48
4.81
4.16
3.64
3.27
2.93
2.44
1.71
0.76
-0.25
-1.12
-1.74
-2.10
-2.28
-2.36
-2.35
-2.22
-1.86
-1.21
-0.21
1.20
3.07
5.45
8.29
11.35
14.30
16.71
18.29
18.88
18.60
17.62
16.16
14.41
12.48
10.47
8.45
6.52
4.74
3.16
1.79
0.63
-0.33
-1.18
-2.04
-3.06
-4.39
-6.04
-7.85
-9.55
-10.80
-11.40
-11.33
-10.75
-9.88
-8.85
-7.70
-6.36
-4.77
-2.88
-0.67
2.05
5.61
10.36
16.45
23.53
30.78
37.22
42.09
45.06
46.27
45.95
44.07
40.37
34.53
26.64
17.38
7.91
-0.59
-7.33
-12.10
-15.14
-16.76
-17.18
-16.49
-14.78
-12.33
-9.59
-7.06
-5.11
-3.84
-3.13
-2.73
-2.41
-2.03
-1.54
-0.97
-0.38
0.19
0.73
1.22
1.65
2.00
2.27
2.41
2.38
2.12
1.51
0.46
-1.12
-3.28
-5.93
-8.83
-11.65
-14.04
-15.76
-16.76
-17.18
-17.26
-17.26
-17.35
-17.57
-17.84
-18.05
-18.09
-17.92
-17.57
-17.04
-16.33
-15.37
-14.06
-12.37
-10.36
-8.19
-6.10
-4.35
-3.05
-2.17
-1.57
-1.04
-0.44
0.24
0.93
1.58
2.13
2.64
3.21
3.93
4.79
5.73
6.62
7.35
7.89
8.25
8.45
8.49
8.35
7.97
7.34
6.48
5.44
4.27
3.03
1.80
0.61
-0.50
-1.52
-2.47
-3.39
-4.33
-5.29
-6.24
-7.11
-7.82
-8.33
-8.58
-8.56
-8.22
-7.52
-6.47
-5.14
-3.66
-2.15
-0.73
0.53
1.62
2.54
3.31
3.94
4.42
4.79
5.09
5.38
5.68
5.98
6.20
6.26
6.07
5.67
5.12
4.55
4.04
3.63
3.28
2.93
2.52
1.98
1.33
0.57
-0.29
-1.25
-2.31
-3.50
-4.83
-6.36
-8.04
-9.80
-11.44
-12.75
-13.63
-14.06
-14.18
-14.19
-14.19
-14.19
-14.09
-13.73
-12.98
-11.82
-10.28
-8.44
-6.38
-4.16
-1.82
0.56
2.88
4.98
6.75
8.10
8.96
9.37
9.33
8.90
8.11
7.03
5.81
4.71
3.95
3.69
3.89
4.31
4.63
4.58
4.09
3.28
2.40
1.69
1.22
0.94
0.67
0.29
-0.20
-0.70
-1.11
-1.37
-1.54
-1.80
-2.31
-3.14
-4.24
-5.50
-6.88
-8.40
-10.05
-11.67
-12.81
-12.79
-11.05
-7.46
-2.47
2.99
7.89
11.51
13.70
14.80
15.33
15.62
15.68
15.28
14.13
12.20
9.75
7.22
5.07
3.56
2.66
2.22
2.09
2.21
2.70
3.73
5.31
7.22
9.04
10.28
10.65
10.17
9.12
7.83
6.44
4.75
2.42
-0.80
-4.72
-8.72
-11.98
-13.88
-14.37
-13.97
-13.51
-13.69
-14.73
-16.37
-18.13
-19.58
-20.56
-21.17
-21.62
-22.05
-22.45
-22.71
-22.62
-21.90
-20.23
-17.30
-12.99
-7.48
-1.27
4.94
10.47
14.89
18.10
20.23
21.50
22.05
21.92
21.13
19.77
17.99
15.99
13.94
11.89
9.84
7.71
5.48
3.21
1.07
-0.73
-2.01
-2.67
-2.78
-2.56
-2.32
-2.36
-2.87
-3.86
-5.21
-6.67
-7.98
-8.91
-9.32
-9.13
-8.36
-7.11
-5.55
-3.81
-2.06
-0.38
1.15
2.46
3.45
4.07
4.24
3.93
3.18
2.06
0.68
-0.80
-2.19
-3.34
-4.09
-4.33
-3.97
-2.91
-1.05
1.65
5.07
8.93
12.75
16.04
18.40
19.64
19.79
18.99
17.48
15.43
13.03
10.47
7.90
5.39
2.88
0.16
-2.99
-6.60
-10.40
-13.88
-16.46
-17.87
-18.22
-17.94
-17.49
-17.07
-16.43
-15.07
-12.57
-8.96
-4.76
-0.81
2.18
3.92
4.69
5.16
6.08
7.95
10.88
14.63
18.80
23.09
27.45
32.08
37.27
43.10
49.45
55.92
62.13
67.80
72.83
77.09
80.04
80.75
78.10
71.37
60.75
47.31
32.46
17.24
2.08
-13.01
-27.63
-40.69
-50.51
-55.71
-56.09
-53.06
-49.05
-46.41
-46.23
-47.94
-49.74
-49.57
-46.09
-39.18
-29.90
-20.00
-11.32
-5.16
-1.92
-1.11
-1.65
-2.39
-2.58
-2.02
-1.05
-0.23
-0.06
-0.80
-2.35
-4.39
-6.56
-8.59
-10.46
-12.34
-14.39
-16.57
-18.44
-19.35
-18.75
-16.58
-13.35
-10.05
-7.59
-6.40
-6.16
-6.05
-5.18
-3.07
0.12
3.81
7.23
9.84
11.40
11.94
11.60
10.49
8.65
6.01
2.46
-2.08
-7.63
-14.06
-21.10
-28.37
-35.47
-42.03
-47.86
-52.92
-57.27
-61.00
-64.14
-66.59
-68.09
-68.28
-66.76
-63.23
-57.53
-49.68
-39.79
-28.09
-14.97
-1.01
13.03
26.31
38.12
48.04
55.97
62.03
66.40
69.26
70.73
71.03
70.48
69.44
68.22
66.89
65.33
63.27
60.51
56.97
52.72
47.89
42.62
37.02
31.29
25.69
20.56
16.25
12.99
10.84
9.66
9.22
9.26
9.57
9.99
10.35
10.51
10.35
9.83
9.01
7.99
6.90
5.76
4.48
2.93
1.02
-1.26
-3.71
-6.06
-7.99
-9.27
-9.82
-9.67
-8.91
-7.57
-5.57
-2.80
0.77
4.89
9.04
12.53
14.78
15.54
15.05
13.85
12.59
11.67
11.12
10.64
9.83
8.40
6.28
3.65
0.77
-2.06
-4.63
-6.71
-8.17
-8.95
-9.18
-9.20
-9.53
-10.77
-13.33
-17.37
-22.72
-28.99
-35.69
-42.39
-48.78
-54.73
-60.18
-65.04
-69.09
-72.00
-73.40
-73.07
-71.00
-67.45
-62.90
-57.81
-52.54
-47.24
-41.89
-36.43
-30.84
-25.23
-19.86
-14.91
-10.40
-6.15
-1.88
2.66
7.53
12.58
17.45
21.66
24.71
26.28
26.30
24.94
22.56
19.75
17.13
15.29
14.38
14.25
14.57
14.99
15.22
15.05
14.40
13.29
11.97
10.30
8.40
6.80
6.24
7.15
9.23
11.56
13.16
13.63
12.34
9.55
6.41
4.24
3.55
3.73
3.64
2.70
1.51
-0.20
-2.36
-4.52
-6.14
-7.35
-8.92
-11.94
-16.85
-23.35
-32.99
-46.92
-65.05
-85.97
-108.26
-131.67
-157.44
-187.45
-208.65
-211.36
-193.77
-162.96
-127.51
-92.31
-59.11
-28.93
-2.62
19.30
34.75
43.13
45.93
46.60
47.90
52.71
61.68
73.92
87.70
99.36
106.38
108.09
105.82
101.59
97.01
92.74
89.18
87.10
84.18
79.66
73.50
66.15
58.00
49.14
39.45
29.29
19.45
10.18
1.72
-6.09
-13.37
-20.04
-25.55
-29.09
-29.71
-26.73
-20.35
-11.18
-0.26
11.33
22.61
32.65
40.52
45.44
46.93
45.07
40.75
35.15
29.48
24.57
20.65
17.53
14.87
12.59
10.90
10.27
10.85
12.32
13.84
14.47
13.62
11.39
8.52
5.95
4.41
3.98
4.19
4.32
3.88
2.92
1.98
1.77
2.72
4.69
7.00
8.74
9.26
8.41
6.57
4.47
2.85
2.35
3.46
6.57
11.86
18.97
26.88
34.04
38.97
40.82
39.73
36.55
32.26
27.34
21.63
14.72
6.55
-2.16
-9.97
-15.33
-17.33
-16.10
-12.72
-8.80
-5.90
-5.12
-6.94
-11.24
-17.31
-24.15
-30.74
-36.31
-40.42
-43.03
-44.27
-44.36
-43.50
-41.94
-40.06
-38.41
-37.57
-37.83
-38.96
-40.16
-40.23
-38.00
-32.82
-24.82
-14.98
-4.78
4.33
11.35
16.07
19.01
21.13
23.36
26.24
29.73
33.38
36.55
38.78
39.94
40.19
39.93
39.48
39.00
38.34
37.12
34.84
31.04
25.51
18.40
10.25
1.85
-6.04
-12.94
-18.81
-24.00
-29.05
-34.38
-40.17
-46.24
-52.13
-57.26
-61.05
-63.10
-63.18
-61.24
-57.39
-51.94
-45.39
-38.47
-31.95
-26.31
-21.55
-17.13
-12.24
-6.35
0.39
7.08
12.51
15.78
16.77
16.24
15.39
15.26
16.33
18.35
20.66
22.50
23.20
22.24
19.24
14.05
6.81
-1.89
-11.19
-20.06
-27.67
-33.44
-37.17
-38.89
-38.74
-36.91
-33.65
-29.27
-24.14
-18.69
-13.21
-7.89
-2.81
2.03
6.58
10.78
14.57
17.86
20.52
22.36
23.14
22.69
21.05
18.56
15.77
13.28
11.55
10.72
10.69
11.19
12.02
13.02
14.01
14.82
15.15
14.78
13.67
12.06
10.41
9.16
8.63
8.87
9.69
10.80
11.88
12.75
13.42
14.09
15.09
16.74
19.19
22.30
25.51
28.01
28.84
27.31
23.27
17.19
10.06
3.01
-3.00
-7.53
-10.55
-12.36
-13.25
-13.32
-12.43
-10.31
-6.74
-1.64
4.89
12.55
20.73
28.55
34.94
38.94
40.05
38.39
34.65
29.65
24.02
17.96
11.41
4.37
-2.80
-9.33
-14.30
-17.01
-17.37
-15.84
-13.20
-10.24
-7.49
-5.21
-3.44
-2.22
-1.55
-1.38
-1.61
-2.00
-2.23
-1.99
-1.17
0.08
1.36
2.18
2.17
1.24
-0.36
-2.10
-3.29
-3.28
-1.57
2.05
7.41
13.87
20.38
25.57
28.00
26.54
20.78
11.18
-0.97
-13.89
-25.86
-35.70
-42.99
-48.07
-51.54
-53.91
-55.35
-55.69
-54.66
-52.13
-48.29
-43.48
-38.02
-32.03
-25.38
-17.97
-9.96
-1.82
5.79
12.27
17.35
21.08
23.74
25.68
27.03
27.72
27.54
26.25
23.85
20.56
16.90
13.47
10.84
9.33
8.93
9.25
9.68
9.55
8.41
6.15
3.04
-0.41
-3.60
-5.99
-7.32
-7.64
-7.27
-6.71
-6.48
-6.90
-7.95
-9.25
-10.19
-10.20
-9.03
-6.90
-4.41
-2.44
-1.78
-2.96
-6.08
-10.82
-16.51
-22.31
-27.35
-30.84
-32.31
-31.64
-29.07
-25.05
-20.04
-14.44
-8.51
-2.44
3.63
9.56
15.26
20.65
25.63
30.03
33.52
35.72
36.29
35.09
32.36
28.62
24.46
20.33
16.46
12.84
9.45
6.35
3.67
1.62
0.32
-0.21
-0.14
0.21
0.45
0.25
-0.50
-1.65
-2.77
-3.38
-3.12
-1.94
-0.08
2.01
3.94
5.42
6.36
6.75
6.57
5.80
4.56
3.12
1.89
1.25
1.44
2.37
3.77
5.21
6.33
6.88
6.77
6.09
4.97
3.66
2.41
1.42
0.74
0.25
-0.41
-1.65
-3.82
-7.06
-11.25
-16.06
-21.04
-25.81
-30.11
-33.82
-36.95
-39.51
-41.42
-42.50
-42.43
-40.87
-37.57
-32.41
-25.44
-16.87
-7.08
3.36
13.76
23.48
31.99
39.06
44.65
48.78
51.38
52.13
50.64
46.67
40.46
32.79
24.81
17.61
11.88
7.75
4.95
3.14
2.10
1.84
2.42
3.81
5.83
8.14
10.43
12.42
13.88
14.54
14.06
12.21
9.01
4.86
0.43
-3.61
-6.86
-9.34
-11.40
-13.44
-15.63
-17.86
-19.73
-20.69
-20.20
-17.91
-13.76
-8.05
-1.38
5.40
11.49
16.23
19.34
20.80
20.82
19.61
17.38
14.31
10.67
6.79
2.99
-0.52
-3.65
-6.39
-8.68
-10.37
-11.24
-11.08
-9.85
-7.75
-5.23
-2.83
-1.05
-0.15
-0.18
-0.99
-2.47
-4.48
-6.99
-9.87
-12.98
-16.04
-18.80
-21.07
-22.83
-24.13
-25.06
-25.66
-26.02
-26.35
-26.97
-28.17
-29.98
-32.03
-33.59
-33.78
-31.97
-28.01
-22.31
-15.56
-8.45
-1.37
5.53
12.24
18.72
24.71
29.81
33.55
35.51
35.40
33.07
28.58
22.13
14.16
5.29
-3.69
-11.95
-18.71
-23.54
-26.29
-27.21
-26.77
-25.53
-24.00
-22.43
-20.79
-18.80
-16.08
-12.29
-7.26
-1.18
5.38
11.60
16.59
19.69
20.64
19.60
17.07
13.63
9.91
6.46
3.74
2.17
1.98
3.14
5.29
7.74
9.74
10.64
10.19
8.51
5.98
3.07
0.21
-2.26
-4.07
-4.99
-4.86
-3.61
-1.37
1.58
4.81
7.87
10.39
12.14
13.10
13.36
13.16
12.79
12.56
12.70
13.32
14.40
15.87
17.59
19.38
20.95
21.96
22.20
21.64
20.52
19.27
18.26
17.64
17.29
16.98
16.53
15.92
15.28
14.69
14.14
13.50
12.67
11.63
10.49
9.37
8.30
7.16
5.82
4.14
2.06
-0.43
-3.26
-6.30
-9.35
-12.12
-14.45
-16.32
-17.91
-19.47
-21.15
-22.98
-24.91
-27.05
-29.78
-33.61
-38.91
-45.46
-52.40
-58.35
-61.92
-62.22
-59.09
-53.08
-45.05
-35.93
-26.50
-17.37
-8.96
-1.48
5.22
11.64
18.56
26.68
36.09
45.90
54.28
59.10
58.74
53.00
43.27
32.01
21.83
14.44
10.23
8.45
7.83
7.24
6.13
4.40
2.18
-0.48
-3.59
-7.11
-10.81
-14.30
-17.15
-19.00
-19.73
-19.45
-18.49
-17.29
-16.21
-15.42
-14.76
-13.79
-12.10
-9.53
-6.36
-3.18
-0.66
0.84
1.37
1.39
1.45
1.85
2.52
3.12
3.24
2.71
1.68
0.55
-0.24
-0.48
-0.29
-0.06
-0.26
-1.17
-2.86
-5.13
-7.70
-10.28
-12.65
-14.59
-15.84
-16.08
-15.06
-12.72
-9.34
-5.57
-2.11
0.55
2.42
3.97
5.90
8.76
12.62
17.09
21.49
25.26
28.19
30.47
32.48
34.42
36.18
37.36
37.44
36.03
33.02
28.64
23.34
17.63
12.03
6.90
2.44
-1.31
-4.43
-6.99
-9.05
-10.54
-11.38
-11.54
-11.18
-10.69
-10.54
-11.10
-12.40
-14.06
-15.43
-15.88
-15.13
-13.38
-11.26
-9.61
-9.05
-9.81
-11.65
-13.98
-16.06
-17.09
-16.33
-13.15
-7.31
0.94
10.74
20.85
29.94
36.94
41.31
43.02
42.38
39.90
36.21
31.99
27.97
24.77
22.76
21.90
21.77
21.71
21.07
19.32
16.21
11.69
5.93
-0.74
-7.86
-14.89
-21.24
-26.38
-29.88
-31.49
-31.17
-29.09
-25.54
-20.90
-15.44
-9.35
-2.75
4.17
11.03
17.34
22.64
26.75
29.83
32.33
34.62
36.62
37.64
36.56
32.29
24.32
13.01
-0.35
-13.80
-25.25
-32.99
-36.08
-34.68
-30.02
-24.01
-18.69
-15.48
-14.75
-15.90
-17.91
-20.02
-22.16
-24.80
-28.48
-33.14
-37.89
-41.28
-41.96
-39.32
-33.79
-26.53
-18.88
-11.70
-5.27
0.57
5.91
10.48
13.71
14.96
13.90
10.75
6.19
1.04
-3.96
-8.33
-11.81
-14.24
-15.60
-16.03
-15.87
-15.50
-15.19
-14.83
-14.05
-12.38
-9.59
-5.80
-1.41
3.06
7.25
11.00
14.42
17.68
20.90
24.09
27.10
29.63
31.35
31.96
31.31
29.49
26.81
23.71
20.63
17.83
15.44
13.44
11.83
10.68
10.16
10.41
11.44
13.06
14.92
16.60
17.73
18.10
17.69
16.67
15.30
13.84
12.44
11.13
9.79
8.36
6.80
5.15
3.48
1.78
-0.02
-2.02
-4.29
-6.77
-9.32
-11.77
-13.94
-15.75
-17.19
-18.35
-19.34
-20.25
-21.04
-21.55
-21.50
-20.76
-19.37
-17.66
-16.01
-14.68
-13.64
-12.57
-11.09
-9.06
-6.64
-4.28
-2.39
-1.18
-0.64
-0.67
-1.21
-2.26
-3.79
-5.56
-7.19
-8.28
-8.66
-8.48
-8.08
-7.74
-7.49
-7.10
-6.23
-4.66
-2.42
0.20
2.73
4.67
5.61
5.35
3.94
1.75
-0.64
-2.60
-3.71
-3.87
-3.41
-2.93
-3.06
-4.22
-6.50
-9.67
-13.29
-16.84
-19.79
-21.62
-21.94
-20.53
-17.44
-13.14
-8.49
-4.51
-2.08
-1.55
-2.62
-4.47
-6.11
-6.77
-6.13
-4.34
-1.88
0.67
2.89
4.58
5.76
6.54
6.98
6.95
6.25
4.78
2.75
0.70
-0.75
-1.27
-1.11
-1.15
-2.50
-6.01
-11.72
-18.85
-26.10
-32.21
-36.50
-39.03
-40.41
-41.28
-41.92
-41.98
-40.69
-37.14
-30.45
-19.92
-5.05
14.26
37.26
61.92
84.92
102.30
110.67
108.36
96.02
76.28
52.82
29.12
7.66
-10.36
-24.71
-35.67
-43.62
-48.78
-51.19
-50.77
-47.57
-41.92
-34.48
-26.03
-17.14
-8.01
1.48
11.30
20.95
29.32
35.17
37.72
37.09
34.33
30.92
28.12
26.46
25.69
25.18
24.34
22.99
21.31
19.66
18.29
17.21
16.28
15.32
14.29
13.28
12.45
11.89
11.55
11.30
10.97
10.39
9.48
8.25
6.81
5.39
4.20
3.42
3.08
3.09
3.29
3.47
3.47
3.19
2.57
1.66
0.64
-0.26
-0.81
-0.96
-0.87
-0.90
-1.34
-2.29
-3.49
-4.44
-4.64
-3.76
-1.82
0.93
4.05
7.13
9.71
11.39
11.87
11.06
9.19
6.70
4.11
1.73
-0.35
-2.25
-4.02
-5.61
-6.85
-7.64
-7.99
-8.01
-7.76
-7.16
-5.95
-3.88
-0.91
2.69
6.39
9.68
12.22
13.88
14.70
14.75
14.18
13.15
11.88
10.60
9.42
8.24
6.90
5.24
3.35
1.53
0.12
-0.77
-1.40
-2.37
-4.25
-7.33
-11.40
-15.94
-20.35
-24.21
-27.33
-29.62
-30.92
-31.07
-30.05
-28.19
-26.09
-24.34
-23.15
-22.10
-20.25
-16.67
-10.94
-3.48
4.59
11.87
17.26
20.19
20.71
19.26
16.44
12.83
8.85
4.85
1.14
-1.93
-3.99
-4.73
-3.98
-1.73
1.82
6.33
11.30
16.14
20.15
22.60
22.76
20.11
14.47
6.19
-3.87
-14.46
-24.19
-31.84
-36.65
-38.40
-37.46
-34.64
-30.85
-26.90
-23.30
-20.16
-17.27
-14.24
-10.58
-5.93
-0.12
6.70
14.06
21.25
27.56
32.42
35.63
37.39
38.15
38.30
37.99
36.90
34.41
29.90
23.04
13.99
3.50
-7.41
-17.65
-26.43
-33.33
-38.31
-41.48
-42.95
-42.79
-41.08
-38.09
-34.30
-30.35
-26.72
-23.66
-21.08
-18.74
-16.40
-13.97
-11.53
-9.24
-7.21
-5.53
-4.21
-3.26
-2.68
-2.44
-2.48
-2.78
-3.38
-4.31
-5.60
-7.18
-8.80
-10.12
-10.75
-10.31
-8.54
-5.44
-1.37
2.94
6.55
8.68
9.05
8.02
6.43
5.21
4.93
5.61
6.79
7.83
8.26
7.95
7.20
6.50
6.34
7.01
8.44
10.35
12.32
14.01
15.26
16.09
16.62
16.98
17.26
17.50
17.75
17.99
18.07
17.66
16.34
13.85
10.34
6.37
2.78
0.30
-0.66
-0.20
1.22
2.93
4.32
4.96
4.74
3.82
2.55
1.27
0.25
-0.42
-0.82
-1.09
-1.34
-1.60
-1.82
-1.98
-2.11
-2.33
-2.81
-3.67
-4.96
-6.62
-8.43
-10.16
-11.53
-12.35
-12.64
-12.58
-12.45
-12.58
-13.21
-14.36
-15.82
-17.18
-17.94
-17.77
-16.56
-14.46
-11.81
-8.83
-5.63
-2.12
1.81
6.18
10.80
15.32
19.35
22.53
24.68
25.81
26.17
26.15
26.16
26.45
26.98
27.46
27.52
27.00
25.97
24.68
23.32
21.79
19.71
16.66
12.51
7.63
2.83
-0.91
-2.89
-2.93
-1.57
0.24
1.36
0.94
-1.36
-5.32
-10.31
-15.54
-20.28
-23.98
-26.25
-26.90
-25.96
-23.76
-20.86
-17.75
-14.66
-11.46
-7.87
-3.78
0.50
4.24
6.61
6.97
5.13
1.37
-3.79
-9.79
-16.00
-21.68
-26.01
-28.19
-27.77
-24.80
-19.78
-13.46
-6.57
0.34
6.81
12.49
17.09
20.52
22.90
24.52
25.64
26.33
26.38
25.37
23.01
19.37
15.01
10.87
8.02
7.23
8.60
11.28
13.57
13.44
9.37
1.01
-10.57
-23.24
-34.67
-43.14
-47.97
-49.37
-48.01
-44.59
-39.74
-34.18
-28.78
-24.43
-21.73
-20.67
-20.67
-20.94
-20.85
-20.20
-19.07
-17.64
-16.07
-14.48
-13.10
-12.31
-12.47
-13.58
-15.16
-16.36
-16.44
-15.20
-13.10
-11.01
-9.78
-9.73
-10.47
-11.10
-10.67
-8.57
-4.78
0.16
5.34
9.70
12.33
12.72
10.92
7.59
3.80
0.71
-0.86
-0.73
0.59
2.17
3.06
2.63
0.77
-2.17
-5.62
-8.93
-11.54
-13.00
-12.98
-11.34
-8.24
-4.09
0.48
4.75
8.09
10.07
10.48
9.25
6.58
2.81
-1.48
-5.59
-8.94
-11.20
-12.38
-12.71
-12.45
-11.69
-10.31
-8.11
-5.05
-1.31
2.83
7.24
12.09
17.88
24.94
33.10
41.38
48.13
51.54
50.33
44.21
34.01
21.34
8.01
-4.31
-14.47
-21.82
-26.12
-27.42
-25.98
-22.25
-16.87
-10.64
-4.36
1.45
6.60
11.30
15.88
20.53
25.02
28.74
30.98
31.44
30.44
28.87
27.70
27.47
27.93
28.25
27.43
24.82
20.36
14.53
8.04
1.54
-4.52
-9.84
-14.15
-17.22
-18.99
-19.71
-19.95
-20.46
-21.85
-24.37
-27.85
-31.77
-35.48
-38.34
-39.86
-39.75
-37.96
-34.77
-30.69
-26.43
-22.55
-19.26
-16.32
-13.14
-9.11
-3.91
2.30
8.94
15.21
20.39
24.06
26.04
26.39
25.32
23.11
20.17
16.99
14.02
11.61
9.88
8.70
7.72
6.56
4.91
2.63
-0.14
-3.16
-6.10
-8.74
-10.90
-12.48
-13.33
-13.33
-12.42
-10.70
-8.60
-6.71
-5.68
-5.91
-7.41
-9.85
-12.70
-15.50
-17.89
-19.71
-20.80
-20.96
-20.04
-18.07
-15.39
-12.64
-10.53
-9.54
-9.77
-10.89
-12.41
-13.85
-14.93
-15.62
-16.01
-16.25
-16.43
-16.63
-16.87
-17.14
-17.32
-17.21
-16.51
-14.92
-12.26
-8.45
-3.61
2.06
8.23
14.49
20.37
25.46
29.54
32.75
35.58
38.76
43.06
48.92
56.15
63.91
70.81
75.43
76.72
74.40
68.94
61.35
52.75
44.01
35.67
28.01
21.32
15.93
12.15
10.07
9.45
9.72
10.22
10.45
10.25
9.81
9.48
9.58
10.21
11.18
12.08
12.46
12.01
10.59
8.34
5.53
2.48
-0.48
-3.15
-5.45
-7.43
-9.21
-10.94
-12.72
-14.62
-16.56
-18.43
-20.05
-21.30
-22.14
-22.59
-22.77
-22.82
-22.84
-22.86
-22.85
-22.70
-22.37
-21.87
-21.31
-20.79
-20.36
-19.94
-19.37
-18.51
-17.34
-16.05
-14.92
-14.24
-14.12
-14.45
-14.88
-14.99
-14.46
-13.12
-11.01
-8.27
-5.12
-1.65
2.14
6.40
11.32
16.96
23.22
29.74
36.00
41.43
45.60
48.24
49.36
49.11
47.73
45.47
42.61
39.38
35.96
32.50
29.04
25.52
21.78
17.67
13.19
8.61
4.44
1.28
-0.43
-0.70
0.00
0.92
1.27
0.60
-1.18
-3.86
-7.23
-11.19
-15.77
-20.89
-26.18
-30.92
-34.25
-35.46
-34.34
-31.19
-26.77
-21.97
-17.55
-13.99
-11.48
-9.97
-9.29
-9.20
-9.36
-9.44
-9.12
-8.18
-6.56
-4.39
-1.93
0.41
2.18
3.05
2.88
1.81
0.20
-1.45
-2.71
-3.33
-3.30
-2.84
-2.34
-2.22
-2.90
-4.60
-7.33
-10.76
-14.31
-17.23
-18.94
-19.17
-18.06
-16.12
-13.90
-11.82
-10.04
-8.46
-7.00
-5.68
-4.66
-4.22
-4.52
-5.52
-6.91
-8.21
-8.86
-8.32
-6.22
-2.43
2.82
8.98
15.32
21.10
25.78
29.16
31.27
32.25
32.24
31.37
29.81
27.90
26.12
24.98
24.77
25.44
26.58
27.62
28.05
27.67
26.62
25.32
24.18
23.40
22.84
22.08
20.67
18.43
15.52
12.47
9.86
8.17
7.52
7.71
8.28
8.71
8.63
7.84
6.42
4.58
2.59
0.71
-0.87
-2.09
-2.98
-3.59
-3.97
-4.20
-4.39
-4.64
-5.07
-5.72
-6.50
-7.19
-7.49
-7.11
-5.89
-3.93
-1.53
0.86
2.81
4.06
4.56
4.41
3.79
2.91
1.89
0.87
-0.07
-0.86
-1.50
-2.04
-2.57
-3.19
-3.92
-4.67
-5.36
-5.92
-6.35
-6.72
-7.12
-7.60
-8.17
-8.83
-9.63
-10.69
-12.23
-14.46
-17.53
-21.48
-26.24
-31.62
-37.32
-42.97
-48.19
-52.61
-56.00
-58.31
-59.63
-60.08
-59.67
-58.22
-55.47
-51.13
-45.03
-37.24
-27.99
-17.70
-6.98
3.37
12.44
19.27
23.18
23.96
21.95
18.04
13.32
8.85
5.40
3.38
2.87
3.69
5.48
7.81
10.26
12.51
14.39
15.93
17.24
18.44
19.54
20.45
20.99
20.96
20.32
19.11
17.52
15.72
13.87
12.00
10.13
8.30
6.58
5.11
3.93
3.05
2.33
1.64
0.86
-0.01
-0.89
-1.64
-2.16
-2.43
-2.47
-2.38
-2.30
-2.30
-2.43
-2.61
-2.73
-2.65
-2.31
-1.78
-1.22
-0.84
-0.85
-1.33
-2.24
-3.42
-4.63
-5.58
-6.05
-5.94
-5.30
-4.30
-3.19
-2.19
-1.44
-0.95
-0.69
-0.58
-0.56
-0.56
-0.46
-0.13
0.56
1.61
2.93
4.32
5.58
6.58
7.31
7.81
8.14
8.35
8.45
8.48
8.50
8.55
8.66
8.75
8.70
8.36
7.68
6.68
5.45
4.12
2.76
1.38
-0.03
-1.44
-2.71
-3.67
-4.13
-3.99
-3.30
-2.27
-1.18
-0.25
0.37
0.67
0.69
0.48
0.05
-0.59
-1.39
-2.22
-2.90
-3.29
-3.34
-3.11
-2.80
-2.56
-2.50
-2.62
-2.78
-2.85
-2.76
-2.55
-2.34
-2.30
-2.52
-2.96
-3.49
-3.93
-4.16
-4.17
-4.06
-3.94
-3.87
-3.78
-3.53
-2.95
-1.96
-0.59
1.01
2.67
4.18
5.37
6.16
6.47
6.34
5.88
5.27
4.68
4.21
3.89
3.69
3.55
3.46
3.43
3.47
3.54
3.54
3.36
2.97
2.40
1.78
1.24
0.85
0.61
0.48
0.40
0.30
0.10
-0.30
-1.00
-2.04
-3.33
-4.66
-5.75
-6.31
-6.20
-5.46
-4.34
-3.14
-2.13
-1.46
-1.13
-1.04
-1.06
-1.15
-1.31
-1.61
-2.08
-2.66
-3.19
-3.47
-3.31
-2.67
-1.60
-0.26
1.16
2.51
3.69
4.65
5.38
5.84
5.96
5.58
4.66
3.19
1.33
-0.67
-2.55
-4.10
-5.22
-5.91
-6.19
-6.06
-5.49
-4.46
-3.01
-1.28
0.50
2.10
3.36
4.22
4.68
4.79
4.60
4.11
3.36
2.45
1.56
0.90
0.58
0.62
0.86
1.06
1.02
0.70
0.20
-0.29
-0.59
-0.68
-0.65
-0.63
-0.74
-0.95
-1.19
-1.34
-1.36
-1.28
-1.16
-1.09
-1.13
-1.30
-1.60
-2.05
-2.58
-3.09
-3.45
-3.53
-3.27
-2.71
-1.99
-1.25
-0.59
-0.07
0.38
0.79
1.20
1.59
1.90
2.08
2.11
2.05
1.97
1.94
1.93
1.90
1.76
1.48
1.11
0.75
0.52
0.48
0.62
0.82
0.97
0.91
0.58
-0.03
-0.81
-1.59
-2.22
-2.58
-2.67
-2.55
-2.32
-2.13
-2.07
-2.19
-2.51
-2.95
-3.40
-3.68
-3.61
-3.06
-2.04
-0.70
0.72
1.98
2.92
3.51
3.75
3.71
3.45
3.03
2.56
2.17
1.98
2.02
2.23
2.48
2.67
2.79
2.92
3.15
3.53
3.98
4.38
4.60
4.54
4.22
3.70
3.05
2.28
1.43
0.51
-0.39
-1.15
-1.69
-1.96
-2.00
-1.89
-1.79
-1.81
-2.00
-2.35
-2.78
-3.19
-3.45
-3.51
-3.33
-2.89
-2.22
-1.38
-0.47
0.43
1.21
1.78
2.10
2.17
2.00
1.64
1.13
0.54
-0.00
-0.36
-0.39
-0.05
0.58
1.31
1.90
2.22
2.24
2.05
1.82
1.62
1.45
1.23
0.88
0.38
-0.26
-0.95
-1.67
-2.35
-2.96
-3.39
-3.55
-3.38
-2.95
-2.41
-1.95
-1.71
-1.65
-1.63
-1.41
-0.78
0.32
1.84
3.59
5.34
6.88
8.05
8.75
8.98
8.79
8.28
7.57
6.74
5.86
4.97
4.06
3.11
2.11
1.07
0.05
-0.88
-1.65
-2.26
-2.74
-3.17
-3.66
-4.29
-5.12
-6.14
-7.26
-8.37
-9.30
-9.93
-10.22
-10.22
-10.10
-10.01
-9.99
-9.89
-9.38
-8.05
-5.57
-1.84
2.91
8.24
13.58
18.43
22.51
25.68
28.00
29.54
30.38
30.53
30.04
28.97
27.47
25.74
23.99
22.35
20.87
19.54
18.27
17.02
15.79
14.70
13.98
13.85
14.49
15.89
17.81
19.84
21.52
22.42
22.30
21.16
19.21
16.79
14.23
11.79
9.57
7.51
5.47
3.33
1.04
-1.31
-3.55
-5.48
-6.92
-7.80
-8.10
-7.87
-7.24
-6.33
-5.28
-4.22
-3.27
-2.59
-2.44
-3.07
-4.71
-7.34
-10.69
-14.21
-17.26
-19.37
-20.26
-19.91
-18.41
-15.88
-12.45
-8.31
-3.77
0.80
5.06
8.81
11.93
14.35
15.83
16.07
14.85
12.29
8.78
4.98
1.49
-1.34
-3.37
-4.62
-4.99
-4.26
-2.22
1.13
5.41
9.98
14.18
17.64
20.40
22.83
25.43
28.54
32.23
36.33
40.52
44.51
48.10
51.12
53.40
54.66
54.48
52.45
48.31
42.09
34.16
25.13
15.57
5.83
-4.07
-14.25
-24.80
-35.64
-46.52
-57.22
-67.60
-77.55
-86.76
-94.44
-99.40
-100.42
-96.89
-89.38
-79.69
-70.34
-63.56
-60.45
-60.58
-62.32
-63.64
-63.01
-59.88
-54.64
-48.20
-41.46
-35.04
-29.15
-23.82
-19.15
-15.36
-12.78
-11.67
-12.02
-13.54
-15.71
-18.03
-20.25
-22.59
-25.51
-29.28
-33.39
-36.38
-36.20
-31.06
-20.34
-5.12
12.10
28.15
40.19
46.52
46.75
41.67
32.76
21.74
10.20
-0.52
-9.42
-15.87
-19.64
-20.83
-19.93
-17.65
-14.86
-12.29
-10.30
-8.77
-7.18
-4.92
-1.60
2.68
7.31
11.40
14.09
14.80
13.39
10.23
6.04
1.79
-1.55
-3.20
-2.75
-0.22
4.05
9.57
15.87
22.62
29.63
36.71
43.66
50.19
55.99
60.82
64.57
67.29
69.16
70.47
71.53
72.50
73.30
73.50
72.45
69.62
64.86
58.49
51.18
43.57
35.92
27.95
18.99
8.28
-4.58
-19.43
-35.42
-51.25
-65.39
-76.47
-83.53
-86.22
-84.82
-80.08
-73.03
-64.75
-56.15
-47.93
-40.53
-34.19
-28.98
-24.86
-21.71
-19.38
-17.69
-16.46
-15.49
-14.69
-14.03
-13.63
-13.61
-14.05
-14.92
-16.04
-17.17
-18.09
-18.65
-18.80
-18.51
-17.80
-16.74
-15.42
-13.96
-12.51
-11.14
-9.86
-8.60
-7.24
-5.70
-3.95
-2.04
-0.02
2.08
4.26
6.50
8.75
10.86
12.66
14.05
15.04
15.80
16.51
17.27
17.99
18.53
18.77
18.81
19.01
19.76
21.23
23.22
25.19
26.45
26.54
25.37
23.20
20.44
17.43
14.27
10.91
7.26
3.35
-0.60
-4.26
-7.29
-9.46
-10.76
-11.39
-11.73
-12.18
-12.98
-14.17
-15.50
-16.67
-17.36
-17.40
-16.73
-15.39
-13.43
-11.00
-8.29
-5.60
-3.28
-1.57
-0.60
-0.30
-0.50
-0.95
-1.42
-1.75
-1.86
-1.76
-1.53
-1.26
-1.03
-0.87
-0.74
-0.57
-0.32
0.00
0.35
0.66
0.91
1.11
1.25
1.28
1.11
0.65
-0.12
-1.14
-2.24
-3.28
-4.11
-4.71
-5.13
-5.43
-5.69
-5.90
-6.00
-5.92
-5.63
-5.21
-4.81
-4.56
-4.56
-4.73
-4.95
-5.03
-4.88
-4.52
-4.05
-3.58
-3.20
-2.96
-2.88
-2.98
-3.29
-3.83
-4.50
-5.14
-5.53
-5.52
-5.02
-4.08
-2.80
-1.30
0.30
1.95
3.56
5.07
6.43
7.59
8.51
9.15
9.48
9.46
9.06
8.32
7.32
6.19
5.06
4.05
3.20
2.51
1.97
1.53
1.14
0.77
0.37
-0.10
-0.70
-1.45
-2.36
-3.35
-4.34
-5.20
-5.87
-6.36
-6.76
-7.20
-7.77
-8.51
-9.36
-10.19
-10.81
-11.05
-10.75
-9.86
-8.43
-6.65
-4.77
-3.03
-1.58
-0.42
0.59
1.61
2.74
3.99
5.26
6.49
7.65
8.81
10.08
11.52
13.08
14.62
15.88
16.62
16.68
16.06
14.86
13.27
11.45
9.53
7.64
5.96
4.69
4.04
4.08
4.69
5.53
6.21
6.45
6.18
5.57
4.83
4.07
3.16
1.79
-0.37
-3.47
-7.39
-11.74
-15.97
-19.58
-22.14
-23.37
-23.06
-21.07
-17.38
-12.13
-5.71
1.26
8.07
14.04
18.73
22.01
23.99
24.92
25.05
24.59
23.73
22.64
21.48
20.42
19.57
19.03
18.82
18.97
19.41
20.01
20.50
20.55
19.90
18.43
16.22
13.57
10.79
8.16
5.86
3.92
2.30
0.99
-0.07
-0.96
-1.80
-2.74
-3.91
-5.34
-6.95
-8.64
-10.26
-11.79
-13.22
-14.54
-15.71
-16.64
-17.22
-17.39
-17.17
-16.58
-15.64
-14.26
-12.38
-9.98
-7.16
-4.15
-1.31
1.10
2.91
4.16
5.07
5.90
6.86
8.01
9.27
10.45
11.38
11.95
12.15
12.03
11.71
11.23
10.63
9.91
9.05
8.03
6.85
5.54
4.20
2.97
1.99
1.33
0.94
0.67
0.31
-0.31
-1.23
-2.35
-3.55
-4.69
-5.69
-6.53
-7.17
-7.58
-7.74
-7.68
-7.49
-7.28
-7.13
-6.95
-6.56
-5.75
-4.40
-2.56
-0.37
1.99
4.41
6.82
9.18
11.36
13.13
14.29
14.73
14.53
13.97
13.44
13.26
13.57
14.31
15.27
16.13
16.59
16.42
15.48
13.81
11.58
9.05
6.51
4.16
2.06
0.13
-1.72
-3.58
-5.40
-7.05
-8.44
-9.56
-10.53
-11.54
-12.70
-13.99
-15.28
-16.43
-17.30
-17.86
-18.06
-17.85
-17.17
-15.97
-14.28
-12.26
-10.14
-8.19
-6.62
-5.52
-4.84
-4.43
-4.05
-3.50
-2.67
-1.55
-0.21
1.24
2.71
4.19
5.65
7.08
8.34
9.25
9.62
9.29
8.21
6.44
4.08
1.28
-1.73
-4.74
-7.44
-9.57
-10.91
-11.42
-11.12
-10.15
-8.68
-6.89
-5.02
-3.29
-1.98
-1.26
-1.19
-1.66
-2.41
-3.19
-3.80
-4.20
-4.41
-4.45
-4.32
-3.97
-3.44
-2.80
-2.27
-2.04
-2.26
-2.91
-3.81
-4.67
-5.08
-4.70
-3.26
-0.65
2.99
7.34
11.92
16.21
19.88
22.82
25.20
27.44
29.98
33.19
37.14
41.60
45.96
49.38
50.96
49.97
46.14
39.70
31.44
22.42
13.76
6.24
0.20
-4.48
-8.16
-11.21
-13.84
-15.96
-17.34
-17.72
-17.00
-15.26
-12.73
-9.68
-6.30
-2.77
0.69
3.67
5.49
5.39
2.75
-2.66
-10.44
-19.63
-28.99
-37.32
-43.78
-47.92
-49.68
-49.24
-46.93
-43.17
-38.40
-33.10
-27.62
-22.22
-17.09
-12.36
-8.25
-4.99
-2.73
-1.46
-0.85
-0.40
0.46
2.21
5.15
9.40
14.84
21.18
27.84
34.07
39.01
41.91
42.24
39.89
35.16
28.76
21.59
14.60
8.51
3.73
0.28
-2.04
-3.52
-4.38
-4.72
-4.58
-4.08
-3.44
-2.96
-2.83
-3.07
-3.54
-3.96
-4.13
-3.95
-3.51
-3.01
-2.74
-2.94
-3.79
-5.33
-7.47
-10.02
-12.73
-15.30
-17.46
-18.97
-19.67
-19.57
-18.83
-17.82
-17.01
-16.84
-17.58
-19.24
-21.67
-24.59
-27.77
-30.97
-34.05
-36.82
-39.10
-40.76
-41.69
-41.87
-41.24
-39.78
-37.47
-34.35
-30.50
-25.96
-20.67
-14.41
-6.83
2.43
13.50
26.19
39.78
53.22
65.24
74.67
80.73
83.13
82.05
78.05
71.79
63.90
54.83
44.96
34.59
24.13
14.04
4.81
-3.18
-9.75
-14.90
-18.79
-21.65
-23.62
-24.72
-24.83
-23.74
-21.38
-17.84
-13.49
-8.79
-4.29
-0.35
2.80
5.14
6.70
7.53
7.65
7.09
5.91
4.33
2.58
0.97
-0.27
-0.97
-1.11
-0.78
-0.15
0.59
1.27
1.75
2.00
2.04
1.94
1.75
1.47
1.05
0.45
-0.34
-1.30
-2.37
-3.44
-4.38
-5.07
-5.36
-5.20
-4.69
-4.11
-3.85
-4.32
-5.80
-8.25
-11.36
-14.58
-17.39
-19.49
-20.90
-21.95
-23.11
-24.79
-27.15
-30.05
-33.15
-36.11
-38.64
-40.56
-41.65
-41.60
-39.98
-36.34
-30.41
-22.24
-12.25
-1.17
10.09
20.63
29.67
36.65
41.24
43.32
43.03
40.67
36.66
31.47
25.62
19.67
14.12
9.46
6.07
4.19
3.82
4.73
6.46
8.46
10.25
11.57
12.38
12.82
13.07
13.18
13.07
12.58
11.55
9.89
7.63
4.90
1.76
-1.72
-5.55
-9.84
-14.71
-20.23
-26.41
-33.17
-40.38
-47.80
-55.08
-61.59
-66.40
-68.40
-66.47
-60.03
-49.33
-35.57
-20.49
-5.87
7.07
17.94
27.06
35.07
42.47
49.35
55.43
60.20
63.26
64.35
63.47
60.73
56.35
50.64
44.00
36.95
30.06
23.87
18.78
14.94
12.20
10.19
8.46
6.67
4.73
2.78
1.15
0.10
-0.27
-0.14
0.10
0.03
-0.66
-2.05
-4.00
-6.17
-8.14
-9.54
-10.14
-9.93
-9.06
-7.90
-6.82
-6.15
-6.04
-6.41
-7.06
-7.67
-8.03
-8.06
-7.85
-7.55
-7.32
-7.19
-7.07
-6.82
-6.29
-5.44
-4.34
-3.12
-1.92
-0.82
0.14
0.95
1.57
1.93
2.01
1.85
1.59
1.40
1.44
1.80
2.45
3.31
4.23
5.10
5.83
6.38
6.75
6.97
7.07
7.05
6.84
6.34
5.49
4.29
2.85
1.36
-0.01
-1.16
-2.14
-3.07
-4.09
-5.28
-6.60
-7.91
-9.05
-9.86
-10.26
-10.17
-9.55
-8.35
-6.61
-4.47
-2.17
-0.04
1.64
2.72
3.22
3.30
3.14
2.88
2.56
2.19
1.82
1.55
1.52
1.81
2.41
3.17
3.89
4.40
4.63
4.57
4.28
3.81
3.19
2.46
1.68
0.89
0.13
-0.57
-1.25
-1.93
-2.64
-3.44
-4.31
-5.24
-6.16
-6.93
-7.37
-7.31
-6.61
-5.28
-3.48
-1.41
0.64
2.47
3.91
4.88
5.39
5.55
5.52
5.46
5.45
5.48
5.44
5.20
4.71
4.10
3.56
3.29
3.35
3.63
3.93
4.04
3.87
3.43
2.81
2.11
1.37
0.65
-0.01
-0.53
-0.85
-0.99
-1.05
-1.18
-1.50
-2.08
-2.81
-3.55
-4.12
-4.37
-4.19
-3.56
-2.47
-0.96
0.84
2.79
4.71
6.42
7.82
8.86
9.51
9.80
9.71
9.29
8.58
7.68
6.71
5.77
4.97
4.34
3.87
3.53
3.27
3.08
2.89
2.67
2.33
1.83
1.13
0.24
-0.73
-1.65
-2.40
-2.93
-3.31
-3.62
-3.96
-4.36
-4.83
-5.34
-5.93
-6.59
-7.31
-7.95
-8.29
-8.09
-7.20
-5.65
-3.64
-1.46
0.67
2.61
4.30
5.75
6.94
7.81
8.32
8.47
8.34
8.05
7.74
7.46
7.23
7.03
6.87
6.75
6.65
6.53
6.32
5.96
5.41
4.73
4.02
3.38
2.82
2.28
1.64
0.80
-0.23
-1.33
-2.34
-3.12
-3.68
-4.11
-4.54
-5.04
-5.61
-6.21
-6.82
-7.41
-7.95
-8.34
-8.33
-7.70
-6.33
-4.32
-1.93
0.48
2.65
4.49
6.06
7.45
8.75
9.88
10.77
11.34
11.58
11.59
11.53
11.58
11.87
12.51
13.54
14.92
16.50
18.04
19.28
19.96
19.92
19.15
17.82
16.18
14.51
12.98
11.67
10.49
9.28
7.89
6.24
4.34
2.31
0.26
-1.64
-3.34
-4.81
-6.08
-7.23
-8.31
-9.37
-10.43
-11.47
-12.46
-13.29
-13.80
-13.81
-13.16
-11.82
-9.92
-7.76
-5.74
-4.21
-3.33
-3.07
-3.20
-3.48
-3.72
-3.83
-3.79
-3.61
-3.28
-2.76
-2.06
-1.22
-0.38
0.35
0.85
1.07
0.98
0.59
-0.15
-1.24
-2.67
-4.42
-6.36
-8.39
-10.36
-12.16
-13.73
-15.03
-16.07
-16.89
-17.56
-18.09
-18.53
-18.85
-18.98
-18.80
-18.17
-17.02
-15.36
-13.30
-11.06
-8.90
-7.00
-5.44
-4.18
-3.15
-2.28
-1.58
-1.06
-0.73
-0.53
-0.34
-0.03
0.47
1.16
1.95
2.73
3.39
3.87
4.15
4.25
4.19
4.01
3.70
3.24
2.58
1.70
0.67
-0.37
-1.24
-1.86
-2.26
-2.58
-3.02
-3.72
-4.71
-5.87
-7.04
-8.01
-8.64
-8.82
-8.50
-7.75
-6.68
-5.50
-4.37
-3.41
-2.66
-2.04
-1.49
-1.01
-0.64
-0.47
-0.50
-0.62
-0.68
-0.55
-0.19
0.33
0.86
1.26
1.47
1.51
1.45
1.35
1.22
1.06
0.87
0.63
0.37
0.11
-0.10
-0.22
-0.17
0.04
0.37
0.69
0.82
0.64
0.17
-0.45
-0.99
-1.25
-1.14
-0.65
0.09
0.99
2.00
3.05
4.07
4.92
5.40
5.40
4.87
3.85
2.45
0.78
-1.10
-3.14
-5.25
-7.34
-9.24
-10.85
-12.08
-12.97
-13.60
-14.12
-14.64
-15.23
-15.94
-16.82
-17.93
-19.31
-20.99
-22.93
-25.07
-27.36
-29.76
-32.22
-34.63
-36.79
-38.44
-39.26
-39.00
-37.50
-34.74
-30.76
-25.67
-19.63
-12.77
-5.31
2.59
10.81
19.29
28.04
37.05
46.17
55.07
63.24
70.00
74.65
76.62
75.64
71.86
65.81
58.24
49.79
40.86
31.57
21.89
11.94
2.16
-6.61
-13.35
-17.09
-17.23
-13.74
-7.10
1.70
11.47
20.98
29.26
35.71
40.14
42.64
43.42
42.65
40.42
36.90
32.33
27.12
21.76
16.73
12.32
8.72
5.92
3.80
2.16
0.76
-0.69
-2.43
-4.61
-7.21
-10.09
-13.01
-15.77
-18.24
-20.31
-21.96
-23.15
-23.83
-24.02
-23.78
-23.21
-22.46
-21.58
-20.61
-19.52
-18.27
-16.78
-14.96
-12.73
-9.99
-6.70
-2.93
1.17
5.28
9.10
12.37
14.93
16.79
17.99
18.60
18.64
18.16
17.26
16.16
15.18
14.57
14.48
14.80
15.23
15.42
15.08
14.13
12.62
10.68
8.44
6.01
3.51
1.04
-1.35
-3.71
-6.19
-8.96
-12.08
-15.41
-18.68
-21.52
-23.69
-25.11
-25.82
-25.90
-25.40
-24.30
-22.58
-20.26
-17.52
-14.63
-11.89
-9.54
-7.75
-6.56
-5.94
-5.83
-6.14
-6.75
-7.47
-8.05
-8.21
-7.73
-6.56
-4.82
-2.80
-0.87
0.64
1.53
1.75
1.35
0.44
-0.81
-2.28
-3.81
-5.33
-6.73
-7.94
-8.85
-9.42
-9.61
-9.50
-9.21
-8.91
-8.69
-8.59
-8.55
-8.47
-8.30
-8.08
-7.90
-7.86
-8.00
-8.27
-8.55
-8.75
-8.80
-8.72
-8.58
-8.41
-8.22
-7.93
-7.45
-6.70
-5.68
-4.41
-3.01
-1.59
-0.26
0.86
1.73
2.33
2.70
2.90
2.97
2.96
2.87
2.69
2.41
2.03
1.61
1.18
0.77
0.39
0.03
-0.33
-0.65
-0.87
-0.93
-0.85
-0.73
-0.77
-1.11
-1.79
-2.71
-3.64
-4.33
-4.65
-4.63
-4.42
-4.19
-4.11
-4.23
-4.52
-4.90
-5.21
-5.24
-4.83
-3.89
-2.47
-0.76
0.97
2.47
3.56
4.23
4.53
4.61
4.57
4.51
4.53
4.72
5.20
6.08
7.51
9.53
12.09
15.01
18.04
20.93
23.53
25.75
27.62
29.14
30.26
30.86
30.81
30.02
28.45
26.15
23.23
19.81
16.01
11.91
7.56
3.03
-1.61
-6.21
-10.55
-14.41
-17.57
-19.87
-21.23
-21.68
-21.27
-20.16
-18.53
-16.63
-14.75
-13.08
-11.74
-10.69
-9.74
-8.61
-7.06
-4.96
-2.30
0.80
4.17
7.69
11.24
14.68
17.81
20.28
21.80
22.14
21.30
19.47
16.95
14.00
10.78
7.40
3.93
0.53
-2.54
-5.01
-6.70
-7.58
-7.79
-7.57
-7.21
-6.96
-7.06
-7.60
-8.63
-10.03
-11.60
-13.08
-14.21
-14.81
-14.86
-14.45
-13.75
-12.93
-12.01
-10.95
-9.68
-8.12
-6.33
-4.43
-2.60
-1.01
0.24
1.06
1.39
1.21
0.56
-0.37
-1.25
-1.67
-1.29
0.00
2.09
4.62
7.16
9.30
10.82
11.61
11.68
11.11
9.96
8.32
6.33
4.17
2.04
0.09
-1.66
-3.26
-4.85
-6.51
-8.24
-9.87
-11.18
-11.90
-11.92
-11.24
-10.07
-8.72
-7.59
-7.00
-7.20
-8.22
-9.95
-12.06
-14.15
-15.72
-16.38
-15.85
-14.08
-11.25
-7.69
-3.85
-0.14
3.16
5.88
7.99
9.50
10.48
10.96
10.97
10.52
9.66
8.44
6.97
5.35
3.68
2.00
0.38
-1.15
-2.57
-3.87
-5.10
-6.33
-7.62
-8.92
-10.11
-10.89
-10.98
-10.17
-8.46
-6.02
-3.17
-0.23
2.52
4.92
6.89
8.41
9.46
10.03
10.15
9.92
9.44
8.88
8.38
8.07
8.07
8.45
9.24
10.38
11.76
13.19
14.51
15.59
16.42
17.05
17.58
18.01
18.27
18.17
17.55
16.38
14.80
13.15
11.83
11.19
11.36
12.25
13.46
14.43
14.51
13.12
9.91
4.93
-1.40
-8.41
-15.35
-21.64
-26.96
-31.22
-34.45
-36.68
-37.88
-38.05
-37.27
-35.73
-33.74
-31.62
-29.59
-27.74
-25.99
-23.99
-21.22
-17.03
-10.79
-2.17
8.63
20.84
33.18
44.20
52.68
57.92
59.76
58.46
54.43
48.09
39.83
30.08
19.48
8.86
-0.86
-8.91
-14.86
-18.76
-21.05
-22.35
-23.21
-23.96
-24.58
-24.79
-24.18
-22.36
-19.11
-14.37
-8.31
-1.30
6.10
13.20
19.31
23.88
26.61
27.52
26.88
25.14
22.74
20.05
17.27
14.46
11.57
8.53
5.28
1.89
-1.46
-4.52
-6.93
-8.41
-8.76
-7.97
-6.23
-3.97
-1.69
0.12
1.15
1.33
0.79
-0.24
-1.59
-3.23
-5.22
-7.72
-10.90
-14.89
-19.83
-25.75
-32.55
-39.85
-47.02
-53.27
-57.82
-60.05
-59.60
-56.32
-50.24
-41.53
-30.50
-17.70
-3.96
9.68
22.09
32.30
39.76
44.36
46.37
46.28
44.53
41.40
36.99
31.39
24.78
17.60
10.48
4.09
-1.03
-4.61
-6.68
-7.50
-7.44
-6.94
-6.38
-6.06
-6.13
-6.58
-7.29
-8.02
-8.53
-8.62
-8.18
-7.18
-5.68
-3.83
-1.80
0.27
2.29
4.29
6.38
8.66
11.18
13.89
16.60
19.07
21.04
22.28
22.73
22.43
21.60
20.54
19.61
19.10
19.15
19.69
20.53
21.39
22.02
22.19
21.71
20.40
18.07
14.56
9.81
3.87
-3.02
-10.50
-18.10
-25.30
-31.66
-36.83
-40.67
-43.17
-44.47
-44.77
-44.29
-43.19
-41.61
-39.69
-37.54
-35.25
-32.86
-30.29
-27.44
-24.21
-20.65
-16.89
-13.20
-9.86
-7.08
-4.98
-3.57
-2.72
-2.21
-1.75
-1.00
0.34
2.57
5.83
10.04
14.93
20.09
25.08
29.58
33.34
36.22
38.15
39.00
38.60
36.80
33.50
28.80
23.02
16.72
10.59
5.41
1.85
0.36
1.02
3.53
7.27
11.55
15.76
19.55
22.79
25.46
27.56
28.99
29.61
29.26
27.88
25.54
22.41
18.70
14.57
10.14
5.52
0.89
-3.50
-7.33
-10.28
-12.14
-12.87
-12.63
-11.73
-10.49
-9.19
-8.03
-7.16
-6.69
-6.73
-7.32
-8.42
-9.91
-11.61
-13.37
-15.10
-16.74
-18.32
-19.80
-21.16
-22.36
-23.33
-24.03
-24.42
-24.47
-24.13
-23.35
-22.09
-20.36
-18.24
-15.84
-13.35
-10.94
-8.81
-7.11
-5.93
-5.30
-5.13
-5.26
-5.48
-5.59
-5.48
-5.11
-4.55
-3.90
-3.29
-2.83
-2.59
-2.59
-2.78
-3.07
-3.34
-3.51
-3.56
-3.54
-3.55
-3.69
-4.01
-4.51
-5.14
-5.82
-6.49
-7.06
-7.42
-7.42
-6.95
-5.96
-4.53
-2.82
-1.09
0.47
1.74
2.74
3.50
4.09
4.46
4.57
4.38
3.91
3.31
2.75
2.40
2.37
2.63
3.08
3.57
4.01
4.30
4.37
4.23
3.90
3.50
3.19
3.15
3.54
4.43
5.66
6.91
7.71
7.52
5.94
2.80
-1.72
-7.09
-12.49
-17.02
-19.86
-20.43
-18.40
-13.63
-6.14
4.06
16.78
31.64
47.87
64.35
79.63
92.20
100.75
104.46
103.09
96.98
86.86
73.65
58.32
41.81
24.98
8.68
-6.34
-19.53
-30.57
-39.41
-46.20
-51.21
-54.73
-57.05
-58.45
-59.22
-59.58
-59.61
-59.18
-58.03
-55.88
-52.65
-48.54
-43.99
-39.56
-35.67
-32.52
-30.03
-27.98
-26.11
-24.28
-22.43
-20.53
-18.55
-16.42
-14.11
-11.65
-9.20
-6.94
-5.04
-3.64
-2.73
-2.23
-1.99
-1.82
-1.56
-1.11
-0.51
0.12
0.60
0.79
0.66
0.33
0.03
-0.06
0.15
0.58
1.07
1.37
1.31
0.80
-0.12
-1.29
-2.53
-3.63
-4.51
-5.16
-5.69
-6.24
-6.97
-7.92
-8.99
-9.97
-10.53
-10.28
-8.96
-6.46
-2.94
1.11
5.09
8.39
10.61
11.71
11.95
11.76
11.52
11.44
11.51
11.62
11.68
11.69
11.77
12.01
12.36
12.61
12.47
11.69
10.22
8.14
5.70
3.20
0.87
-1.08
-2.55
-3.53
-4.11
-4.41
-4.57
-4.63
-4.48
-3.94
-2.82
-1.06
1.21
3.72
6.14
8.21
9.71
10.52
10.53
9.73
8.26
6.45
4.86
4.06
4.46
6.07
8.46
10.89
12.62
13.09
12.22
10.29
7.84
5.36
3.23
1.60
0.51
-0.08
-0.23
-0.10
0.05
-0.10
-0.83
-2.24
-4.17
-6.25
-8.02
-9.16
-9.54
-9.30
-8.69
-7.95
-7.24
-6.60
-5.94
-5.10
-3.95
-2.44
-0.63
1.26
2.94
4.05
4.30
3.59
2.04
0.02
-1.99
-3.45
-3.98
-3.46
-2.02
0.00
2.21
4.29
6.00
7.27
8.04
8.29
8.01
7.24
6.08
4.66
3.11
1.52
-0.05
-1.58
-3.05
-4.36
-5.37
-5.93
-5.90
-5.19
-3.84
-1.99
0.05
1.91
3.24
3.79
3.54
2.69
1.61
0.68
0.23
0.44
1.37
2.98
5.13
7.68
10.41
13.16
15.76
18.08
20.01
21.43
22.22
22.26
21.48
19.90
17.65
14.92
11.88
8.66
5.35
2.09
-0.86
-3.20
-4.62
-5.02
-4.52
-3.50
-2.41
-1.60
-1.18
-0.96
-0.57
0.37
1.98
4.10
6.24
7.81
8.33
7.58
5.74
3.20
0.40
-2.40
-5.15
-8.03
-11.15
-14.56
-18.13
-21.64
-24.87
-27.68
-29.98
-31.72
-32.82
-33.12
-32.41
-30.51
-27.28
-22.66
-16.71
-9.68
-1.97
5.86
13.14
19.36
24.14
27.37
29.14
29.63
29.02
27.46
25.11
22.20
19.07
16.10
13.62
11.81
10.65
10.06
9.91
10.13
10.69
11.60
12.87
14.55
16.73
19.56
23.22
27.80
33.20
39.07
44.86
49.83
53.30
54.69
53.62
49.99
43.90
35.73
26.06
15.64
5.29
-4.30
-12.62
-19.51
-25.02
-29.38
-32.86
-35.65
-37.83
-39.43
-40.43
-40.83
-40.66
-39.95
-38.70
-36.83
-34.21
-30.66
-26.04
-20.30
-13.54
-6.10
1.52
8.79
15.21
20.48
24.52
27.40
29.27
30.29
30.60
30.29
29.49
28.33
26.96
25.49
24.08
22.93
22.31
22.55
23.82
26.08
28.96
31.85
34.05
34.93
34.06
31.23
26.43
19.79
11.62
2.42
-7.09
-16.04
-23.59
-29.03
-31.92
-32.14
-29.84
-25.46
-19.62
-13.00
-6.17
0.50
6.90
13.03
18.82
24.11
28.58
31.87
33.73
34.11
33.19
31.24
28.57
25.42
21.93
18.19
14.20
9.88
5.13
-0.17
-6.00
-12.21
-18.57
-24.79
-30.68
-36.14
-41.22
-46.04
-50.76
-55.46
-60.14
-64.70
-68.89
-72.34
-74.64
-75.38
-74.24
-71.16
-66.32
-60.12
-53.16
-46.01
-39.13
-32.79
-27.08
-21.98
-17.38
-13.23
-9.47
-6.12
-3.15
-0.54
1.78
3.89
5.94
8.06
10.31
12.68
15.03
17.15
18.77
19.64
19.62
18.72
17.11
15.06
12.87
10.80
9.00
7.48
6.22
5.09
4.03
2.93
1.67
0.11
-1.93
-4.51
-7.56
-10.74
-13.57
-15.55
-16.30
-15.75
-14.14
-11.95
-9.70
-7.76
-6.29
-5.21
-4.35
-3.55
-2.78
-2.10
-1.60
-1.30
-1.12
-0.90
-0.52
0.11
0.95
1.93
3.00
4.21
5.69
7.58
10.00
12.99
16.46
20.30
24.34
28.46
32.48
36.18
39.20
41.08
41.36
39.72
36.14
30.94
24.72
18.25
12.17
6.96
2.80
-0.30
-2.43
-3.70
-4.20
-4.05
-3.43
-2.59
-1.76
-1.14
-0.84
-0.83
-1.01
-1.29
-1.61
-1.97
-2.40
-2.89
-3.42
-3.88
-4.18
-4.25
-4.11
-3.80
-3.39
-2.91
-2.40
-1.89
-1.41
-1.04
-0.85
-0.85
-0.97
-1.10
-1.13
-0.96
-0.65
-0.28
0.02
0.13
-0.01
-0.42
-1.00
-1.65
-2.23
-2.66
-2.94
-3.12
-3.32
-3.66
-4.24
-5.07
-6.09
-7.10
-7.84
-8.04
-7.49
-6.21
-4.44
-2.60
-1.07
-0.14
0.20
0.14
-0.08
-0.26
-0.32
-0.28
-0.21
-0.12
-0.02
0.07
0.13
0.15
0.11
0.05
0.04
0.11
0.22
0.29
0.23
-0.01
-0.38
-0.78
-1.06
-1.17
-1.12
-1.00
-0.92
-0.94
-1.09
-1.32
-1.60
-1.93
-2.40
-3.03
-3.84
-4.71
-5.49
-6.06
-6.41
-6.69
-7.07
-7.67
-8.41
-9.02
-9.12
-8.41
-6.75
-4.31
-1.47
1.33
3.71
5.45
6.56
7.11
7.20
6.89
6.20
5.22
4.11
3.11
2.45
2.23
2.32
2.38
2.02
0.93
-1.00
-3.59
-6.47
-9.23
-11.48
-12.99
-13.70
-13.65
-12.98
-11.84
-10.42
-8.95
-7.68
-6.83
-6.58
-6.93
-7.76
-8.84
-9.91
-10.77
-11.35
-11.61
-11.52
-11.05
-10.20
-8.97
-7.47
-5.87
-4.31
-2.95
-1.78
-0.79
0.08
0.85
1.49
1.93
2.15
2.16
2.00
1.76
1.47
1.09
0.61
-0.02
-0.79
-1.64
-2.49
-3.25
-3.81
-4.04
-3.80
-3.00
-1.64
0.08
1.86
3.33
4.23
4.52
4.36
3.99
3.67
3.45
3.30
3.08
2.73
2.26
1.71
1.14
0.51
-0.23
-1.12
-2.09
-2.96
-3.54
-3.74
-3.59
-3.21
-2.76
-2.26
-1.70
-0.98
-0.04
1.10
2.37
3.73
5.11
6.48
7.75
8.77
9.36
9.41
8.91
8.01
6.91
5.82
4.91
4.24
3.81
3.56
3.39
3.18
2.78
2.10
1.09
-0.25
-1.82
-3.49
-5.09
-6.50
-7.66
-8.58
-9.29
-9.90
-10.48
-11.08
-11.69
-12.23
-12.54
-12.48
-11.91
-10.77
-9.15
-7.23
-5.26
-3.46
-1.94
-0.69
0.33
1.22
2.01
2.71
3.38
4.09
4.95
6.04
7.38
8.85
10.33
11.75
13.09
14.46
15.98
17.76
19.77
21.92
24.03
25.92
27.45
28.52
29.14
29.27
28.91
27.96
26.37
24.05
21.00
17.29
13.08
8.54
3.87
-0.72
-5.02
-8.81
-11.89
-14.06
-15.16
-15.09
-13.83
-11.49
-8.33
-4.68
-0.94
2.54
5.53
7.88
9.54
10.51
10.78
10.40
9.39
7.87
5.95
3.82
1.66
-0.42
-2.33
-4.12
-5.88
-7.69
-9.54
-11.32
-12.85
-13.99
-14.71
-15.10
-15.33
-15.61
-16.06
-16.69
-17.38
-18.00
-18.43
-18.59
-18.49
-18.14
-17.56
-16.78
-15.83
-14.81
-13.89
-13.20
-12.82
-12.67
-12.54
-12.15
-11.26
-9.79
-7.80
-5.47
-2.98
-0.48
1.99
4.41
6.77
9.00
11.00
12.68
14.00
15.00
15.73
16.28
16.65
16.82
16.71
16.31
15.66
14.85
14.01
13.21
12.44
11.61
10.56
9.15
7.26
4.92
2.24
-0.52
-3.06
-5.12
-6.54
-7.36
-7.77
-8.06
-8.52
-9.27
-10.25
-11.18
-11.72
-11.53
-10.47
-8.59
-6.12
-3.35
-0.57
2.01
4.29
6.20
7.70
8.78
9.44
9.75
9.79
9.67
9.44
9.19
9.01
8.96
9.05
9.25
9.40
9.33
8.91
8.13
7.08
5.94
4.81
3.70
2.54
1.20
-0.37
-2.07
-3.69
-5.00
-5.83
-6.19
-6.25
-6.23
-6.33
-6.67
-7.25
-8.02
-8.89
-9.78
-10.55
-11.02
-10.99
-10.29
-8.92
-7.05
-5.01
-3.11
-1.53
-0.28
0.76
1.71
2.59
3.34
3.90
4.23
4.45
4.67
5.00
5.43
5.86
6.16
6.24
6.13
5.90
5.65
5.44
5.23
4.92
4.39
3.54
2.39
1.04
-0.35
-1.56
-2.47
-3.07
-3.45
-3.76
-4.12
-4.56
-5.01
-5.39
-5.64
-5.79
-5.95
-6.20
-6.53
-6.78
-6.73
-6.16
-4.99
-3.32
-1.36
0.65
2.54
4.25
5.80
7.14
8.15
8.66
8.56
7.90
6.89
5.86
5.08
4.65
4.49
4.44
4.32
4.04
3.62
3.13
2.65
2.17
1.67
1.13
0.58
0.07
-0.31
-0.52
-0.59
-0.62
-0.73
-1.00
-1.46
-2.03
-2.58
-3.01
-3.22
-3.24
-3.17
-3.15
-3.33
-3.78
-4.48
-5.30
-6.08
-6.64
-6.80
-6.41
-5.38
-3.66
-1.34
1.40
4.22
6.79
8.90
10.51
11.75
12.80
13.76
14.58
15.09
15.14
14.61
13.61
12.39
11.26
10.47
10.11
10.00
9.77
8.95
7.15
4.28
0.53
-3.58
-7.37
-10.16
-11.47
-11.08
-9.09
-5.91
-2.16
1.39
4.08
5.40
5.19
3.55
0.82
-2.63
-6.43
-10.30
-13.99
-17.23
-19.76
-21.38
-22.02
-21.76
-20.76
-19.17
-17.07
-14.46
-11.36
-7.88
-4.28
-0.93
1.79
3.62
4.45
4.42
3.78
2.90
2.06
1.47
1.21
1.23
1.46
1.81
2.30
2.89
3.58
4.25
4.79
5.06
5.05
4.82
4.52
4.29
4.17
4.10
3.98
3.70
3.24
2.64
1.99
1.31
0.61
-0.16
-1.00
-1.87
-2.66
-3.28
-3.71
-3.99
-4.21
-4.45
-4.75
-5.05
-5.25
-5.25
-4.98
-4.39
-3.46
-2.19
-0.63
1.09
2.85
4.45
5.75
6.67
7.15
7.19
6.79
6.06
5.15
4.28
3.65
3.41
3.52
3.84
4.17
4.35
4.37
4.31
4.36
4.59
5.01
5.47
5.78
5.82
5.55
5.06
4.47
3.92
3.49
3.19
2.97
2.76
2.45
1.92
1.08
-0.14
-1.73
-3.61
-5.66
-7.72
-9.60
-11.10
-12.01
-12.17
-11.52
-10.13
-8.20
-6.02
-3.86
-1.92
-0.32
0.93
1.90
2.67
3.31
3.86
4.33
4.68
4.89
4.97
4.94
4.85
4.75
4.66
4.58
4.55
4.60
4.74
4.93
5.06
5.02
4.70
4.08
3.19
2.12
0.91
-0.40
-1.79
-3.22
-4.64
-5.99
-7.26
-8.56
-10.04
-11.87
-14.13
-16.71
-19.35
-21.65
-23.23
-23.74
-22.99
-20.98
-17.92
-14.18
-10.29
-6.75
-3.91
-1.88
-0.49
0.54
1.53
2.69
4.01
5.46
6.95
8.53
10.27
12.27
14.57
17.08
19.66
22.20
24.56
26.59
28.11
28.83
28.50
27.00
24.42
21.13
17.62
14.39
11.70
9.61
7.94
6.47
4.99
3.37
1.62
-0.20
-1.99
-3.72
-5.40
-7.17
-9.05
-10.98
-12.72
-13.89
-14.18
-13.48
-11.90
-9.74
-7.40
-5.17
-3.21
-1.61
-0.38
0.45
0.85
0.85
0.52
-0.02
-0.63
-1.23
-1.76
-2.19
-2.47
-2.60
-2.61
-2.58
-2.64
-2.84
-3.18
-3.61
-4.01
-4.31
-4.48
-4.56
-4.63
-4.74
-4.95
-5.29
-5.76
-6.32
-6.87
-7.29
-7.53
-7.62
-7.71
-8.01
-8.66
-9.67
-10.84
-11.89
-12.55
-12.62
-12.01
-10.73
-8.89
-6.69
-4.36
-2.11
-0.14
1.51
2.87
4.04
5.11
6.11
6.99
7.68
8.12
8.34
8.36
8.22
7.92
7.42
6.67
5.69
4.54
3.32
2.12
1.03
0.08
-0.75
-1.49
-2.20
-2.91
-3.67
-4.43
-5.11
-5.63
-5.93
-6.00
-5.90
-5.75
-5.59
-5.38
-5.10
-4.74
-4.37
-4.14
-4.16
-4.39
-4.65
-4.62
-4.03
-2.77
-0.96
1.13
3.20
5.00
6.44
7.50
8.24
8.70
8.92
8.96
8.86
8.65
8.37
8.03
7.65
7.23
6.78
6.32
5.89
5.52
5.21
4.97
4.75
4.44
3.93
3.14
2.06
0.81
-0.45
-1.60
-2.56
-3.37
-4.06
-4.63
-5.06
-5.33
-5.49
-5.64
-5.90
-6.32
-6.79
-7.08
-6.93
-6.17
-4.82
-3.02
-1.00
1.06
3.02
4.78
6.25
7.33
7.92
7.98
7.56
6.82
5.98
5.26
4.82
4.72
4.94
5.37
5.84
6.17
6.17
5.67
4.58
2.91
0.81
-1.46
-3.60
-5.30
-6.38
-6.82
-6.75
-6.44
-6.19
-6.24
-6.72
-7.53
-8.47
-9.24
-9.56
-9.23
-8.19
-6.52
-4.35
-1.87
0.71
3.16
5.29
6.96
8.10
8.75
8.95
8.74
8.16
7.28
6.22
5.15
4.23
3.53
3.02
2.55
2.03
1.42
0.79
0.23
-0.23
-0.60
-1.00
-1.48
-2.07
-2.71
-3.29
-3.77
-4.13
-4.44
-4.82
-5.36
-6.10
-7.01
-7.95
-8.74
-9.17
-9.04
-8.29
-6.96
-5.19
-3.16
-1.07
0.96
2.80
4.37
5.59
6.36
6.68
6.57
6.15
5.58
5.00
4.52
4.15
3.86
3.62
3.40
3.21
3.05
2.86
2.58
2.19
1.68
1.12
0.54
-0.04
-0.69
-1.45
-2.34
-3.25
-4.02
-4.50
-4.67
-4.68
-4.74
-5.04
-5.62
-6.33
-6.93
-7.20
-6.98
-6.22
-4.97
-3.31
-1.37
0.69
2.69
4.41
5.74
6.64
7.17
7.44
7.54
7.50
7.29
6.90
6.32
5.68
5.08
4.65
4.40
4.31
4.34
4.38
4.32
4.07
3.56
2.75
1.68
0.45
-0.83
-2.01
-3.02
-3.80
-4.40
-4.84
-5.16
-5.35
-5.44
-5.45
-5.47
-5.56
-5.74
-6.03
-6.36
-6.62
-6.73
-6.64
-6.31
-5.78
-5.05
-4.09
-2.84
-1.27
0.61
2.70
4.76
6.54
7.84
8.55
8.73
8.52
8.08
7.53
6.93
6.30
5.66
5.14
4.81
4.74
4.87
5.02
5.02
4.71
4.07
3.17
2.21
1.33
0.63
0.14
-0.20
-0.46
-0.71
-1.00
-1.38
-1.81
-2.28
-2.73
-3.16
-3.55
-3.93
-4.34
-4.81
-5.36
-5.99
-6.69
-7.38
-7.95
-8.23
-8.04
-7.26
-5.87
-3.98
-1.84
0.29
2.16
3.66
4.74
5.46
5.91
6.16
6.27
6.25
6.11
5.85
5.51
5.17
4.90
4.77
4.74
4.74
4.66
4.47
4.15
3.79
3.44
3.12
2.77
2.31
1.69
0.87
-0.09
-1.10
-2.08
-2.93
-3.58
-4.01
-4.20
-4.16
-3.92
-3.56
-3.20
-3.02
-3.19
-3.83
-4.88
-6.13
-7.24
-7.89
-7.85
-7.13
-5.85
-4.24
-2.54
-0.88
0.62
1.89
2.88
3.50
3.75
3.68
3.43
3.16
2.99
2.98
3.11
3.31
3.54
3.75
4.00
4.31
4.70
5.14
5.55
5.81
5.80
5.41
4.61
3.47
2.16
0.85
-0.30
-1.30
-2.21
-3.12
-4.08
-5.04
-5.88
-6.54
-7.02
-7.41
-7.84
-8.38
-8.98
-9.50
-9.76
-9.62
-8.98
-7.80
-6.13
-4.08
-1.85
0.31
2.16
3.59
4.58
5.18
5.45
5.40
5.03
4.38
3.62
2.95
2.56
2.52
2.73
3.01
3.20
3.25
3.23
3.21
3.26
3.29
3.20
2.88
2.28
1.48
0.62
-0.15
-0.76
-1.23
-1.65
-2.14
-2.76
-3.52
-4.35
-5.17
-5.89
-6.46
-6.81
-6.91
-6.78
-6.48
-6.14
-5.90
-5.88
-6.07
-6.34
-6.47
-6.25
-5.52
-4.29
-2.68
-0.86
0.94
2.54
3.82
4.72
5.24
5.45
5.45
5.38
5.32
5.32
5.39
5.51
5.67
5.86
6.06
6.25
6.33
6.23
5.89
5.34
4.70
4.07
3.54
3.09
2.67
2.25
1.82
1.43
1.10
0.84
0.60
0.31
-0.10
-0.60
-1.16
-1.68
-2.12
-2.47
-2.74
-3.00
-3.32
-3.76
-4.37
-5.15
-6.05
-6.98
-7.78
-8.23
-8.18
-7.49
-6.21
-4.47
-2.51
-0.61
1.03
2.28
3.11
3.56
3.74
3.76
3.72
3.69
3.71
3.75
3.79
3.77
3.68
3.54
3.39
3.26
3.17
3.09
2.96
2.75
2.42
2.03
1.64
1.27
0.93
0.55
0.08
-0.52
-1.15
-1.71
-2.07
-2.22
-2.27
-2.37
-2.66
-3.17
-3.78
-4.37
-4.81
-5.07
-5.23
-5.37
-5.56
-5.79
-6.02
-6.12
-5.94
-5.36
-4.28
-2.71
-0.80
1.21
3.04
4.51
5.56
6.25
6.67
6.90
6.95
6.80
6.47
5.98
5.44
4.95
4.56
4.25
3.99
3.73
3.46
3.24
3.07
2.95
2.78
2.43
1.83
0.99
0.01
-0.97
-1.83
-2.53
-3.10
-3.59
-4.02
-4.37
-4.61
-4.73
-4.76
-4.79
-4.93
-5.24
-5.77
-6.49
-7.26
-7.86
-8.08
-7.73
-6.80
-5.40
-3.76
-2.08
-0.52
0.90
2.16
3.21
3.93
4.18
3.90
3.19
2.25
1.35
0.69
0.33
0.24
0.33
0.54
0.85
1.25
1.71
2.10
2.30
2.24
1.94
1.51
1.07
0.69
0.39
0.15
-0.08
-0.31
-0.56
-0.85
-1.22
-1.72
-2.34
-3.06
-3.83
-4.58
-5.19
-5.55
-5.47
-4.82
-3.55
-1.78
0.30
2.43
4.40
6.17
7.72
9.06
10.15
10.89
11.19
11.10
10.77
10.42
10.22
10.21
10.28
10.24
9.94
9.31
8.37
7.20
5.84
4.28
2.46
0.35
-2.02
-4.48
-6.81
-8.83
-10.44
-11.69
-12.70
-13.64
-14.61
-15.66
-16.77
-17.89
-18.95
-19.81
-20.33
-20.31
-19.55
-17.98
-15.65
-12.80
-9.78
-6.97
-4.65
-2.97
-1.92
-1.40
-1.26
-1.35
-1.53
-1.70
-1.75
-1.61
-1.22
-0.61
0.20
1.13
2.12
3.08
3.93
4.59
5.04
5.22
5.10
4.66
3.88
2.86
1.72
0.62
-0.27
-0.89
-1.22
-1.35
-1.36
-1.35
-1.39
-1.55
-1.90
-2.46
-3.16
-3.83
-4.20
-4.01
-3.12
-1.54
0.53
2.80
4.96
6.79
8.15
9.02
9.48
9.64
9.61
9.49
9.35
9.24
9.19
9.20
9.27
9.34
9.36
9.26
9.01
8.60
8.06
7.43
6.76
6.03
5.22
4.29
3.25
2.11
0.93
-0.27
-1.46
-2.64
-3.74
-4.73
-5.55
-6.21
-6.80
-7.43
-8.18
-9.05
-9.93
-10.64
-11.02
-10.96
-10.43
-9.43
-8.01
-6.20
-4.10
-1.79
0.56
2.80
4.76
6.31
7.36
7.91
8.00
7.73
7.24
6.69
6.22
5.94
5.90
6.06
6.33
6.57
6.68
6.62
6.43
6.15
5.81
5.37
4.75
3.89
2.80
1.58
0.36
-0.71
-1.58
-2.23
-2.72
-3.12
-3.54
-4.07
-4.78
-5.67
-6.66
-7.60
-8.28
-8.53
-8.21
-7.28
-5.76
-3.72
-1.32
1.24
3.61
5.46
6.53
6.73
6.25
5.43
4.67
4.20
4.08
4.19
4.38
4.55
4.71
4.92
5.21
5.53
5.83
6.06
6.24
6.38
6.47
6.40
6.00
5.14
3.81
2.17
0.51
-0.94
-2.02
-2.73
-3.18
-3.48
-3.73
-3.97
-4.18
-4.23
-3.98
-3.28
-2.01
-0.14
2.28
5.11
8.20
11.40
14.60
17.67
20.53
23.08
25.27
27.04
28.36
29.19
29.52
29.38
28.83
27.97
26.87
25.50
23.82
21.74
19.25
16.42
13.36
10.19
6.97
3.65
0.18
-3.52
-7.45
-11.49
-15.46
-19.13
-22.31
-24.89
-26.92
-28.49
-29.78
-30.90
-31.90
-32.75
-33.39
-33.75
-33.76
-33.35
-32.40
-30.84
-28.65
-25.87
-22.64
-19.09
-15.37
-11.59
-7.89
-4.43
-1.38
1.18
3.17
4.68
5.81
6.65
7.23
7.48
7.31
6.71
5.77
4.71
3.79
3.19
2.94
2.91
2.89
2.65
2.08
1.19
0.13
-0.92
-1.80
-2.45
-2.85
-3.06
-3.13
-3.10
-3.05
-3.06
-3.23
-3.66
-4.38
-5.30
-6.28
-7.18
-7.97
-8.65
-9.27
-9.80
-10.04
-9.70
-8.53
-6.46
-3.74
-0.82
1.77
3.66
4.71
4.96
4.61
3.80
2.64
1.18
-0.51
-2.28
-3.92
-5.19
-5.98
-6.27
-6.16
-5.84
-5.42
-4.96
-4.47
-3.93
-3.35
-2.76
-2.24
-1.81
-1.39
-0.89
-0.22
0.63
1.50
2.21
2.57
2.52
2.14
1.58
1.02
0.53
0.09
-0.41
-1.08
-1.92
-2.84
-3.66
-4.20
-4.30
-3.89
-2.97
-1.64
-0.04
1.65
3.19
4.40
5.15
5.42
5.30
4.92
4.43
3.92
3.39
2.83
2.27
1.72
1.27
0.95
0.80
0.80
0.92
1.17
1.58
2.13
2.73
3.19
3.36
3.12
2.55
1.82
1.16
0.66
0.32
0.02
-0.38
-0.91
-1.55
-2.21
-2.83
-3.40
-3.97
-4.52
-4.97
-5.20
-5.06
-4.47
-3.44
-2.08
-0.54
1.04
2.55
3.88
4.99
5.81
6.30
6.43
6.23
5.75
5.08
4.35
3.69
3.21
3.01
3.16
3.63
4.27
4.91
5.32
5.38
5.07
4.52
3.89
3.28
2.74
2.16
1.45
0.56
-0.46
-1.50
-2.45
-3.22
-3.80
-4.25
-4.64
-5.02
-5.42
-5.84
-6.29
-6.72
-7.09
-7.29
-7.17
-6.63
-5.61
-4.14
-2.36
-0.44
1.47
3.20
4.68
5.82
6.55
6.82
6.64
6.05
5.25
4.49
4.00
3.94
4.33
5.01
5.76
6.37
6.72
6.79
6.64
6.28
5.73
4.99
4.13
3.34
2.80
2.65
2.80
2.99
2.87
2.21
0.97
-0.66
-2.36
-3.86
-5.02
-5.84
-6.44
-6.98
-7.58
-8.31
-9.17
-10.02
-10.69
-10.97
-10.69
-9.77
-8.26
-6.31
-4.09
-1.80
0.39
2.33
3.85
4.85
5.29
5.25
4.89
4.41
4.00
3.76
3.73
3.85
4.05
4.27
4.52
4.85
5.32
5.92
6.53
6.93
6.91
6.38
5.41
4.24
3.12
2.23
1.55
0.96
0.30
-0.48
-1.34
-2.19
-2.98
-3.72
-4.44
-5.17
-5.83
-6.32
-6.60
-6.74
-6.92
-7.31
-7.96
-8.73
-9.30
-9.34
-8.64
-7.18
-5.14
-2.80
-0.45
1.68
3.44
4.79
5.71
6.23
6.39
6.25
5.92
5.50
5.12
4.88
4.82
4.97
5.26
5.62
5.92
6.13
6.22
6.23
6.21
6.15
6.00
5.67
5.04
4.10
2.94
1.72
0.60
-0.31
-1.02
-1.60
-2.15
-2.71
-3.28
-3.83
-4.32
-4.77
-5.20
-5.63
-6.04
-6.40
-6.60
-6.55
-6.17
-5.43
-4.31
-2.89
-1.29
0.30
1.72
2.85
3.65
4.13
4.31
4.21
3.84
3.26
2.62
2.12
1.94
2.11
2.55
3.04
3.39
3.53
3.50
3.43
3.34
3.16
2.75
2.02
0.98
-0.17
-1.23
-2.06
-2.65
-3.15
-3.67
-4.31
-5.02
-5.77
-6.51
-7.26
-8.02
-8.78
-9.37
-9.57
-9.17
-8.04
-6.24
-3.97
-1.49
0.90
3.01
4.68
5.87
6.55
6.73
6.48
5.91
5.20
4.49
3.91
3.50
3.25
3.07
2.97
2.94
3.04
3.26
3.53
3.73
3.71
3.41
2.86
2.18
1.46
0.72
-0.08
-1.02
-2.08
-3.19
-4.25
-5.17
-5.97
-6.70
-7.40
-8.01
-8.37
-8.29
-7.65
-6.44
-4.78
-2.91
-1.08
0.53
1.79
2.67
3.20
3.44
3.46
3.33
3.15
3.00
2.97
3.12
3.44
3.87
4.31
4.66
4.90
5.03
5.06
4.99
4.78
4.39
3.81
3.06
2.22
1.34
0.50
-0.28
-0.96
-1.51
-1.95
-2.34
-2.79
-3.41
-4.26
-5.29
-6.34
-7.20
-7.71
-7.72
-7.20
-6.15
-4.63
-2.81
-0.87
0.99
2.61
3.92
4.87
5.50
5.80
5.77
5.38
4.69
3.85
3.05
2.51
2.35
2.58
3.06
3.59
3.96
4.02
3.76
3.24
2.61
2.04
1.65
1.49
1.53
1.61
1.59
1.34
0.85
0.22
-0.39
-0.86
-1.18
-1.44
-1.77
-2.31
-3.06
-3.96
-4.92
-5.85
-6.71
-7.50
-8.16
-8.55
-8.51
-7.88
-6.67
-5.00
-3.18
-1.49
-0.18
0.67
1.14
1.35
1.45
1.44
1.28
0.93
0.48
0.08
-0.05
0.17
0.71
1.39
2.03
2.51
2.85
3.13
3.40
3.64
3.76
3.69
3.45
3.07
2.61
2.09
1.47
0.74
-0.06
-0.80
-1.35
-1.62
-1.66
-1.64
-1.76
-2.13
-2.74
-3.44
-4.00
-4.26
-4.12
-3.58
-2.71
-1.54
-0.13
1.44
3.04
4.45
5.45
5.93
5.89
5.50
4.95
4.44
4.03
3.70
3.38
3.00
2.56
2.12
1.75
1.50
1.40
1.41
1.48
1.58
1.65
1.67
1.59
1.34
0.87
0.21
-0.59
-1.36
-1.95
-2.25
-2.25
-2.06
-1.84
-1.76
-1.91
-2.29
-2.83
-3.40
-3.83
-3.94
-3.54
-2.52
-0.85
1.34
3.79
6.20
8.23
9.67
10.46
10.63
10.34
9.84
9.35
9.05
9.06
9.39
9.97
10.67
11.35
11.85
12.08
11.96
11.50
10.76
9.89
8.98
8.13
7.32
6.47
5.47
4.21
2.71
1.04
-0.64
-2.22
-3.65
-4.96
-6.18
-7.36
-8.48
-9.48
-10.37
-11.18
-12.03
-12.97
-13.94
-14.72
-15.04
-14.67
-13.57
-11.87
-9.82
-7.65
-5.53
-3.60
-1.94
-0.66
0.18
0.58
0.64
0.53
0.43
0.42
0.46
0.45
0.28
-0.07
-0.55
-1.06
-1.51
-1.84
-2.09
-2.31
-2.62
-3.10
-3.78
-4.63
-5.52
-6.30
-6.87
-7.17
-7.27
-7.26
-7.29
-7.43
-7.69
-8.02
-8.32
-8.52
-8.58
-8.54
-8.50
-8.57
-8.81
-9.20
-9.64
-10.00
-10.13
-9.94
-9.37
-8.36
-6.88
-4.96
-2.69
-0.28
2.04
4.04
5.65
6.90
7.86
8.61
9.14
9.42
9.44
9.29
9.10
9.02
9.12
9.32
9.48
9.44
9.15
8.63
8.02
7.41
6.85
6.35
5.88
5.37
4.80
4.14
3.42
2.67
1.98
1.39
0.91
0.48
-0.02
-0.68
-1.53
-2.48
-3.35
-4.01
-4.41
-4.64
-4.84
-5.15
-5.63
-6.27
-6.96
-7.61
-8.08
-8.28
-8.08
-7.38
-6.11
-4.31
-2.12
0.18
2.30
3.97
5.09
5.71
5.98
6.09
6.12
6.11
6.02
5.88
5.71
5.59
5.54
5.47
5.26
4.86
4.29
3.72
3.31
3.17
3.23
3.33
3.24
2.84
2.12
1.22
0.31
-0.47
-1.07
-1.54
-1.99
-2.51
-3.14
-3.87
-4.62
-5.35
-6.02
-6.65
-7.21
-7.70
-8.09
-8.38
-8.63
-8.91
-9.21
-9.46
-9.50
-9.09
-8.07
-6.43
-4.34
-2.05
0.12
1.99
3.43
4.47
5.20
5.74
6.19
6.58
6.90
7.08
7.09
6.92
6.65
6.36
6.10
5.90
5.70
5.44
5.05
4.52
3.86
3.15
2.41
1.69
0.99
0.36
-0.22
-0.72
-1.16
-1.56
-1.95
-2.37
-2.84
-3.37
-3.95
-4.55
-5.14
-5.71
-6.29
-6.90
-7.54
-8.16
-8.65
-8.87
-8.72
-8.12
-7.07
-5.62
-3.81
-1.75
0.43
2.57
4.44
5.85
6.66
6.90
6.71
6.30
5.90
5.63
5.52
5.51
5.49
5.39
5.19
4.92
4.65
4.45
4.31
4.22
4.11
3.92
3.59
3.14
2.59
1.99
1.34
0.66
-0.09
-0.91
-1.77
-2.61
-3.34
-3.95
-4.42
-4.82
-5.23
-5.69
-6.17
-6.64
-7.03
-7.37
-7.75
-8.29
-9.03
-9.91
-10.69
-11.08
-10.78
-9.67
-7.84
-5.54
-3.12
-0.92
0.86
2.16
3.05
3.69
4.19
4.63
5.01
5.26
5.36
5.33
5.24
5.20
5.26
5.44
5.68
5.90
6.07
6.16
6.21
6.21
6.14
5.94
5.55
4.96
4.25
3.49
2.78
2.11
1.43
0.65
-0.31
-1.43
-2.63
-3.76
-4.72
-5.44
-5.95
-6.27
-6.45
-6.53
-6.62
-6.82
-7.25
-7.92
-8.70
-9.30
-9.34
-8.50
-6.68
-4.05
-1.01
1.97
4.46
6.19
7.15
7.48
7.46
7.33
7.22
7.20
7.21
7.22
7.22
7.22
7.20
7.14
7.01
6.80
6.56
6.34
6.20
6.12
6.00
5.71
5.21
4.53
3.76
2.99
2.21
1.38
0.44
-0.59
-1.64
-2.59
-3.39
-4.01
-4.52
-4.96
-5.38
-5.84
-6.39
-7.08
-7.89
-8.70
-9.28
-9.33
-8.69
-7.35
-5.55
-3.60
-1.79
-0.24
1.03
2.07
2.86
3.35
3.46
3.19
2.68
2.12
1.74
1.66
1.89
2.37
3.00
3.66
4.25
4.71
4.97
5.01
4.86
4.58
4.16
3.58
2.79
1.77
0.59
-0.64
-1.76
-2.65
-3.29
-3.75
-4.15
-4.60
-5.21
-5.99
-6.93
-7.92
-8.84
-9.51
-9.81
-9.63
-8.93
-7.72
-6.03
-3.93
-1.52
0.96
3.23
4.92
5.81
5.83
5.13
4.03
2.89
1.98
1.44
1.26
1.38
1.67
2.05
2.39
2.59
2.57
2.30
1.85
1.36
0.97
0.81
0.87
1.03
1.12
1.01
0.61
-0.04
-0.81
-1.55
-2.13
-2.51
-2.74
-2.95
-3.22
-3.56
-3.82
-3.79
-3.26
-2.14
-0.48
1.51
3.59
5.51
7.16
8.49
9.54
10.34
10.88
11.11
10.95
10.35
9.30
7.94
6.46
5.12
4.13
3.56
3.34
3.29
3.22
2.97
2.51
1.85
1.08
0.31
-0.38
-0.90
-1.21
-1.33
-1.37
-1.49
-1.87
-2.63
-3.74
-5.07
-6.41
-7.60
-8.57
-9.39
-10.17
-10.99
-11.79
-12.41
-12.65
-12.38
-11.56
-10.25
-8.55
-6.59
-4.48
-2.35
-0.33
1.39
2.72
3.57
3.98
4.00
3.74
3.34
2.95
2.70
2.70
2.98
3.43
3.92
4.27
4.37
4.19
3.75
3.11
2.33
1.52
0.75
0.11
-0.38
-0.71
-0.95
-1.17
-1.35
-1.41
-1.19
-0.57
0.45
1.74
3.05
4.08
4.61
4.59
4.13
3.52
3.06
3.06
3.71
5.07
7.13
9.76
12.85
16.20
19.61
22.86
25.76
28.22
30.20
31.69
32.58
32.54
31.08
27.78
22.44
15.31
7.06
-1.43
-9.32
-16.03
-21.36
-25.35
-28.15
-29.85
-30.52
-30.22
-29.09
-27.35
-25.25
-22.96
-20.58
-18.13
-15.60
-13.08
-10.73
-8.75
-7.28
-6.36
-5.91
-5.77
-5.79
-5.88
-6.00
-6.13
-6.19
-6.00
-5.39
-4.20
-2.46
-0.31
1.95
4.06
5.80
7.07
7.84
8.15
8.09
7.72
7.15
6.45
5.69
4.94
4.27
3.76
3.47
3.41
3.54
3.73
3.87
3.89
3.76
3.50
3.13
2.64
2.05
1.34
0.56
-0.24
-1.05
-1.83
-2.55
-3.11
-3.42
-3.37
-3.00
-2.48
-2.14
-2.32
-3.23
-4.83
-6.88
-9.01
-10.83
-12.03
-12.44
-11.99
-10.71
-8.73
-6.26
-3.58
-0.97
1.32
3.13
4.44
5.30
5.83
6.16
6.38
6.54
6.64
6.63
6.50
6.26
5.96
5.69
5.51
5.42
5.40
5.42
5.48
5.65
6.00
6.57
7.21
7.70
7.81
7.39
6.49
5.30
4.04
2.82
1.63
0.28
-1.37
-3.38
-5.63
-7.89
-9.87
-11.43
-12.58
-13.45
-14.25
-15.09
-15.95
-16.66
-16.91
-16.43
-15.04
-12.78
-9.89
-6.71
-3.59
-0.78
1.52
3.22
4.24
4.55
4.18
3.31
2.22
1.28
0.84
1.05
1.84
2.96
4.04
4.77
4.94
4.48
3.51
2.19
0.79
-0.44
-1.32
-1.73
-1.65
-1.14
-0.32
0.64
1.55
2.24
2.57
2.49
2.04
1.36
0.62
-0.01
-0.42
-0.63
-0.76
-0.97
-1.40
-2.11
-3.10
-4.22
-5.31
-6.14
-6.53
-6.31
-5.44
-3.98
-2.15
-0.24
1.47
2.78
3.68
4.28
4.77
5.29
5.89
6.52
7.08
7.52
7.81
8.00
8.13
8.25
8.38
8.50
8.57
8.55
8.41
8.13
7.75
7.30
6.81
6.29
5.71
5.02
4.19
3.21
2.14
1.05
-0.01
-1.01
-1.94
-2.82
-3.65
-4.43
-5.16
-5.88
-6.65
-7.53
-8.56
-9.70
-10.78
-11.58
-11.84
-11.41
-10.28
-8.58
-6.60
-4.60
-2.81
-1.34
-0.18
0.73
1.47
2.05
2.46
2.66
2.69
2.63
2.63
2.82
3.24
3.89
4.61
5.25
5.65
5.68
5.32
4.56
3.47
2.12
0.63
-0.88
-2.27
-3.45
-4.34
-4.93
-5.26
-5.42
-5.52
-5.64
-5.84
-6.14
-6.52
-6.95
-7.41
-7.88
-8.32
-8.70
-8.94
-8.95
-8.62
-7.87
-6.64
-4.94
-2.86
-0.56
1.75
3.83
5.46
6.48
6.90
6.82
6.46
6.04
5.73
5.63
5.72
5.90
6.07
6.15
6.11
5.99
5.87
5.80
5.81
5.83
5.76
5.52
5.06
4.43
3.69
2.94
2.26
1.66
1.19
0.85
0.61
0.40
0.14
-0.23
-0.72
-1.29
-1.85
-2.36
-2.87
-3.46
-4.21
-5.10
-5.99
-6.67
-6.93
-6.67
-5.90
-4.70
-3.19
-1.47
0.36
2.21
3.95
5.50
6.76
7.69
8.30
8.59
8.61
8.41
8.07
7.67
7.34
7.11
7.03
7.07
7.22
7.38
7.48
7.43
7.12
6.52
5.67
4.67
3.64
2.70
1.83
0.98
0.06
-0.98
-2.11
-3.27
-4.38
-5.42
-6.40
-7.36
-8.29
-9.17
-9.97
-10.68
-11.36
-12.11
-12.98
-13.96
-14.85
-15.39
-15.28
-14.37
-12.72
-10.55
-8.20
-5.93
-3.86
-1.99
-0.29
1.23
2.48
3.35
3.78
3.87
3.78
3.64
3.56
3.52
3.50
3.50
3.55
3.73
4.03
4.40
4.69
4.78
4.60
4.18
3.59
2.92
2.23
1.56
0.92
0.30
-0.29
-0.85
-1.40
-1.91
-2.37
-2.76
-3.05
-3.23
-3.32
-3.39
-3.52
-3.80
-4.26
-4.84
-5.46
-5.95
-6.15
-5.89
-5.07
-3.66
-1.76
0.44
2.67
4.64
6.12
7.01
7.28
7.03
6.41
5.62
4.85
4.25
3.92
3.86
4.04
4.38
4.80
5.21
5.52
5.64
5.50
5.07
4.42
3.69
3.03
2.55
2.21
1.85
1.28
0.37
-0.82
-2.06
-3.06
-3.60
-3.69
-3.54
-3.41
-3.54
-3.99
-4.67
-5.40
-6.03
-6.46
-6.62
-6.44
-5.88
-4.90
-3.53
-1.92
-0.24
1.30
2.57
3.48
4.06
4.33
4.35
4.15
3.78
3.29
2.83
2.55
2.56
2.87
3.36
3.78
3.93
3.72
3.22
2.63
2.06
1.56
0.99
0.22
-0.81
-2.00
-3.17
-4.16
-4.91
-5.48
-5.99
-6.50
-7.04
-7.60
-8.15
-8.73
-9.35
-9.95
-10.39
-10.44
-9.92
-8.76
-7.05
-5.00
-2.85
-0.82
0.98
2.49
3.71
4.67
5.41
6.01
6.49
6.90
7.25
7.55
7.84
8.18
8.61
9.08
9.46
9.59
9.33
8.67
7.68
6.57
5.48
4.47
3.51
2.52
1.52
0.59
-0.18
-0.72
-1.07
-1.37
-1.77
-2.40
-3.27
-4.34
-5.44
-6.40
-6.98
-7.01
-6.41
-5.26
-3.74
-2.16
-0.75
0.38
1.24
1.97
2.64
3.23
3.60
3.64
3.28
2.58
1.73
0.92
0.29
-0.14
-0.40
-0.57
-0.68
-0.72
-0.65
-0.49
-0.30
-0.21
-0.29
-0.59
-1.03
-1.52
-1.97
-2.39
-2.80
-3.26
-3.77
-4.29
-4.76
-5.15
-5.53
-5.98
-6.56
-7.25
-7.95
-8.46
-8.61
-8.24
-7.27
-5.76
-3.82
-1.69
0.43
2.35
3.95
5.23
6.23
6.99
7.52
7.80
7.78
7.49
7.02
6.50
6.09
5.86
5.84
5.96
6.14
6.29
6.34
6.25
6.00
5.60
5.02
4.29
3.43
2.47
1.45
0.41
-0.61
-1.60
-2.51
-3.32
-4.00
-4.57
-5.08
-5.57
-6.11
-6.69
-7.27
-7.76
-8.08
-8.14
-7.89
-7.30
-6.36
-5.09
-3.59
-1.96
-0.35
1.11
2.36
3.37
4.13
4.64
4.86
4.78
4.44
3.97
3.56
3.36
3.46
3.82
4.33
4.89
5.46
6.04
6.62
7.16
7.53
7.62
7.32
6.63
5.59
4.35
3.07
1.93
1.06
0.57
0.47
0.67
1.00
1.23
1.14
0.60
-0.39
-1.65
-2.88
-3.76
-4.03
-3.54
-2.29
-0.43
1.79
4.13
6.27
7.94
8.93
9.16
8.65
7.55
6.09
4.47
2.86
1.36
0.01
-1.13
-2.01
-2.61
-2.94
-3.08
-3.16
-3.34
-3.71
-4.33
-5.14
-6.03
-6.86
-7.54
-8.02
-8.27
-8.31
-8.13
-7.76
-7.24
-6.68
-6.22
-6.01
-6.11
-6.42
-6.72
-6.67
-6.01
-4.65
-2.67
-0.36
1.95
3.93
5.32
6.00
5.96
5.30
4.21
2.92
1.65
0.59
-0.18
-0.64
-0.84
-0.85
-0.77
-0.68
-0.64
-0.73
-0.96
-1.28
-1.59
-1.78
-1.78
-1.64
-1.47
-1.46
-1.77
-2.43
-3.36
-4.36
-5.18
-5.69
-5.87
-5.82
-5.73
-5.77
-6.01
-6.45
-6.98
-7.38
-7.43
-6.92
-5.72
-3.87
-1.56
0.87
3.06
4.79
5.98
6.76
7.27
7.62
7.80
7.76
7.50
7.10
6.77
6.67
6.87
7.24
7.53
7.54
7.19
6.58
5.90
5.34
4.99
4.81
4.73
4.65
4.47
4.11
3.51
2.61
1.45
0.15
-1.10
-2.12
-2.79
-3.14
-3.29
-3.44
-3.73
-4.23
-4.90
-5.63
-6.21
-6.49
-6.29
-5.48
-4.04
-2.06
0.20
2.38
4.13
5.18
5.49
5.21
4.64
4.05
3.62
3.40
3.32
3.28
3.23
3.23
3.32
3.58
3.97
4.40
4.72
4.82
4.67
4.35
4.03
3.83
3.79
3.78
3.64
3.22
2.54
1.72
0.94
0.32
-0.21
-0.78
-1.50
-2.34
-3.18
-3.82
-4.15
-4.25
-4.31
-4.60
-5.26
-6.27
-7.41
-8.36
-8.85
-8.72
-7.98
-6.74
-5.17
-3.44
-1.70
-0.06
1.36
2.43
3.09
3.34
3.27
3.01
2.72
2.47
2.32
2.28
2.37
2.60
2.93
3.32
3.69
3.93
3.96
3.74
3.31
2.77
2.27
1.89
1.70
1.68
1.70
1.60
1.21
0.41
-0.77
-2.18
-3.60
-4.84
-5.76
-6.38
-6.79
-7.08
-7.34
-7.53
-7.59
-7.44
-7.06
-6.44
-5.61
-4.55
-3.24
-1.68
0.10
1.96
3.71
5.15
6.09
6.41
6.09
5.24
4.04
2.80
1.81
1.30
1.33
1.77
2.39
2.99
3.44
3.74
3.95
4.08
4.09
3.94
3.61
3.15
2.69
2.29
1.94
1.56
1.05
0.42
-0.21
-0.72
-1.04
-1.25
-1.55
-2.17
-3.17
-4.40
-5.51
-6.13
-5.99
-5.03
-3.34
-1.16
1.28
3.75
6.03
7.93
9.32
10.12
10.41
10.37
10.21
10.13
10.23
10.51
10.92
11.38
11.77
11.97
11.81
11.15
9.92
8.14
5.94
3.51
1.08
-1.18
-3.18
-4.91
-6.44
-7.87
-9.32
-10.83
-12.41
-14.00
-15.49
-16.82
-17.96
-18.87
-19.54
-19.85
-19.65
-18.80
-17.27
-15.14
-12.61
-9.95
-7.38
-5.05
-2.97
-1.11
0.58
2.11
3.39
4.32
4.86
5.05
5.01
4.92
4.93
5.06
5.23
5.33
5.32
5.29
5.40
5.76
6.35
7.02
7.52
7.67
7.40
6.81
6.07
5.37
4.84
4.54
4.50
4.65
4.89
5.07
5.02
4.65
3.97
3.14
2.37
1.89
1.84
2.19
2.83
3.58
4.28
4.83
5.22
5.44
5.48
5.27
4.72
3.77
2.44
0.87
-0.73
-2.13
-3.21
-3.94
-4.38
-4.64
-4.82
-4.99
-5.15
-5.31
-5.44
-5.54
-5.65
-5.81
-6.15
-6.74
-7.63
-8.76
-9.97
-11.07
-11.91
-12.47
-12.80
-13.06
-13.34
-13.66
-14.00
-14.26
-14.34
-14.14
-13.56
-12.50
-10.93
-8.89
-6.52
-4.07
-1.79
0.12
1.56
2.50
3.01
3.18
3.11
2.95
2.81
2.82
3.04
3.45
3.96
4.38
4.56
4.40
3.91
3.23
2.53
1.94
1.51
1.22
0.93
0.57
0.05
-0.58
-1.27
-1.92
-2.49
-2.99
-3.45
-3.91
-4.34
-4.68
-4.86
-4.82
-4.53
-4.01
-3.23
-2.18
-0.81
0.86
2.77
4.76
6.62
8.12
9.08
9.43
9.20
8.52
7.62
6.73
6.04
5.66
5.57
5.68
5.82
5.84
5.67
5.32
4.89
4.46
4.09
3.78
3.49
3.15
2.74
2.23
1.60
0.86
0.00
-0.96
-2.04
-3.18
-4.32
-5.37
-6.16
-6.54
-6.38
-5.60
-4.27
-2.52
-0.57
1.40
3.21
4.73
5.88
6.63
7.00
7.09
7.05
7.02
7.12
7.36
7.73
8.18
8.67
9.23
9.86
10.57
11.35
12.13
12.82
13.30
13.46
13.21
12.51
11.41
10.02
8.52
7.08
5.78
4.62
3.44
2.01
0.06
-2.58
-5.97
-9.96
-14.19
-18.22
-21.51
-23.67
-24.48
-23.99
-22.54
-20.61
-18.67
-17.09
-15.99
-15.30
-14.82
-14.36
-13.78
-13.04
-12.12
-11.01
-9.73
-8.36
-6.99
-5.78
-4.83
-4.14
-3.58
-2.97
-2.20
-1.25
-0.22
0.74
1.49
1.92
2.02
1.85
1.52
1.18
0.95
0.90
0.96
1.00
0.87
0.48
-0.12
-0.80
-1.40
-1.77
-1.88
-1.70
-1.18
-0.26
1.12
2.92
4.97
7.03
8.83
10.20
11.07
11.53
11.68
11.63
11.44
11.11
10.64
10.02
9.31
8.59
7.99
7.62
7.49
7.54
7.65
7.63
7.35
6.75
5.84
4.72
3.51
2.33
1.27
0.39
-0.33
-0.93
-1.43
-1.86
-2.22
-2.49
-2.62
-2.63
-2.53
-2.41
-2.36
-2.47
-2.81
-3.37
-4.06
-4.73
-5.15
-5.12
-4.52
-3.33
-1.65
0.33
2.38
4.27
5.85
7.05
7.85
8.31
8.50
8.45
8.21
7.82
7.33
6.87
6.54
6.37
6.32
6.29
6.14
5.82
5.32
4.72
4.10
3.47
2.83
2.10
1.27
0.37
-0.49
-1.21
-1.71
-2.03
-2.25
-2.51
-2.94
-3.62
-4.50
-5.47
-6.40
-7.17
-7.79
-8.29
-8.76
-9.28
-9.80
-10.21
-10.31
-9.94
-9.01
-7.64
-6.06
-4.51
-3.23
-2.29
-1.70
-1.41
-1.41
-1.75
-2.51
-3.64
-4.97
-6.20
-7.05
-7.33
-7.12
-6.63
-6.12
-5.79
-5.65
-5.62
-5.58
-5.48
-5.37
-5.34
-5.46
-5.74
-6.13
-6.55
-6.92
-7.24
-7.44
-7.52
-7.41
-7.10
-6.63
-6.10
-5.63
-5.33
-5.28
-5.46
-5.74
-5.92
-5.74
-5.00
-3.62
-1.64
0.72
3.19
5.58
7.77
9.76
11.58
13.22
14.62
15.74
16.56
17.13
17.56
17.92
18.25
18.49
18.58
18.47
18.13
17.55
16.69
15.51
13.96
12.03
9.78
7.26
4.59
1.86
-0.82
-3.38
-5.73
-7.84
-9.67
-11.22
-12.48
-13.44
-14.08
-14.35
-14.25
-13.81
-13.12
-12.33
-11.62
-11.14
-11.00
-11.19
-11.57
-11.92
-11.97
-11.53
-10.49
-8.82
-6.67
-4.25
-1.82
0.41
2.30
3.87
5.18
6.33
7.33
8.11
8.59
8.72
8.60
8.36
8.22
8.27
8.46
8.62
8.55
8.12
7.36
6.41
5.49
4.79
4.36
4.15
3.98
3.65
3.01
2.01
0.69
-0.78
-2.21
-3.44
-4.39
-5.08
-5.62
-6.10
-6.62
-7.18
-7.73
-8.16
-8.40
-8.47
-8.44
-8.44
-8.58
-8.84
-9.12
-9.21
-8.92
-8.12
-6.81
-5.08
-3.11
-1.10
0.77
2.38
3.65
4.57
5.19
5.60
5.89
6.12
6.28
6.35
6.33
6.29
6.29
6.44
6.75
7.21
7.79
8.44
9.11
9.76
10.29
10.59
10.56
10.14
9.34
8.26
7.01
5.72
4.49
3.33
2.25
1.19
0.11
-1.04
-2.24
-3.43
-4.50
-5.35
-5.94
-6.27
-6.45
-6.65
-7.01
-7.61
-8.43
-9.29
-9.99
-10.32
-10.14
-9.42
-8.22
-6.67
-4.91
-3.09
-1.33
0.26
1.60
2.63
3.36
3.84
4.06
4.05
3.80
3.32
2.67
2.01
1.51
1.31
1.45
1.83
2.26
2.57
2.63
2.45
2.09
1.65
1.14
0.57
-0.06
-0.71
-1.27
-1.66
-1.85
-1.85
-1.79
-1.76
-1.83
-2.05
-2.43
-3.00
-3.81
-4.83
-5.94
-6.89
-7.41
-7.25
-6.32
-4.70
-2.64
-0.44
1.65
3.45
4.88
5.96
6.74
7.26
7.59
7.73
7.71
7.51
7.16
6.69
6.16
5.67
5.31
5.15
5.20
5.44
5.80
6.18
6.48
6.63
6.59
6.36
6.03
5.71
5.51
5.52
5.78
6.24
6.80
7.37
7.87
8.33
8.80
9.36
10.03
10.78
11.55
12.29
13.03
13.90
15.11
16.87
19.36
22.64
26.59
30.94
35.25
39.03
41.80
43.20
43.13
41.69
39.15
35.86
32.09
28.01
23.63
18.92
13.79
8.19
2.09
-4.51
-11.57
-19.05
-26.77
-34.49
-41.87
-48.56
-54.30
-58.98
-62.69
-65.54
-67.66
-69.00
-69.43
-68.73
-66.77
-63.48
-58.88
-53.07
-46.16
-38.31
-29.79
-20.95
-12.20
-3.93
3.61
10.32
16.25
21.55
26.39
30.96
35.33
39.53
43.45
46.94
49.80
51.86
52.97
53.02
51.91
49.53
45.83
40.84
34.82
28.22
21.63
15.55
10.27
5.77
1.81
-1.89
-5.52
-9.15
-12.71
-16.15
-19.49
-22.81
-26.17
-29.61
-33.13
-36.67
-40.13
-43.40
-46.29
-48.58
-50.03
-50.52
-50.07
-48.80
-46.90
-44.54
-41.84
-38.77
-35.19
-30.84
-25.42
-18.75
-10.88
-2.22
6.51
14.46
20.92
25.56
28.44
29.91
30.42
30.26
29.54
28.27
26.52
24.52
22.72
21.66
21.84
23.52
26.72
31.22
36.58
42.32
47.93
52.92
56.87
59.40
60.16
58.88
55.35
49.62
41.99
33.07
23.68
14.66
6.71
0.22
-4.75
-8.41
-11.13
-13.39
-15.69
-18.48
-21.99
-26.14
-30.47
-34.23
-36.62
-37.02
-35.19
-31.32
-25.95
-19.93
-14.17
-9.45
-6.18
-4.32
-3.50
-3.23
-3.22
-3.49
-4.23
-5.52
-7.18
-8.82
-10.11
-11.02
-11.91
-13.26
-15.40
-18.24
-21.29
-23.92
-25.64
-26.28
-26.01
-25.26
-24.50
-24.14
-24.41
-25.28
-26.49
-27.81
-29.03
-30.16
-31.31
-32.56
-33.82
-34.79
-35.11
-34.49
-32.91
-30.61
-28.01
-25.45
-23.13
-21.02
-18.95
-16.77
-14.46
-12.14
-10.05
-8.37
-7.16
-6.26
-5.42
-4.41
-3.07
-1.45
0.28
1.88
3.18
4.13
4.79
5.26
5.61
5.79
5.69
5.19
4.25
2.96
1.52
0.12
-1.08
-2.10
-3.09
-4.24
-5.69
-7.42
-9.21
-10.75
-11.68
-11.77
-10.94
-9.34
-7.19
-4.78
-2.35
-0.17
1.49
2.35
2.18
0.95
-1.13
-3.56
-5.72
-7.03
-7.24
-6.49
-5.36
-4.61
-4.92
-6.69
-9.93
-14.29
-19.25
-24.34
-29.17
-33.50
-37.22
-40.36
-43.21
-46.22
-49.80
-54.03
-58.40
-61.79
-62.82
-60.34
-53.90
-43.88
-31.29
-17.27
-2.83
11.31
24.59
36.38
46.03
53.02
57.20
58.90
58.76
57.50
55.60
53.25
50.39
46.88
42.76
38.25
33.70
29.47
25.79
22.73
20.27
18.35
16.94
16.07
15.78
16.04
16.71
17.53
18.23
18.57
18.46
18.00
17.39
16.91
16.76
17.07
17.84
19.00
20.44
21.97
23.35
24.31
24.55
23.86
22.23
19.86
17.13
14.43
12.05
10.03
8.33
6.88
5.74
5.08
5.04
5.60
6.45
7.09
7.01
5.95
3.98
1.51
-0.88
-2.69
-3.59
-3.46
-2.33
-0.32
2.45
5.79
9.42
13.01
16.16
18.55
19.99
20.53
20.30
19.57
18.54
17.32
15.99
14.53
12.96
11.29
9.51
7.62
5.58
3.36
0.94
-1.68
-4.48
-7.32
-9.96
-12.01
-13.08
-12.82
-11.15
-8.21
-4.35
-0.03
4.29
8.23
11.50
13.90
15.35
15.96
16.03
15.98
16.25
17.12
18.66
20.72
22.99
25.09
26.66
27.44
27.36
26.48
25.03
23.28
21.45
19.60
17.61
15.23
12.21
8.43
3.97
-0.85
-5.62
-9.87
-13.27
-15.66
-17.03
-17.61
-17.68
-17.60
-17.68
-18.13
-18.92
-19.78
-20.20
-19.70
-18.05
-15.42
-12.34
-9.49
-7.42
-6.32
-6.03
-6.23
-6.60
-6.98
-7.34
-7.66
-7.80
-7.61
-6.99
-5.99
-4.90
-4.03
-3.65
-3.80
-4.23
-4.60
-4.59
-4.05
-3.08
-1.97
-1.01
-0.45
-0.37
-0.75
-1.39
-2.10
-2.66
-2.94
-2.94
-2.78
-2.63
-2.68
-3.03
-3.63
-4.31
-4.82
-4.90
-4.34
-3.02
-1.00
1.54
4.26
6.78
8.78
10.11
10.85
11.25
11.62
12.20
13.07
14.17
15.31
16.33
17.12
17.71
18.21
18.76
19.39
20.06
20.57
20.72
20.37
19.48
18.13
16.42
14.40
12.12
9.65
7.11
4.73
2.70
1.09
-0.24
-1.61
-3.36
-5.72
-8.64
-11.86
-15.00
-17.73
-19.81
-21.11
-21.58
-21.16
-19.81
-17.55
-14.55
-11.08
-7.56
-4.34
-1.70
0.25
1.59
2.48
3.10
3.63
4.21
4.94
5.89
7.09
8.51
9.98
11.23
11.96
11.88
10.84
8.88
6.24
3.28
0.42
-2.00
-3.83
-5.06
-5.87
-6.49
-7.11
-7.87
-8.80
-9.86
-10.96
-11.96
-12.70
-13.02
-12.82
-12.07
-10.90
-9.53
-8.23
-7.23
-6.68
-6.55
-6.76
-7.06
-7.19
-6.85
-5.85
-4.17
-1.98
0.38
2.54
4.18
5.25
5.89
6.39
7.02
7.91
8.98
9.94
10.46
10.27
9.27
7.61
5.56
3.48
1.69
0.44
-0.16
-0.06
0.66
1.89
3.38
4.83
5.97
6.62
6.73
6.41
5.80
5.05
4.22
3.30
2.21
0.99
-0.26
-1.44
-2.43
-3.27
-4.09
-5.05
-6.22
-7.56
-8.89
-10.03
-10.93
-11.68
-12.44
-13.26
-13.96
-14.18
-13.52
-11.81
-9.20
-6.10
-3.05
-0.47
1.42
2.61
3.18
3.24
2.86
2.12
1.12
0.03
-1.01
-1.87
-2.56
-3.10
-3.58
-4.02
-4.37
-4.56
-4.51
-4.23
-3.84
-3.54
-3.47
-3.68
-4.06
-4.42
-4.64
-4.72
-4.80
-5.08
-5.69
-6.53
-7.44
-8.18
-8.65
-8.94
-9.22
-9.69
-10.42
-11.29
-12.09
-12.58
-12.61
-12.17
-11.32
-10.11
-8.56
-6.66
-4.45
-2.05
0.30
2.34
3.86
4.84
5.41
5.73
5.96
6.14
6.18
5.99
5.52
4.86
4.14
3.54
3.15
2.98
2.90
2.81
2.64
2.42
2.25
2.26
2.48
2.86
3.27
3.46
3.25
2.54
1.34
-0.19
-1.82
-3.30
-4.46
-5.22
-5.60
-5.66
-5.53
-5.36
-5.30
-5.45
-5.85
-6.44
-7.03
-7.37
-7.24
-6.45
-4.94
-2.80
-0.18
2.63
5.31
7.55
9.08
9.78
9.67
8.89
7.66
6.20
4.71
3.41
2.41
1.81
1.53
1.45
1.40
1.26
1.08
0.97
1.07
1.39
1.79
2.02
1.90
1.37
0.62
-0.06
-0.36
-0.11
0.70
1.92
3.39
4.95
6.47
7.81
8.83
9.40
9.46
9.13
8.66
8.40
8.66
9.62
11.26
13.37
15.66
17.81
19.53
20.63
21.00
20.63
19.52
17.71
15.29
12.38
9.21
6.04
3.19
0.89
-0.73
-1.68
-2.07
-2.05
-1.77
-1.39
-0.98
-0.60
-0.18
0.34
0.97
1.66
2.29
2.76
3.06
3.30
3.63
4.12
4.69
5.15
5.26
4.85
3.90
2.50
0.72
-1.36
-3.73
-6.36
-9.17
-12.04
-14.84
-17.50
-20.00
-22.33
-24.46
-26.33
-27.83
-28.85
-29.30
-29.22
-28.67
-27.77
-26.63
-25.32
-23.88
-22.29
-20.57
-18.77
-17.01
-15.41
-14.10
-13.11
-12.34
-11.69
-11.03
-10.35
-9.71
-9.24
-9.00
-8.97
-9.04
-9.08
-9.00
-8.76
-8.40
-7.95
-7.49
-7.06
-6.72
-6.53
-6.51
-6.63
-6.77
-6.76
-6.42
-5.64
-4.40
-2.80
-1.00
0.81
2.44
3.79
4.85
5.72
6.47
7.14
7.62
7.81
7.62
7.13
6.56
6.16
6.11
6.35
6.70
6.89
6.77
6.35
5.76
5.17
4.68
4.26
3.85
3.36
2.77
2.09
1.42
0.88
0.58
0.56
0.77
1.02
1.06
0.67
-0.24
-1.56
-3.05
-4.37
-5.24
-5.43
-4.87
-3.63
-1.92
-0.03
1.80
3.35
4.57
5.47
6.10
6.50
6.67
6.65
6.58
6.67
7.11
7.97
9.13
10.31
11.16
11.49
11.23
10.54
9.62
8.66
7.76
6.90
5.99
4.94
3.75
2.49
1.31
0.33
-0.40
-0.93
-1.43
-2.05
-2.89
-3.92
-5.02
-5.97
-6.56
-6.59
-5.89
-4.36
-2.02
0.96
4.25
7.41
9.98
11.67
12.32
12.05
11.13
9.94
8.80
7.91
7.32
6.93
6.55
6.02
5.25
4.24
3.09
1.98
1.04
0.37
-0.02
-0.21
-0.33
-0.52
-0.90
-1.47
-2.20
-3.00
-3.77
-4.37
-4.69
-4.61
-4.14
-3.35
-2.50
-1.88
-1.74
-2.13
-2.86
-3.53
-3.74
-3.24
-1.99
-0.13
2.07
4.40
6.66
8.71
10.39
11.59
12.22
12.25
11.75
10.87
9.79
8.68
7.69
6.92
6.41
6.09
5.82
5.51
5.06
4.52
3.92
3.34
2.72
2.01
1.14
0.08
-1.12
-2.41
-3.73
-5.08
-6.41
-7.61
-8.52
-8.97
-8.92
-8.50
-8.00
-7.70
-7.76
-8.12
-8.61
-8.96
-8.95
-8.50
-7.56
-6.18
-4.35
-2.13
0.39
3.01
5.41
7.26
8.32
8.59
8.26
7.68
7.16
6.86
6.76
6.74
6.68
6.49
6.22
5.93
5.65
5.35
4.98
4.56
4.14
3.79
3.54
3.37
3.19
2.91
2.49
1.97
1.40
0.85
0.31
-0.27
-0.94
-1.72
-2.56
-3.36
-4.04
-4.55
-4.89
-5.16
-5.44
-5.79
-6.27
-6.86
-7.43
-7.78
-7.65
-6.82
-5.22
-2.94
-0.28
2.39
4.74
6.54
7.74
8.38
8.57
8.42
8.02
7.42
6.71
6.02
5.47
5.13
4.99
4.93
4.83
4.59
4.21
3.79
3.50
3.44
3.57
3.73
3.68
3.18
2.20
0.82
-0.73
-2.17
-3.31
-4.06
-4.47
-4.64
-4.71
-4.77
-4.89
-5.07
-5.30
-5.54
-5.81
-6.12
-6.52
-6.95
-7.26
-7.22
-6.62
-5.36
-3.55
-1.42
0.66
2.39
3.59
4.23
4.40
4.21
3.77
3.21
2.67
2.28
2.18
2.39
2.86
3.42
3.87
4.07
3.96
3.61
3.14
2.69
2.35
2.19
2.18
2.28
2.40
2.39
2.13
1.52
0.56
-0.70
-2.09
-3.42
-4.54
-5.33
-5.78
-5.95
-5.94
-5.91
-6.02
-6.38
-7.03
-7.82
-8.52
-8.82
-8.47
-7.37
-5.61
-3.44
-1.17
0.90
2.59
3.79
4.49
4.75
4.67
4.36
3.93
3.49
3.13
2.92
2.90
3.06
3.37
3.72
4.00
4.10
3.97
3.64
3.19
2.71
2.26
1.85
1.42
0.98
0.50
0.02
-0.47
-0.95
-1.49
-2.14
-2.90
-3.68
-4.37
-4.86
-5.08
-5.10
-5.01
-4.97
-5.09
-5.44
-6.02
-6.75
-7.49
-8.04
-8.22
-7.89
-7.03
-5.67
-3.96
-2.04
-0.07
1.81
3.44
4.64
5.29
5.34
4.89
4.15
3.33
2.60
1.99
1.52
1.15
0.90
0.79
0.85
1.01
1.21
1.39
1.58
1.86
2.28
2.83
3.33
3.61
3.50
3.02
2.34
1.69
1.24
0.99
0.82
0.52
0.03
-0.60
-1.16
-1.43
-1.32
-0.93
-0.50
-0.31
-0.57
-1.34
-2.52
-3.86
-5.06
-5.83
-5.97
-5.37
-4.10
-2.35
-0.41
1.43
2.98
4.18
5.07
5.77
6.37
6.87
7.23
7.38
7.26
6.88
6.33
5.71
5.13
4.61
4.14
3.66
3.14
2.57
1.98
1.40
0.84
0.21
-0.58
-1.61
-2.85
-4.14
-5.31
-6.21
-6.84
-7.28
-7.66
-8.09
-8.59
-9.12
-9.62
-10.07
-10.47
-10.82
-11.09
-11.21
-11.13
-10.75
-10.05
-8.99
-7.61
-5.98
-4.25
-2.59
-1.16
-0.08
0.65
1.09
1.38
1.59
1.75
1.86
1.87
1.73
1.38
0.86
0.20
-0.53
-1.23
-1.86
-2.42
-2.92
-3.38
-3.78
-4.00
-3.99
-3.68
-3.16
-2.61
-2.18
-1.99
-2.00
-2.09
-2.12
-2.04
-1.91
-1.83
-1.86
-1.99
-2.16
-2.32
-2.44
-2.59
-2.80
-3.01
-3.05
-2.72
-1.86
-0.43
1.42
3.44
5.37
6.96
8.10
8.71
8.82
8.48
7.76
6.77
5.67
4.62
3.79
3.29
3.15
3.28
3.51
3.67
3.62
3.34
2.91
2.49
2.22
2.14
2.19
2.21
2.01
1.53
0.83
0.06
-0.56
-0.91
-0.96
-0.85
-0.81
-1.07
-1.78
-2.89
-4.20
-5.38
-6.10
-6.14
-5.50
-4.34
-2.95
-1.61
-0.50
0.30
0.75
0.85
0.64
0.18
-0.37
-0.86
-1.12
-1.05
-0.68
-0.06
0.70
1.49
2.24
2.87
3.30
3.49
3.45
3.23
2.91
2.51
2.07
1.59
1.05
0.47
-0.11
-0.65
-1.17
-1.71
-2.31
-2.95
-3.49
-3.68
-3.35
-2.45
-1.16
0.18
1.24
1.81
1.87
1.58
1.12
0.61
0.07
-0.50
-1.09
-1.57
-1.81
-1.70
-1.31
-0.79
-0.30
0.04
0.30
0.58
1.02
1.62
2.28
2.81
3.08
2.99
2.57
1.88
1.05
0.17
-0.65
-1.30
-1.71
-1.86
-1.83
-1.75
-1.77
-2.00
-2.42
-2.92
-3.29
-3.30
-2.81
-1.80
-0.35
1.32
2.97
4.37
5.36
5.90
6.06
5.95
5.70
5.39
5.03
4.59
4.08
3.55
3.09
2.77
2.63
2.69
2.93
3.31
3.84
4.48
5.16
5.72
5.99
5.77
4.99
3.75
2.21
0.63
-0.80
-1.98
-2.94
-3.73
-4.46
-5.15
-5.73
-6.06
-5.91
-5.12
-3.66
-1.69
0.46
2.38
3.71
4.30
4.17
3.58
2.78
2.01
1.34
0.76
0.24
-0.26
-0.64
-0.81
-0.66
-0.17
0.57
1.40
2.13
2.59
2.69
2.40
1.73
0.72
-0.59
-2.11
-3.73
-5.35
-6.85
-8.18
-9.27
-10.10
-10.62
-10.70
-10.28
-9.29
-7.78
-5.89
-3.87
-1.94
-0.27
1.04
2.02
2.71
3.17
3.44
3.56
3.59
3.59
3.59
3.55
3.41
3.08
2.54
1.87
1.20
0.65
0.27
-0.02
-0.32
-0.73
-1.29
-1.97
-2.70
-3.45
-4.17
-4.81
-5.33
-5.67
-5.84
-5.87
-5.80
-5.61
-5.22
-4.48
-3.29
-1.64
0.33
2.41
4.41
6.19
7.70
8.91
9.78
10.19
10.05
9.32
8.10
6.60
5.06
3.68
2.55
1.64
0.83
0.06
-0.71
-1.39
-1.92
-2.24
-2.35
-2.32
-2.22
-2.09
-1.94
-1.76
-1.55
-1.36
-1.25
-1.26
-1.39
-1.55
-1.75
-1.96
-2.26
-2.69
-3.25
-3.88
-4.43
-4.77
-4.77
-4.36
-3.46
-2.07
-0.27
1.75
3.74
5.43
6.66
7.38
7.67
7.70
7.61
7.45
7.23
6.91
6.49
5.98
5.47
5.01
4.63
4.36
4.17
4.02
3.89
3.76
3.61
3.39
3.10
2.72
2.29
1.88
1.52
1.15
0.71
0.11
-0.62
-1.37
-2.04
-2.56
-2.96
-3.32
-3.70
-4.11
-4.49
-4.79
-5.03
-5.30
-5.72
-6.28
-6.85
-7.20
-7.13
-6.58
-5.61
-4.36
-2.98
-1.53
-0.02
1.50
2.95
4.13
4.84
4.98
4.60
3.88
3.13
2.57
2.34
2.40
2.61
2.79
2.78
2.52
2.07
1.57
1.16
0.91
0.83
0.83
0.83
0.73
0.50
0.17
-0.21
-0.56
-0.83
-0.98
-1.02
-1.02
-1.08
-1.24
-1.51
-1.82
-2.08
-2.22
-2.19
-2.04
-1.88
-1.85
-2.07
-2.57
-3.31
-4.14
-4.84
-5.18
-5.03
-4.32
-3.14
-1.64
-0.02
1.50
2.75
3.59
3.96
3.89
3.45
2.77
1.99
1.22
0.61
0.29
0.33
0.73
1.35
2.00
2.48
2.64
2.47
2.08
1.65
1.36
1.28
1.38
1.54
1.61
1.49
1.13
0.59
-0.06
-0.75
-1.43
-2.07
-2.65
-3.13
-3.45
-3.64
-3.77
-3.96
-4.35
-4.98
-5.79
-6.64
-7.34
-7.75
-7.80
-7.46
-6.78
-5.79
-4.55
-3.14
-1.67
-0.30
0.83
1.60
2.01
2.12
2.02
1.85
1.65
1.41
1.11
0.73
0.34
0.07
-0.00
0.15
0.47
0.82
1.09
1.25
1.37
1.49
1.61
1.66
1.54
1.21
0.74
0.27
-0.06
-0.17
-0.09
0.08
0.19
0.15
-0.09
-0.50
-1.02
-1.55
-1.97
-2.23
-2.34
-2.41
-2.62
-3.13
-4.00
-5.18
-6.48
-7.65
-8.45
-8.74
-8.44
-7.62
-6.36
-4.82
-3.17
-1.54
-0.09
1.11
2.04
2.79
3.43
4.04
4.62
5.08
5.39
5.49
5.43
5.29
5.13
4.94
4.67
4.30
3.82
3.30
2.77
2.26
1.74
1.22
0.69
0.22
-0.16
-0.45
-0.70
-0.99
-1.34
-1.69
-1.92
-1.96
-1.81
-1.58
-1.44
-1.45
-1.59
-1.70
-1.64
-1.35
-0.91
-0.51
-0.34
-0.57
-1.19
-2.10
-3.08
-3.88
-4.30
-4.18
-3.48
-2.24
-0.63
1.17
2.87
4.26
5.16
5.51
5.41
5.05
4.64
4.36
4.26
4.29
4.34
4.33
4.26
4.22
4.27
4.45
4.68
4.86
4.91
4.80
4.59
4.36
4.16
3.93
3.56
2.95
2.05
0.98
-0.04
-0.83
-1.29
-1.48
-1.59
-1.80
-2.20
-2.73
-3.23
-3.54
-3.60
-3.50
-3.42
-3.55
-3.95
-4.56
-5.24
-5.86
-6.30
-6.50
-6.42
-6.00
-5.25
-4.19
-2.93
-1.63
-0.47
0.43
1.00
1.22
1.15
0.88
0.54
0.24
0.08
0.05
0.09
0.09
-0.04
-0.33
-0.70
-1.02
-1.16
-1.07
-0.76
-0.34
0.07
0.37
0.48
0.42
0.25
0.03
-0.19
-0.41
-0.66
-0.99
-1.38
-1.78
-2.11
-2.36
-2.55
-2.72
-2.91
-3.11
-3.27
-3.31
-3.19
-2.94
-2.60
-2.21
-1.74
-1.13
-0.31
0.76
2.02
3.30
4.43
5.23
5.63
5.71
5.61
5.50
5.49
5.59
5.72
5.79
5.77
5.71
5.67
5.66
5.63
5.52
5.25
4.82
4.28
3.70
3.10
2.46
1.73
0.89
0.00
-0.89
-1.76
-2.59
-3.44
-4.32
-5.20
-5.96
-6.53
-6.85
-6.96
-6.97
-7.00
-7.13
-7.33
-7.57
-7.77
-7.94
-8.07
-8.12
-7.99
-7.56
-6.71
-5.47
-3.97
-2.42
-0.98
0.26
1.34
2.35
3.33
4.28
5.12
5.78
6.23
6.51
6.69
6.81
6.92
6.99
7.02
7.02
6.99
6.91
6.76
6.52
6.19
5.83
5.52
5.32
5.21
5.13
4.97
4.61
4.02
3.23
2.35
1.46
0.59
-0.30
-1.28
-2.39
-3.58
-4.78
-5.89
-6.83
-7.61
-8.31
-8.97
-9.56
-9.90
-9.74
-8.86
-7.23
-5.05
-2.71
-0.67
0.73
1.38
1.40
1.05
0.59
0.15
-0.24
-0.59
-0.92
-1.19
-1.32
-1.29
-1.12
-0.87
-0.61
-0.42
-0.31
-0.30
-0.39
-0.59
-0.89
-1.28
-1.72
-2.16
-2.57
-2.92
-3.19
-3.37
-3.47
-3.49
-3.44
-3.36
-3.28
-3.23
-3.23
-3.30
-3.46
-3.73
-4.15
-4.69
-5.29
-5.79
-6.00
-5.73
-4.84
-3.29
-1.14
1.41
4.08
6.54
8.48
9.73
10.26
10.18
9.71
9.06
8.39
7.75
7.19
6.72
6.38
6.19
6.15
6.20
6.23
6.16
5.97
5.69
5.41
5.19
5.04
4.89
4.64
4.21
3.58
2.83
2.10
1.49
1.03
0.65
0.24
-0.31
-1.06
-1.98
-2.98
-3.98
-4.93
-5.81
-6.63
-7.39
-8.03
-8.46
-8.55
-8.16
-7.23
-5.74
-3.82
-1.60
0.73
2.96
4.91
6.39
7.31
7.63
7.43
6.91
6.25
5.60
5.00
4.48
4.00
3.62
3.38
3.35
3.55
3.90
4.32
4.66
4.83
4.80
4.51
3.96
3.13
2.06
0.83
-0.41
-1.51
-2.41
-3.16
-3.84
-4.54
-5.32
-6.09
-6.74
-7.19
-7.38
-7.31
-6.97
-6.30
-5.23
-3.71
-1.82
0.26
2.28
4.00
5.30
6.13
6.52
6.50
6.11
5.36
4.35
3.20
2.14
1.33
0.86
0.67
0.58
0.45
0.20
-0.13
-0.44
-0.65
-0.75
-0.86
-1.09
-1.53
-2.16
-2.90
-3.65
-4.35
-4.95
-5.43
-5.76
-5.95
-6.05
-6.14
-6.35
-6.71
-7.15
-7.49
-7.49
-6.99
-5.94
-4.46
-2.74
-0.99
0.65
2.09
3.28
4.19
4.81
5.10
5.04
4.68
4.14
3.54
3.04
2.69
2.52
2.50
2.61
2.81
3.04
3.23
3.28
3.08
2.58
1.79
0.81
-0.22
-1.17
-1.95
-2.54
-2.99
-3.38
-3.78
-4.24
-4.75
-5.28
-5.82
-6.37
-6.96
-7.53
-7.91
-7.84
-7.10
-5.61
-3.51
-1.13
1.13
2.98
4.29
5.14
5.64
5.86
5.87
5.69
5.33
4.87
4.42
4.07
3.90
3.92
4.08
4.35
4.64
4.88
5.04
5.04
4.86
4.48
3.91
3.24
2.56
1.98
1.53
1.18
0.83
0.40
-0.14
-0.74
-1.31
-1.80
-2.24
-2.64
-3.06
-3.53
-4.03
-4.58
-5.17
-5.81
-6.44
-6.96
-7.18
-6.91
-6.03
-4.53
-2.52
-0.28
1.89
3.68
4.89
5.46
5.43
4.96
4.25
3.44
2.67
2.00
1.50
1.20
1.17
1.42
1.93
2.62
3.35
4.00
4.50
4.85
5.13
5.44
5.79
6.08
6.20
6.01
5.50
4.81
4.14
3.61
3.21
2.76
2.03
0.87
-0.71
-2.53
-4.31
-5.82
-6.94
-7.67
-8.11
-8.34
-8.50
-8.64
-8.87
-9.24
-9.74
-10.27
-10.60
-10.49
-9.73
-8.27
-6.26
-3.99
-1.81
-0.03
1.24
2.00
2.42
2.69
2.95
3.26
3.60
3.94
4.21
4.44
4.64
4.83
5.01
5.13
5.16
5.14
5.11
5.16
5.31
5.47
5.53
5.33
4.83
4.09
3.26
2.49
1.83
1.27
0.68
-0.01
-0.79
-1.59
-2.24
-2.61
-2.65
-2.43
-2.11
-1.86
-1.84
-2.12
-2.74
-3.70
-4.87
-6.11
-7.16
-7.71
-7.53
-6.52
-4.79
-2.64
-0.40
1.62
3.23
4.38
5.11
5.45
5.47
5.21
4.77
4.29
3.87
3.61
3.53
3.63
3.89
4.25
4.67
5.04
5.29
5.34
5.14
4.73
4.11
3.32
2.38
1.33
0.23
-0.87
-1.88
-2.77
-3.50
-4.09
-4.56
-4.93
-5.19
-5.38
-5.52
-5.65
-5.86
-6.20
-6.70
-7.30
-7.91
-8.35
-8.49
-8.16
-7.32
-5.94
-4.13
-2.09
-0.10
1.57
2.76
3.43
3.73
3.86
3.98
4.10
4.11
3.91
3.48
2.94
2.52
2.41
2.66
3.19
3.80
4.27
4.47
4.38
4.05
3.56
3.00
2.41
1.79
1.14
0.46
-0.24
-0.87
-1.38
-1.77
-2.10
-2.52
-3.15
-4.00
-4.99
-5.91
-6.53
-6.76
-6.63
-6.32
-6.02
-5.87
-5.87
-5.98
-6.12
-6.21
-6.19
-5.95
-5.34
-4.25
-2.65
-0.71
1.26
2.91
3.95
4.32
4.18
3.85
3.60
3.65
4.00
4.54
5.10
5.52
5.71
5.67
5.45
5.12
4.76
4.43
4.20
4.13
4.22
4.45
4.72
4.89
4.84
4.54
4.05
3.53
3.09
2.76
2.49
2.16
1.69
1.11
0.56
0.15
-0.11
-0.35
-0.79
-1.59
-2.76
-4.09
-5.34
-6.26
-6.82
-7.11
-7.29
-7.41
-7.37
-6.97
-6.06
-4.66
-3.02
-1.48
-0.33
0.33
0.62
0.78
0.96
1.16
1.22
0.98
0.36
-0.49
-1.32
-1.86
-1.93
-1.53
-0.77
0.19
1.20
2.18
3.09
3.88
4.50
4.90
5.05
5.02
4.87
4.71
4.56
4.40
4.12
3.64
2.90
1.92
0.82
-0.26
-1.19
-1.90
-2.37
-2.67
-2.89
-3.17
-3.62
-4.32
-5.24
-6.23
-7.09
-7.59
-7.59
-7.04
-5.96
-4.47
-2.69
-0.80
1.00
2.47
3.41
3.71
3.45
2.86
2.22
1.79
1.69
1.85
2.11
2.30
2.38
2.38
2.41
2.53
2.70
2.83
2.80
2.57
2.18
1.71
1.24
0.80
0.38
-0.02
-0.41
-0.79
-1.14
-1.53
-1.97
-2.45
-2.93
-3.31
-3.56
-3.72
-3.89
-4.18
-4.65
-5.27
-5.93
-6.51
-6.87
-6.87
-6.42
-5.42
-3.91
-2.04
-0.08
1.72
3.16
4.17
4.82
5.19
5.37
5.40
5.31
5.16
5.05
5.04
5.18
5.39
5.57
5.63
5.50
5.24
4.90
4.53
4.13
3.69
3.17
2.55
1.83
1.02
0.14
-0.77
-1.63
-2.43
-3.12
-3.72
-4.23
-4.65
-4.94
-5.09
-5.13
-5.18
-5.36
-5.79
-6.48
-7.31
-8.04
-8.42
-8.27
-7.49
-6.13
-4.35
-2.38
-0.44
1.25
2.57
3.50
4.08
4.41
4.57
4.57
4.45
4.20
3.92
3.71
3.68
3.88
4.27
4.72
5.04
5.13
4.97
4.60
4.12
3.58
3.00
2.35
1.57
0.64
-0.41
-1.47
-2.41
-3.11
-3.49
-3.59
-3.48
-3.30
-3.17
-3.13
-3.15
-3.16
-3.11
-2.96
-2.77
-2.55
-2.23
-1.64
-0.57
1.10
3.31
5.84
8.31
10.32
11.56
11.90
11.29
9.83
7.62
4.88
1.85
-1.14
-3.79
-5.82
-7.10
-7.64
-7.55
-7.02
-6.21
-5.25
-4.25
-3.24
-2.27
-1.38
-0.64
-0.14
0.06
-0.08
-0.49
-1.06
-1.61
-2.02
-2.24
-2.30
-2.28
-2.25
-2.19
-2.11
-1.97
-1.81
-1.70
-1.74
-1.99
-2.44
-3.09
-3.88
-4.73
-5.53
-6.14
-6.39
-6.10
-5.20
-3.72
-1.79
0.36
2.48
4.35
5.80
6.77
7.26
7.37
7.20
6.88
6.50
6.06
5.60
5.10
4.58
4.13
3.83
3.70
3.75
3.92
4.14
4.37
4.58
4.77
4.91
4.91
4.70
4.21
3.46
2.51
1.47
0.46
-0.41
-1.05
-1.47
-1.67
-1.73
-1.75
-1.82
-1.99
-2.27
-2.67
-3.16
-3.74
-4.41
-5.11
-5.75
-6.13
-6.09
-5.50
-4.38
-2.87
-1.19
0.45
1.93
3.23
4.38
5.37
6.14
6.61
6.73
6.54
6.19
5.84
5.60
5.49
5.42
5.30
5.08
4.78
4.47
4.23
4.07
3.96
3.84
3.63
3.26
2.69
1.92
0.99
-0.07
-1.16
-2.21
-3.11
-3.82
-4.33
-4.65
-4.90
-5.15
-5.46
-5.82
-6.15
-6.35
-6.41
-6.36
-6.31
-6.42
-6.72
-7.13
-7.45
-7.42
-6.86
-5.72
-4.15
-2.35
-0.56
1.05
2.43
3.54
4.36
4.82
4.87
4.53
3.91
3.22
2.69
2.47
2.56
2.86
3.18
3.39
3.43
3.30
3.10
2.90
2.74
2.60
2.41
2.10
1.61
1.00
0.38
-0.08
-0.26
-0.18
-0.02
-0.00
-0.32
-1.04
-2.06
-3.17
-4.16
-4.88
-5.33
-5.58
-5.76
-5.95
-6.21
-6.56
-7.03
-7.62
-8.27
-8.80
-8.97
-8.54
-7.39
-5.62
-3.55
-1.54
0.10
1.25
1.95
2.37
2.68
2.96
3.23
3.48
3.67
3.82
3.92
4.01
4.09
4.18
4.26
4.32
4.38
4.47
4.60
4.78
5.00
5.18
5.21
4.98
4.43
3.56
2.49
1.34
0.32
-0.42
-0.84
-0.98
-1.00
-1.04
-1.23
-1.59
-2.06
-2.52
-2.89
-3.15
-3.33
-3.51
-3.74
-4.07
-4.52
-5.08
-5.72
-6.33
-6.73
-6.69
-6.06
-4.80
-3.03
-1.00
1.00
2.76
4.17
5.22
5.98
6.49
6.78
6.86
6.79
6.65
6.50
6.40
6.28
6.05
5.63
5.00
4.25
3.56
3.06
2.80
2.72
2.64
2.33
1.68
0.68
-0.56
-1.83
-3.00
-3.97
-4.71
-5.23
-5.58
-5.82
-6.04
-6.29
-6.61
-6.97
-7.29
-7.45
-7.40
-7.15
-6.81
-6.54
-6.43
-6.49
-6.61
-6.58
-6.27
-5.61
-4.65
-3.49
-2.21
-0.84
0.61
2.16
3.70
5.08
6.08
6.59
6.62
6.30
5.83
5.38
5.04
4.81
4.66
4.55
4.47
4.40
4.32
4.20
4.00
3.70
3.32
2.90
2.47
2.03
1.58
1.10
0.61
0.12
-0.34
-0.78
-1.25
-1.78
-2.40
-3.09
-3.83
-4.54
-5.22
-5.84
-6.43
-6.99
-7.51
-7.96
-8.26
-8.31
-8.00
-7.28
-6.13
-4.61
-2.88
-1.09
0.58
2.00
3.11
3.87
4.25
4.27
3.94
3.34
2.63
2.02
1.72
1.80
2.19
2.68
3.04
3.13
2.96
2.69
2.45
2.33
2.28
2.16
1.88
1.41
0.85
0.36
0.05
-0.03
0.03
0.15
0.23
0.21
0.10
-0.09
-0.36
-0.71
-1.14
-1.68
-2.35
-3.18
-4.16
-5.25
-6.33
-7.18
-7.52
-7.13
-5.97
-4.20
-2.16
-0.23
1.32
2.38
3.03
3.40
3.57
3.56
3.38
3.09
2.80
2.63
2.61
2.68
2.69
2.56
2.28
1.98
1.82
1.90
2.21
2.58
2.82
2.79
2.46
1.89
1.22
0.55
-0.06
-0.59
-1.04
-1.35
-1.48
-1.41
-1.20
-0.97
-0.82
-0.85
-1.02
-1.25
-1.46
-1.62
-1.78
-1.98
-2.19
-2.31
-2.19
-1.68
-0.72
0.62
2.18
3.76
5.12
6.08
6.51
6.41
5.88
5.07
4.14
3.20
2.31
1.50
0.81
0.25
-0.16
-0.43
-0.62
-0.80
-1.02
-1.23
-1.39
-1.44
-1.38
-1.29
-1.27
-1.44
-1.81
-2.37
-3.02
-3.70
-4.34
-4.92
-5.44
-5.88
-6.25
-6.53
-6.75
-6.92
-7.04
-7.14
-7.24
-7.39
-7.61
-7.90
-8.18
-8.25
-7.89
-6.90
-5.23
-2.98
-0.44
2.06
4.25
5.95
7.13
7.84
8.14
8.08
7.71
7.13
6.48
5.91
5.57
5.53
5.77
6.20
6.65
6.97
7.02
6.79
6.33
5.70
4.99
4.19
3.32
2.36
1.33
0.29
-0.70
-1.53
-2.17
-2.60
-2.92
-3.25
-3.72
-4.43
-5.39
-6.51
-7.62
-8.53
-9.04
-9.05
-8.53
-7.50
-6.05
-4.27
-2.33
-0.39
1.34
2.72
3.63
4.06
4.06
3.74
3.21
2.58
1.95
1.39
0.99
0.77
0.79
1.04
1.47
1.98
2.47
2.85
3.10
3.27
3.39
3.50
3.58
3.60
3.47
3.14
2.64
2.03
1.39
0.77
0.17
-0.44
-1.09
-1.79
-2.52
-3.23
-3.90
-4.51
-5.07
-5.59
-6.04
-6.33
-6.28
-5.75
-4.66
-3.10
-1.26
0.60
2.26
3.62
4.70
5.54
6.18
6.55
6.60
6.33
5.85
5.35
5.01
4.95
5.11
5.37
5.57
5.63
5.54
5.38
5.22
5.13
5.07
4.99
4.80
4.46
3.95
3.32
2.58
1.78
0.95
0.16
-0.51
-0.97
-1.17
-1.16
-1.06
-1.01
-1.10
-1.35
-1.70
-2.06
-2.40
-2.76
-3.26
-3.98
-4.95
-6.08
-7.19
-8.06
-8.46
-8.26
-7.43
-6.11
-4.52
-2.92
-1.52
-0.38
0.52
1.33
2.17
3.08
3.94
4.57
4.80
4.61
4.10
3.48
2.96
2.67
2.62
2.74
2.92
3.06
3.13
3.09
2.96
2.76
2.54
2.31
2.09
1.83
1.47
0.96
0.27
-0.54
-1.37
-2.13
-2.76
-3.27
-3.71
-4.18
-4.72
-5.35
-6.01
-6.57
-6.94
-7.06
-6.97
-6.83
-6.79
-6.97
-7.36
-7.78
-7.95
-7.61
-6.58
-4.87
-2.67
-0.25
2.13
4.26
6.03
7.40
8.38
9.00
9.26
9.19
8.88
8.40
7.89
7.45
7.10
6.81
6.50
6.07
5.48
4.77
4.04
3.41
2.96
2.68
2.48
2.27
1.98
1.60
1.13
0.60
0.01
-0.62
-1.27
-1.91
-2.49
-2.96
-3.34
-3.66
-3.93
-4.17
-4.37
-4.52
-4.64
-4.81
-5.10
-5.57
-6.19
-6.84
-7.32
-7.41
-6.96
-5.89
-4.28
-2.31
-0.24
1.68
3.27
4.49
5.34
5.89
6.22
6.32
6.24
6.01
5.70
5.47
5.43
5.64
6.04
6.50
6.84
6.95
6.76
6.29
5.63
4.86
4.04
3.21
2.43
1.70
1.01
0.32
-0.47
-1.36
-2.38
-3.45
-4.48
-5.39
-6.18
-6.92
-7.67
-8.46
-9.23
-9.94
-10.49
-10.86
-11.06
-11.08
-10.88
-10.38
-9.46
-8.07
-6.21
-4.01
-1.63
0.70
2.79
4.44
5.53
6.06
6.11
5.88
5.58
5.43
5.56
5.98
6.63
7.37
8.04
8.49
8.59
8.29
7.62
6.69
5.67
4.72
3.90
3.16
2.39
1.50
0.46
-0.67
-1.78
-2.78
-3.67
-4.48
-5.23
-5.89
-6.39
-6.65
-6.71
-6.67
-6.70
-6.98
-7.54
-8.29
-9.05
-9.61
-9.78
-9.47
-8.65
-7.31
-5.46
-3.16
-0.58
