1565712935.00
64.000000
-0.00
-0.00
-0.00
-0.00
-0.00
-0.00
-0.00
-0.00
-0.00
-0.00
0.00
0.01
0.01
-0.00
-0.03
-0.05
-0.05
0.00
0.13
0.36
0.66
1.01
1.37
1.72
2.06
2.40
2.79
3.24
3.80
4.43
5.08
5.71
6.29
6.83
7.41
8.08
8.92
10.01
11.27
12.60
13.89
15.07
16.19
17.42
18.97
20.98
23.67
26.86
30.28
33.63
36.76
39.75
42.92
46.71
51.46
57.56
64.64
72.22
79.71
86.80
93.56
100.51
108.37
117.71
129.07
141.98
155.64
169.20
182.09
194.36
206.67
220.36
234.19
250.45
269.79
292.34
316.95
340.71
359.28
368.01
363.56
345.07
314.99
277.19
236.06
194.85
155.05
116.82
79.91
44.53
11.43
-18.09
-43.57
-65.18
-83.58
-99.59
-113.70
-125.99
-136.14
-143.87
-148.97
-151.94
-153.65
-154.86
-156.36
-158.67
-161.91
-165.78
-169.78
-173.22
-175.73
-177.20
-178.00
-178.84
-180.65
-184.16
-189.69
-196.97
-205.22
-213.43
-220.79
-227.07
-232.78
-239.05
-247.31
-258.63
-273.32
-290.54
-308.38
-324.31
-335.63
-340.04
-336.06
-323.12
-301.80
-273.84
-241.98
-209.51
-179.48
-153.79
-132.77
-115.32
-99.84
-85.35
-72.03
-60.96
-52.99
-47.58
-42.58
-35.08
-23.23
-7.53
8.84
21.43
26.86
24.81
18.51
13.28
13.79
21.66
34.55
47.32
54.82
54.59
47.97
39.31
33.37
32.84
37.16
43.16
47.32
47.81
45.37
42.42
41.23
42.19
43.67
43.25
39.61
33.63
28.19
26.36
29.47
36.02
42.12
43.71
38.71
28.37
16.88
9.20
8.64
15.06
24.96
33.28
35.97
32.00
23.63
15.02
9.76
9.01
11.07
12.69
11.35
6.89
1.76
-0.64
1.97
9.08
17.36
22.48
21.39
13.98
3.16
-6.97
-13.26
-15.25
-15.26
-16.72
-21.96
-30.59
-39.50
-44.55
-42.88
-34.61
-22.95
-12.56
-7.30
-8.30
-13.66
-19.71
-23.07
-22.42
-18.90
-15.24
-13.67
-14.51
-15.82
-14.62
-8.78
1.35
12.76
21.16
23.16
18.12
8.46
-1.52
-7.93
-9.18
-6.47
-2.72
-0.55
-0.69
-1.57
-0.56
4.11
11.84
19.68
23.87
21.99
14.62
5.36
-0.96
-0.80
6.20
17.02
27.01
32.39
32.24
28.68
25.31
24.92
27.81
31.79
33.72
31.70
26.53
21.41
20.22
25.07
34.92
45.85
53.10
53.57
47.53
38.42
30.88
28.26
30.90
36.20
40.46
41.19
38.38
34.40
32.14
33.10
36.36
39.15
38.58
33.50
25.46
17.96
14.62
17.10
24.02
31.56
35.37
32.82
24.56
14.14
6.27
4.25
8.25
15.36
21.25
22.63
18.91
12.38
6.54
3.96
4.81
6.93
7.50
4.87
-0.34
-5.62
-8.18
-6.70
-2.09
3.17
6.44
6.51
4.17
1.62
1.07
3.38
7.42
10.76
10.93
6.87
-0.25
-7.56
-11.82
-11.10
-5.87
1.22
6.70
8.24
5.83
1.69
-1.22
-1.08
1.61
4.33
4.26
0.17
-6.50
-12.24
-13.51
-8.90
-0.21
8.31
12.16
9.13
0.42
-10.00
-17.58
-19.67
-16.79
-11.99
-8.86
-9.40
-12.87
-16.65
-18.00
-15.99
-12.08
-9.21
-9.89
-14.61
-21.31
-26.53
-27.22
-22.56
-14.37
-6.15
-1.37
-1.65
-6.05
-11.71
-15.33
-14.88
-10.55
-4.43
0.84
3.62
4.25
4.69
7.15
12.48
19.46
25.35
27.52
25.17
20.03
15.47
14.72
18.93
26.55
34.13
38.27
37.51
33.05
27.98
25.47
26.86
30.78
34.04
33.45
27.80
18.93
10.82
7.51
10.78
19.00
27.97
33.13
32.09
25.75
17.68
11.78
10.15
11.99
14.50
14.83
12.03
7.71
4.84
5.69
10.11
15.43
17.97
15.27
7.81
-1.08
-6.97
-6.80
-0.67
8.07
14.56
15.05
8.86
-1.27
-10.62
-15.14
-13.54
-7.86
-2.38
-1.09
-5.65
-14.56
-24.05
-30.30
-31.44
-28.44
-24.10
-21.31
-21.23
-22.79
-23.64
-21.82
-17.31
-12.00
-8.68
-9.09
-12.74
-16.96
-18.31
-14.59
-6.24
3.60
10.67
11.71
6.24
-2.99
-11.33
-14.55
-11.05
-2.62
6.34
11.40
10.25
3.91
-3.97
-9.36
-10.03
-6.64
-1.96
1.04
1.00
-1.11
-3.03
-2.82
-0.32
2.84
4.30
2.70
-1.29
-5.26
-6.41
-3.23
3.39
10.39
14.03
11.92
4.53
-4.82
-11.43
-11.83
-5.77
3.41
10.47
11.26
5.09
-4.74
-12.74
-14.45
-8.94
0.76
9.38
12.50
8.92
1.16
-6.33
-9.70
-7.77
-2.50
2.64
4.68
3.15
0.09
-1.26
1.20
6.88
12.55
14.21
9.72
0.39
-9.37
-14.47
-12.14
-3.71
5.96
11.24
8.86
-0.12
-11.00
-18.08
-17.72
-10.29
0.25
8.68
11.20
7.34
0.01
-6.38
-8.27
-4.84
1.72
7.59
9.48
6.47
0.45
-4.95
-6.61
-3.64
2.03
6.80
7.70
4.16
-1.69
-6.42
-7.46
-4.76
-0.71
1.53
0.14
-4.05
-8.03
-8.59
-4.43
2.82
9.35
11.45
7.71
-0.05
-7.72
-11.37
-9.41
-3.48
2.59
5.10
2.78
-2.55
-7.03
-7.12
-1.83
6.75
14.53
17.71
14.87
7.72
0.04
-4.39
-3.87
0.32
4.74
5.79
1.90
-5.53
-12.67
-15.46
-11.88
-3.24
6.41
12.45
12.20
6.29
-1.63
-7.13
-7.36
-2.59
4.07
8.64
8.53
4.00
-2.20
-6.46
-6.56
-2.79
2.27
5.39
4.65
0.42
-4.87
-8.25
-7.86
-4.00
1.15
4.83
5.21
2.34
-1.88
-4.78
-4.43
-0.70
4.55
8.51
8.92
5.45
-0.01
-4.52
-5.59
-2.79
2.08
6.01
6.56
3.34
-1.92
-6.48
-8.30
-7.29
-5.22
-4.50
-6.50
-10.77
-15.12
-17.06
-15.25
-10.52
-5.35
-2.59
-3.88
-8.73
-14.81
-19.28
-20.36
-18.23
-14.94
-13.07
-14.29
-18.47
-23.69
-27.64
-28.93
-28.01
-26.86
-27.68
-31.49
-37.59
-44.06
-49.13
-52.41
-55.23
-59.76
-67.52
-78.15
-89.26
-97.88
-102.19
-102.74
-102.43
-104.90
-112.52
-125.08
-139.53
-151.45
-157.04
-154.56
-144.35
-127.97
-106.86
-81.74
-53.14
-21.63
11.82
46.21
81.28
117.83
157.59
202.20
252.00
305.05
357.68
405.61
444.97
472.91
487.54
487.69
473.02
445.40
406.68
359.31
306.45
251.68
198.26
148.40
102.84
61.05
21.20
-19.74
-65.38
-118.81
-180.99
-249.83
-319.81
-383.19
-432.36
-463.05
-475.08
-473.13
-464.13
-454.13
-445.89
-438.35
-429.83
-417.75
-400.80
-379.22
-353.96
-325.44
-292.68
-254.88
-212.27
-166.56
-120.39
-76.28
-34.90
5.85
50.10
101.57
160.25
221.01
274.60
311.09
324.00
312.98
283.25
242.75
199.00
157.47
122.16
96.72
84.31
85.33
95.20
104.49
102.39
82.28
45.74
2.46
-33.97
-51.75
-45.00
-14.61
33.81
92.39
152.77
206.67
246.31
265.51
261.55
236.11
194.35
143.19
89.80
40.83
2.64
-19.27
-21.84
-6.36
21.07
51.39
76.38
92.39
100.33
105.44
113.42
127.01
144.50
161.12
171.86
173.99
167.71
155.15
138.73
119.90
98.96
75.70
50.35
24.06
-1.24
-23.51
-41.37
-54.43
-63.43
-69.81
-75.06
-80.09
-84.96
-89.08
-91.69
-92.34
-91.03
-88.31
-85.03
-81.95
-79.43
-77.42
-75.49
-73.17
-70.18
-66.45
-62.26
-57.97
-53.98
-50.52
-47.62
-45.12
-42.79
-40.40
-37.72
-34.69
-31.33
-27.85
-24.51
-21.62
-19.37
-17.73
-16.43
-14.97
-12.95
-10.10
-6.65
-3.13
-0.25
1.48
1.97
1.74
1.84
3.06
5.85
9.89
14.27
17.77
19.52
19.34
18.02
16.90
17.01
18.83
21.74
24.33
25.02
22.38
15.29
3.16
-13.93
-34.56
-55.37
-71.53
-78.20
-72.67
-55.57
-32.27
-9.86
5.70
11.97
10.45
5.00
-0.58
-4.36
-6.50
-8.24
-10.28
-12.20
-12.84
-11.31
-7.76
-3.40
0.21
1.76
1.00
-1.21
-3.43
-4.36
-3.38
-0.83
2.27
4.72
5.68
5.03
3.39
1.70
0.82
1.12
2.37
3.95
5.18
5.62
5.26
4.52
3.93
3.87
4.41
5.26
6.00
6.29
6.06
5.55
5.16
5.22
5.77
6.49
6.87
6.45
5.09
3.06
0.96
-0.58
-1.18
-0.97
-0.58
-0.89
-2.60
-5.89
-10.25
-14.73
-18.32
-20.45
-21.33
-21.92
-23.37
-26.61
-31.88
-38.71
-46.26
-53.59
-59.68
-63.39
-63.54
-59.64
-52.86
-46.53
-45.39
-53.71
-72.93
-99.93
-127.60
-147.16
-151.18
-136.24
-103.60
-57.56
-4.58
49.20
99.07
141.92
176.07
201.07
217.54
226.40
228.02
221.79
206.66
181.96
148.03
106.67
60.81
13.23
-34.02
-79.12
-119.67
-152.69
-175.74
-188.61
-193.79
-194.73
-193.14
-186.70
-169.56
-136.25
-86.63
-28.96
22.07
51.97
54.26
34.29
6.79
-11.56
-10.21
11.41
45.13
79.36
104.18
114.41
109.79
93.47
70.62
47.19
29.24
21.43
25.57
39.79
59.51
79.47
96.02
108.11
115.87
119.87
119.75
114.89
105.27
92.48
79.38
68.17
58.89
48.92
34.39
11.74
-20.55
-61.42
-107.29
-152.38
-189.64
-211.74
-212.98
-191.28
-149.78
-96.13
-40.04
10.22
50.31
79.76
99.71
109.50
105.59
83.38
41.31
-15.94
-77.51
-130.29
-164.75
-179.18
-180.26
-178.71
-184.47
-201.86
-228.25
-256.60
-279.44
-293.78
-299.85
-299.71
-295.24
-286.68
-272.44
-249.51
-215.92
-171.42
-117.46
-56.19
10.06
78.59
145.79
207.09
257.42
292.62
311.23
315.51
309.72
299.94
291.61
287.68
288.20
291.22
294.11
294.73
291.58
283.70
270.47
251.52
227.12
198.51
167.81
137.42
109.42
84.92
63.96
45.90
29.70
14.50
-0.04
-13.58
-25.45
-34.97
-41.88
-46.44
-49.29
-51.27
-53.10
-55.10
-57.16
-58.90
-59.90
-59.89
-58.93
-57.29
-55.37
-53.47
-51.77
-50.22
-48.66
-46.91
-44.85
-42.49
-39.92
-37.30
-34.74
-32.29
-29.99
-27.78
-25.66
-23.57
-21.51
-19.47
-17.48
-15.54
-13.63
-11.75
-9.90
-8.09
-6.30
-4.54
-2.66
-0.74
1.16
3.07
4.98
6.89
8.79
10.71
12.67
14.68
16.73
18.81
20.96
23.15
25.29
27.27
28.98
30.31
31.11
31.21
30.44
28.71
26.05
22.58
18.36
13.52
8.27
2.86
-2.48
-7.51
-12.03
-15.90
-19.05
-21.48
-23.27
-24.53
-25.37
-25.88
-26.13
-26.11
-25.79
-25.17
-24.24
-23.15
-22.11
-21.28
-20.74
-20.52
-20.52
-20.51
-20.20
-19.24
-17.48
-14.89
-11.52
-7.49
-2.89
2.18
7.71
13.64
19.84
25.73
30.71
34.26
36.11
36.44
35.87
35.36
35.85
37.98
41.44
45.39
48.76
50.61
50.51
48.81
46.35
44.11
42.64
41.13
38.15
31.98
21.28
5.50
-14.89
-39.17
-67.14
-95.76
-124.50
-153.87
-185.01
-219.44
-258.79
-304.18
-355.30
-409.26
-460.05
-499.98
-521.36
-519.47
-494.88
-453.37
-403.42
-353.25
-308.11
-269.49
-236.41
-206.87
-179.40
-153.56
-129.37
-105.64
-80.77
-53.36
-22.94
9.69
43.21
76.06
107.02
135.41
162.89
190.98
220.21
249.80
278.42
305.20
330.29
354.63
379.60
408.79
443.53
481.77
518.38
547.56
565.13
569.50
561.14
542.03
518.31
495.20
475.64
459.88
446.64
434.28
421.11
405.08
362.84
284.04
174.23
53.03
-57.68
-144.06
-202.17
-234.68
-247.91
-249.25
-242.52
-231.45
-219.91
-211.73
-209.16
-211.43
-213.36
-210.83
-200.32
-178.58
-147.57
-114.93
-91.20
-84.63
-96.37
-119.31
-141.54
-151.52
-141.72
-113.22
-74.60
-37.66
-14.16
-10.65
-25.77
-51.65
-78.03
-96.19
-102.91
-99.87
-90.13
-75.47
-54.05
-22.28
20.58
68.89
111.20
134.66
131.63
104.11
61.93
19.94
-7.34
-10.46
12.16
54.37
105.04
151.69
183.30
190.16
166.70
113.21
35.87
-55.30
-149.00
-234.13
-301.07
-331.99
-316.37
-259.87
-183.44
-110.87
-57.01
-25.39
-11.48
-7.60
-6.91
-7.13
-8.52
-11.26
-13.95
-14.48
-11.94
-6.71
-0.10
6.45
10.66
11.03
7.93
3.53
0.37
-0.20
1.75
5.24
9.07
11.45
11.16
8.26
4.04
0.11
-2.58
-3.84
-3.93
-3.32
-2.90
-3.54
-5.69
-9.28
-13.85
-18.83
-23.56
-27.28
-29.40
-30.04
-30.10
-30.88
-33.63
-39.00
-46.58
-55.07
-62.56
-67.41
-69.23
-69.18
-69.36
-71.94
-77.69
-85.37
-92.06
-94.52
-89.47
-75.44
-52.72
-22.23
14.79
56.34
98.81
135.59
159.55
166.94
160.36
148.61
142.55
148.73
165.48
184.93
196.78
195.80
184.18
169.03
156.78
148.63
139.97
123.53
96.04
59.65
21.30
-11.47
-34.30
-47.68
-55.40
-61.67
-68.91
-77.10
-84.55
-89.10
-89.70
-87.03
-83.01
-79.96
-79.61
-82.34
-87.13
-92.44
-96.77
-99.46
-100.87
-102.06
-104.16
-107.81
-112.78
-118.09
-122.52
-125.04
-125.16
-123.00
-119.10
-114.02
-108.39
-102.12
-94.89
-86.30
-76.09
-64.25
-50.97
-36.61
-21.48
-5.92
9.88
25.53
40.57
54.39
66.34
75.90
82.84
87.33
89.87
91.27
92.18
93.08
94.02
94.69
94.66
93.57
91.42
88.61
85.84
83.82
82.94
83.07
83.64
83.87
83.09
81.13
78.39
75.75
74.16
74.17
75.65
77.87
79.52
79.32
76.34
70.33
61.97
53.12
46.70
45.92
52.61
65.83
81.23
92.03
91.65
76.39
46.79
6.89
-37.46
-80.16
-115.44
-138.02
-143.77
-131.25
-102.87
-66.05
-31.34
-8.51
-2.33
-10.26
-23.38
-30.88
-25.23
-5.26
24.53
56.72
83.95
100.35
101.54
85.33
52.48
7.64
-40.46
-79.99
-99.31
-91.63
-59.03
-13.48
27.23
46.87
37.84
4.71
-38.17
-73.73
-90.19
-84.62
-63.74
-39.18
-21.07
-13.81
-15.86
-23.07
-32.63
-44.94
-62.25
-86.18
-115.45
-145.66
-171.25
-188.08
-195.24
-195.49
-193.73
-194.49
-199.89
-209.18
-217.11
-216.53
-201.20
-168.50
-120.60
-63.72
-5.99
45.20
85.63
115.05
136.13
153.02
169.64
188.60
210.56
234.07
255.42
269.26
270.03
253.33
219.16
173.59
128.45
98.07
94.13
120.86
172.94
237.28
297.84
341.32
360.82
356.44
332.85
295.98
250.91
201.57
151.78
106.29
70.47
48.33
40.53
43.53
50.52
53.97
48.41
32.17
7.27
-21.69
-49.77
-73.50
-91.77
-105.85
-118.73
-134.27
-155.82
-184.55
-217.91
-249.02
-267.69
-263.63
-230.57
-169.53
-89.45
-4.41
71.17
126.95
159.01
169.27
162.99
146.06
123.31
98.23
73.70
52.32
36.32
26.84
23.34
23.39
22.81
16.77
1.00
-27.04
-67.76
-119.53
-178.95
-241.20
-300.00
-347.85
-377.07
-381.75
-360.05
-315.77
-257.52
-195.79
-139.03
-90.72
-48.66
-7.03
39.92
94.36
153.26
209.45
254.16
280.00
283.55
265.99
232.55
191.27
151.32
121.20
106.79
109.78
127.18
152.54
178.10
196.99
204.72
199.38
181.18
151.93
115.02
75.34
39.36
13.24
0.77
1.74
11.53
22.72
27.89
22.18
4.77
-21.39
-51.41
-80.15
-103.98
-121.62
-133.43
-140.19
-141.94
-137.58
-125.65
-105.87
-80.16
-52.69
-28.74
-13.14
-8.97
-17.44
-38.37
-70.67
-112.57
-161.14
-211.88
-259.08
-296.75
-319.74
-325.36
-314.10
-289.52
-257.39
-224.61
-198.29
-184.90
-189.38
-213.29
-253.85
-304.20
-355.20
-398.22
-427.95
-443.56
-447.98
-446.43
-443.49
-441.78
-442.24
-444.94
-449.83
-456.67
-464.41
-470.50
-471.68
-464.14
-445.58
-417.06
-383.63
-353.37
-334.19
-330.40
-334.87
-336.10
-320.15
-275.45
-197.11
-88.79
39.05
173.37
302.80
419.89
519.95
600.58
660.25
698.09
714.46
711.69
694.03
667.06
636.15
604.58
573.80
543.55
512.70
480.21
445.99
411.17
377.67
347.40
321.00
298.26
278.19
259.44
240.91
222.26
203.93
186.94
172.33
160.43
151.20
144.35
139.08
134.61
130.19
125.20
119.10
112.07
102.76
89.89
72.62
50.30
22.68
-10.06
-47.25
-87.60
-128.78
-168.43
-205.35
-237.34
-262.22
-278.11
-283.69
-278.41
-262.34
-236.39
-202.31
-162.52
-119.67
-76.79
-36.81
-2.29
25.05
44.95
58.41
67.46
74.61
82.54
93.03
106.72
122.75
139.17
153.88
164.99
171.97
174.13
170.98
161.83
145.91
122.25
90.78
52.97
11.87
-28.22
-62.89
-88.34
-102.54
-105.82
-100.87
-91.42
-81.58
-75.55
-76.86
-87.49
-106.77
-130.99
-151.04
-160.19
-155.65
-139.92
-120.02
-104.20
-98.11
-102.92
-115.61
-131.58
-147.49
-161.97
-174.63
-185.28
-192.40
-193.52
-188.52
-176.43
-157.65
-134.44
-109.49
-84.30
-59.36
-33.40
-4.74
27.88
64.41
104.11
145.48
187.20
228.70
269.47
309.68
348.90
385.73
417.32
441.01
454.85
454.09
437.42
401.44
347.82
281.64
215.48
155.88
106.16
66.02
35.30
13.53
-0.90
-9.56
-14.85
-19.96
-28.87
-44.33
-67.62
-98.12
-133.86
-172.34
-210.22
-244.60
-273.61
-297.20
-315.93
-330.96
-343.35
-354.23
-364.34
-373.11
-379.27
-381.44
-379.00
-371.56
-361.13
-347.49
-329.76
-306.41
-275.03
-233.14
-179.38
-114.48
-41.05
36.85
115.40
191.43
261.62
324.13
378.51
424.68
462.38
491.28
511.04
521.19
520.01
504.60
471.73
420.27
352.83
276.34
200.66
135.15
85.14
49.79
24.86
3.92
-16.19
-34.18
-45.97
-48.31
-41.30
-28.68
-15.97
-8.15
-7.98
-15.96
-31.59
-54.15
-82.56
-114.87
-147.96
-178.09
-201.48
-214.69
-214.15
-196.50
-159.53
-104.40
-37.53
29.39
82.28
108.80
103.43
70.18
20.62
-30.91
-72.68
-98.73
-108.86
-106.38
-95.10
-77.56
-55.26
-30.29
-5.86
14.31
28.20
37.40
46.89
62.98
90.00
127.37
167.84
199.84
212.04
198.47
160.92
106.92
45.92
-14.37
-69.42
-117.17
-156.51
-186.56
-206.78
-217.49
-220.65
-219.09
-215.63
-211.82
-207.59
-201.39
-191.47
-178.29
-162.49
-146.23
-132.43
-123.32
-119.36
-118.76
-117.72
-111.47
-95.28
-65.50
-21.31
34.58
95.83
152.85
195.55
217.24
217.27
201.32
178.83
158.50
145.20
139.06
136.98
135.60
133.32
130.37
127.83
126.27
124.89
122.19
117.05
109.25
99.87
90.88
83.82
79.54
78.02
78.38
79.33
79.88
79.19
76.94
73.33
68.48
62.83
57.13
52.11
48.26
46.09
44.45
41.81
37.05
29.24
18.51
5.94
-7.00
-19.51
-31.88
-45.95
-63.95
-86.45
-113.73
-144.94
-178.62
-212.61
-243.66
-266.72
-275.78
-267.90
-240.96
-199.10
-151.64
-109.67
-80.75
-65.19
-56.12
-42.87
-18.03
20.05
66.10
112.31
152.12
182.82
204.93
220.51
229.23
228.57
216.15
190.49
152.98
106.97
56.98
7.13
-39.09
-80.19
-116.36
-147.92
-176.88
-202.06
-221.25
-231.84
-231.74
-220.03
-197.53
-166.44
-129.61
-90.27
-51.01
-14.10
18.96
47.32
70.09
85.88
92.92
90.03
77.37
57.36
34.04
12.28
-3.91
-12.44
-13.42
-8.28
1.63
15.57
33.37
54.18
76.14
96.86
114.88
130.69
146.72
166.47
191.97
221.73
248.81
263.59
257.67
228.03
178.71
118.53
57.09
1.18
-46.30
-85.30
-116.46
-140.02
-155.72
-163.59
-164.84
-161.84
-157.63
-154.96
-155.35
-158.57
-163.28
-167.80
-170.91
-172.46
-173.36
-175.12
-179.10
-186.01
-195.27
-205.64
-215.66
-224.06
-230.03
-233.14
-233.16
-229.69
-223.61
-213.46
-197.78
-175.65
-146.98
-112.69
-74.53
-34.77
4.18
40.12
71.62
97.46
116.84
129.44
135.37
135.12
129.54
119.69
106.70
91.96
76.41
60.55
44.68
28.89
13.16
-2.40
-17.50
-31.76
-44.53
-55.50
-64.67
-72.22
-78.32
-82.94
-85.59
-85.33
-82.49
-76.95
-68.96
-59.21
-48.68
-38.26
-28.38
-18.76
-8.63
2.93
16.61
32.30
48.99
65.32
80.17
93.22
105.11
117.03
130.20
145.48
163.33
183.98
207.60
233.80
260.83
285.11
301.84
306.68
298.01
277.91
251.43
224.25
200.06
179.16
159.37
138.32
115.82
94.42
78.04
69.25
67.55
69.24
69.29
64.11
53.09
38.78
25.16
15.44
10.30
7.98
5.52
0.75
-6.40
-13.85
-18.66
-18.83
-14.56
-8.03
-1.97
1.99
4.32
7.14
12.60
21.00
30.17
36.09
35.18
26.84
14.87
6.74
10.74
31.84
68.67
112.97
152.20
174.22
171.70
144.27
97.71
41.18
-15.97
-65.75
-101.96
-120.06
-117.64
-95.44
-58.29
-14.39
27.06
59.21
80.15
93.09
104.03
118.30
137.96
160.59
180.66
191.69
188.84
171.04
141.85
108.84
81.55
68.46
73.92
96.47
129.21
160.86
180.23
179.34
155.29
110.10
48.89
-22.47
-98.57
-174.52
-245.71
-307.92
-358.36
-396.55
-424.48
-445.82
-464.83
-484.61
-506.38
-529.32
-551.41
-570.95
-587.20
-600.69
-612.22
-622.22
-629.98
-634.47
-632.48
-620.14
-593.85
-550.97
-490.23
-411.86
-318.63
-215.96
-110.72
-9.15
84.62
169.40
246.11
315.99
379.53
435.81
484.00
524.90
561.18
595.21
626.77
651.98
661.50
648.47
611.50
555.67
490.42
425.59
368.54
323.64
292.70
275.88
271.55
274.40
275.69
265.68
237.77
191.82
134.46
75.63
23.87
-16.44
-45.87
-67.49
-84.01
-96.42
-104.39
-107.88
-108.17
-107.60
-108.14
-110.79
-115.03
-118.97
-120.64
-118.79
-113.53
-106.24
-98.91
-93.19
-89.78
-88.14
-86.84
-84.27
-79.35
-72.09
-63.55
-55.35
-48.88
-44.81
-42.66
-41.09
-38.45
-33.59
-26.42
-17.98
-10.05
-4.39
-1.87
-1.99
-2.98
-2.49
1.33
9.14
19.72
30.71
39.44
44.36
45.65
45.26
45.65
48.80
54.50
60.37
62.55
56.86
40.32
12.04
-25.86
-68.00
-106.67
-133.56
-142.32
-131.25
-104.66
-72.32
-46.74
-38.82
-53.22
-86.89
-129.77
-168.32
-190.75
-191.24
-171.53
-139.56
-105.17
-75.81
-54.46
-39.69
-27.46
-14.35
0.35
14.80
25.23
29.37
27.51
22.30
17.55
16.25
19.07
24.67
30.50
34.47
36.20
36.84
38.22
42.34
50.28
62.37
78.35
97.10
116.21
131.94
140.00
136.46
121.12
96.66
67.31
36.99
7.83
-19.76
-45.77
-69.49
-89.10
-102.41
-108.49
-108.69
-105.88
-103.51
-104.11
-107.79
-112.42
-114.02
-108.56
-93.93
-70.68
-41.85
-11.87
15.20
37.03
53.58
66.47
77.88
89.34
101.45
113.96
125.66
134.42
137.40
131.55
114.80
87.58
53.56
18.80
-8.91
-23.90
-24.91
-14.70
1.90
20.44
38.23
54.23
68.18
78.82
83.72
80.30
66.86
43.81
13.92
-17.81
-44.94
-61.24
-62.63
-49.01
-24.27
3.77
26.82
39.40
40.59
33.39
22.51
11.80
2.78
-5.09
-13.09
-21.51
-29.39
-34.86
-36.59
-34.48
-29.74
-24.39
-20.41
-19.04
-20.39
-23.63
-27.44
-30.47
-31.83
-31.56
-30.15
-28.65
-28.36
-30.31
-35.04
-42.39
-51.60
-61.55
-71.06
-79.01
-84.35
-86.29
-84.64
-80.63
-77.34
-78.56
-87.36
-103.90
-124.39
-141.65
-147.96
-138.97
-116.26
-87.18
-61.81
-48.13
-48.56
-59.55
-74.16
-85.67
-89.81
-84.90
-70.64
-47.25
-15.89
20.37
56.07
84.52
100.49
103.18
96.74
88.14
83.67
86.20
94.75
106.10
117.03
125.63
131.24
133.70
132.58
127.46
118.55
106.86
94.06
82.12
72.34
65.09
59.78
55.16
50.26
44.31
37.29
29.90
23.20
17.99
14.59
12.69
11.48
10.15
8.06
5.12
1.71
-1.53
-4.07
-5.61
-6.22
-6.30
-6.29
-6.57
-7.28
-8.28
-9.28
-10.02
-10.34
-10.24
-9.85
-9.34
-8.88
-8.52
-8.25
-8.00
-7.73
-7.43
-7.08
-6.71
-6.34
-5.99
-5.65
-5.32
-4.98
-4.63
-4.26
-3.87
-3.43
-2.96
-2.45
-1.88
-1.27
-0.62
0.10
0.85
1.65
2.49
3.37
4.32
5.33
6.46
7.68
9.00
10.38
11.77
13.15
14.52
15.91
17.38
19.04
20.88
22.88
25.00
27.20
29.45
31.85
34.53
37.75
41.82
46.71
52.34
58.38
64.30
69.37
72.97
74.29
72.76
68.01
59.73
47.75
31.94
12.45
-10.12
-34.43
-58.87
-82.04
-101.83
-116.43
-124.63
-126.02
-120.82
-109.57
-93.18
-72.66
-49.19
-24.27
0.04
21.11
36.11
42.67
39.67
27.51
8.16
-14.61
-37.69
-58.54
-75.91
-89.79
-100.86
-110.10
-118.60
-127.32
-136.69
-145.88
-152.21
-151.45
-139.41
-114.13
-77.66
-36.03
2.94
32.57
49.80
55.77
54.21
49.04
42.53
35.04
25.91
15.17
3.98
-5.83
-12.68
-16.14
-17.08
-16.63
-15.76
-14.53
-12.08
-7.21
0.93
12.41
26.29
40.80
53.90
63.94
70.21
72.85
72.64
70.42
66.91
62.45
57.08
50.80
43.76
36.53
29.90
24.71
21.53
20.59
21.63
24.06
27.14
30.04
32.18
33.19
32.98
31.60
29.31
26.35
23.14
20.06
17.34
15.12
13.45
12.34
11.74
11.63
11.85
12.37
13.05
13.58
13.60
12.96
11.76
10.48
9.86
10.58
13.35
18.52
25.75
34.25
43.09
51.48
59.02
65.58
69.74
70.47
66.92
58.18
43.70
23.78
-0.31
-26.26
-51.26
-72.80
-89.06
-99.62
-105.79
-110.11
-115.08
-122.40
-132.12
-142.49
-150.13
-151.85
-143.39
-122.66
-91.30
-54.74
-20.87
2.94
12.59
8.93
-1.90
-10.61
-8.28
10.89
47.83
98.48
154.93
207.64
245.87
261.91
253.42
223.12
177.12
122.48
65.59
11.24
-36.89
-76.36
-105.54
-124.33
-134.79
-140.54
-145.48
-152.34
-161.93
-173.05
-183.52
-190.83
-193.45
-191.32
-185.46
-177.99
-168.84
-156.37
-137.94
-111.09
-74.78
-30.39
18.20
65.70
107.06
139.41
162.51
178.47
190.72
202.04
213.38
223.29
229.21
228.81
221.94
210.50
197.92
188.19
184.13
186.58
194.15
203.03
206.45
196.74
166.94
114.00
41.68
-39.69
-116.37
-176.52
-214.37
-232.17
-237.77
-240.02
-245.82
-255.17
-263.34
-264.50
-253.56
-229.77
-197.90
-165.34
-139.95
-128.41
-132.46
-147.70
-164.34
-171.14
-160.75
-133.07
-95.02
-57.56
-31.36
-22.09
-29.31
-48.03
-72.10
-96.99
-119.86
-137.78
-146.78
-142.28
-120.14
-78.93
-21.14
47.39
118.82
186.02
244.59
293.23
332.34
361.95
379.81
381.57
362.90
322.48
264.39
197.20
132.64
81.52
50.54
40.73
48.65
68.48
94.21
120.84
144.25
160.99
168.27
164.65
150.39
127.40
98.78
67.96
37.88
10.60
-12.59
-30.79
-43.05
-48.25
-45.50
-34.56
-16.38
6.61
31.19
54.30
73.67
88.28
98.88
105.98
109.29
107.33
97.59
77.72
47.18
7.95
-35.46
-76.87
-110.44
-132.20
-140.93
-138.17
-127.35
-112.48
-97.25
-84.33
-74.51
-66.17
-55.50
-38.26
-12.66
17.48
42.38
49.32
28.53
-21.44
-91.53
-164.95
-224.02
-255.25
-255.10
-229.31
-188.80
-144.49
-104.38
-73.00
-52.28
-42.27
-41.44
-46.66
-53.65
-58.61
-59.59
-56.90
-51.63
-43.61
-30.47
-9.48
19.27
50.92
76.34
85.13
70.02
29.87
-29.63
-97.88
-162.89
-214.53
-246.04
-254.27
-239.50
-205.46
-159.48
-111.81
-73.81
-54.80
-59.15
-84.69
-121.89
-157.34
-177.72
-174.01
-144.09
-92.80
-29.23
36.88
97.76
148.46
186.46
211.14
223.30
225.01
219.23
209.14
197.65
186.56
176.39
166.60
156.22
144.50
131.30
117.25
103.51
91.29
81.30
73.57
67.42
61.86
56.00
49.36
42.08
34.76
28.16
22.84
18.90
16.03
13.67
11.27
8.51
5.37
2.11
-0.87
-3.27
-4.96
-6.01
-6.65
-7.11
-7.57
-8.11
-8.72
-9.33
-9.85
-10.23
-10.45
-10.52
-10.46
-10.26
-9.98
-9.65
-9.33
-9.06
-8.85
-8.57
-8.26
-7.91
-7.47
-6.94
-6.37
-5.83
-5.40
-5.14
-5.06
-5.09
-5.14
-5.07
-4.85
-4.53
-4.25
-4.15
-4.31
-4.70
-5.18
-5.52
-5.54
-5.20
-4.72
-4.39
-4.56
-5.39
-6.77
-8.32
-9.49
-9.83
-9.26
-8.18
-7.31
-7.45
-9.02
-11.90
-15.30
-18.11
-19.33
-18.63
-16.66
-14.74
-14.36
-16.45
-20.98
-26.71
-31.98
-34.96
-34.81
-31.95
-27.88
-24.75
-24.65
-29.10
-37.84
-48.65
-57.19
-58.10
-47.59
-25.08
5.99
39.31
66.95
82.09
80.76
63.17
33.79
0.36
-28.16
-44.78
-45.60
-32.49
-11.38
10.56
27.96
38.88
44.41
47.19
48.14
47.13
43.37
37.04
29.76
24.06
21.73
22.85
26.00
28.72
28.90
25.87
20.58
14.99
11.09
9.96
11.37
13.98
15.98
16.16
14.29
11.23
8.39
7.03
7.59
9.54
11.69
12.75
12.20
10.44
8.65
8.15
9.68
12.98
16.89
19.78
20.48
18.94
16.38
14.76
15.83
20.23
27.16
34.66
40.70
43.92
44.65
44.66
46.52
51.92
61.18
73.34
85.88
95.11
96.95
87.58
64.69
28.02
-18.10
-66.64
-108.99
-137.33
-147.42
-139.47
-118.09
-90.21
-61.45
-35.25
-12.42
7.71
25.36
38.64
43.97
37.78
19.17
-8.73
-38.99
-63.91
-78.18
-80.89
-75.54
-67.68
-62.34
-61.26
-62.29
-60.69
-51.42
-31.87
-2.97
29.60
58.85
78.58
86.48
84.51
77.34
70.21
66.33
66.05
67.53
68.45
67.26
63.41
56.63
46.26
31.47
11.81
-11.62
-36.23
-58.31
-74.46
-82.83
-83.76
-79.75
-73.69
-68.58
-66.18
-66.81
-69.41
-72.51
-74.69
-75.30
-74.55
-72.86
-71.52
-71.64
-74.45
-80.39
-88.36
-95.24
-96.49
-87.91
-67.73
-38.25
-5.26
24.00
43.93
52.71
52.36
47.10
40.83
35.57
31.23
26.79
21.56
15.84
10.65
6.71
3.90
1.20
-2.55
-8.16
-15.36
-23.00
-29.38
-32.65
-31.73
-26.32
-16.88
-4.40
9.94
25.25
40.99
56.81
72.58
87.75
101.38
112.22
118.66
119.25
112.93
99.65
79.39
54.98
29.25
4.98
-15.19
-30.35
-40.20
-45.07
-45.27
-41.14
-32.56
-19.73
-3.15
15.93
36.30
57.07
77.35
95.62
109.01
113.86
106.48
85.48
53.46
16.61
-17.20
-41.63
-53.99
-55.78
-50.92
-43.70
-36.96
-31.46
-26.81
-22.50
-18.55
-15.23
-12.61
-10.32
-8.02
-5.87
-4.39
-4.62
-7.47
-13.25
-21.30
-30.23
-37.92
-42.15
-41.23
-34.69
-23.78
-11.23
-0.49
5.82
6.95
4.56
2.01
2.54
7.46
15.21
22.05
23.74
17.88
5.11
-10.84
-24.66
-32.10
-31.95
-26.69
-20.73
-17.78
-18.50
-20.42
-19.73
-14.01
-4.16
6.31
13.15
14.13
10.07
4.10
-0.68
-2.93
-3.36
-3.56
-4.11
-4.36
-2.92
0.90
6.53
12.36
16.88
19.69
21.17
22.17
22.71
22.12
19.35
13.77
5.53
-4.68
-16.12
-28.63
-40.40
-50.02
-55.81
-55.90
-49.01
-35.35
-17.07
2.38
19.46
32.19
40.34
45.52
49.96
55.07
60.64
64.92
65.81
62.01
54.09
43.92
34.05
26.62
22.55
21.19
20.98
20.45
18.60
15.34
11.16
6.88
3.37
1.26
0.63
0.70
-0.09
-4.21
-14.21
-32.03
-58.14
-91.21
-127.72
-162.05
-187.88
-200.05
-196.68
-180.02
-155.55
-129.59
-106.61
-87.79
-71.36
-54.64
-36.31
-17.25
0.43
14.99
26.43
36.44
46.92
58.45
69.84
78.75
83.26
82.95
79.30
74.85
72.44
73.85
79.17
86.83
94.17
98.20
96.61
88.56
74.56
56.46
36.65
17.32
0.32
-12.98
-21.58
-24.79
-22.40
-15.08
-4.53
6.66
15.91
21.49
23.19
22.14
20.02
17.93
15.96
13.39
9.18
2.84
-5.26
-14.37
-24.07
-34.63
-46.70
-60.16
-73.28
-82.83
-85.00
-77.15
-59.26
-34.17
-6.29
20.15
42.84
61.37
76.27
88.13
97.30
104.03
108.46
110.53
109.93
105.47
95.16
76.80
49.91
16.93
-17.66
-49.23
-74.51
-91.60
-99.13
-96.31
-83.54
-63.10
-39.32
-18.47
-7.60
-12.12
-33.19
-63.96
-91.37
-103.14
-96.64
-77.96
-55.01
-33.29
-14.96
0.40
14.17
26.92
37.68
44.62
47.12
46.12
43.62
41.72
42.19
46.04
52.93
61.19
68.80
74.68
78.91
82.10
84.90
87.31
88.87
88.48
84.57
75.82
61.98
43.98
24.11
4.44
-13.36
-28.10
-39.36
-47.38
-52.80
-56.12
-57.62
-57.47
-55.96
-53.45
-50.25
-46.70
-43.19
-39.98
-37.21
-34.74
-32.38
-30.10
-27.87
-25.66
-23.53
-21.48
-19.54
-17.69
-15.92
-14.17
-12.52
-10.95
-9.45
-8.08
-6.87
-5.84
-4.95
-4.18
-3.43
-2.67
-1.88
-1.01
-0.19
0.53
1.09
1.50
1.79
2.06
2.37
2.43
2.50
2.50
2.32
1.86
1.12
0.18
-0.78
-1.56
-2.11
-2.46
-2.89
-3.70
-5.06
-6.93
-9.04
-10.95
-12.28
-12.85
-12.93
-13.12
-14.08
-16.24
-19.50
-23.38
-26.96
-29.47
-30.56
-30.67
-30.87
-32.34
-35.83
-41.25
-47.90
-54.37
-59.67
-63.13
-64.99
-65.99
-66.75
-67.91
-68.85
-69.48
-69.47
-68.14
-63.80
-53.82
-35.71
-8.73
24.67
59.59
88.14
104.64
107.00
97.13
79.40
58.56
38.05
19.58
3.90
-8.94
-18.05
-23.25
-25.12
-24.84
-23.70
-22.13
-19.22
-12.83
-0.71
19.17
47.53
83.21
122.76
160.27
188.59
201.19
194.95
171.41
136.57
98.29
63.24
34.54
11.59
-8.15
-27.14
-46.14
-64.12
-79.45
-91.17
-99.50
-105.12
-107.90
-106.30
-98.26
-82.16
-57.88
-27.62
4.71
34.20
55.98
66.54
64.41
50.99
30.72
10.32
-3.35
-5.86
3.24
18.26
30.67
32.98
22.26
1.10
-24.22
-47.21
-63.61
-72.96
-77.55
-80.18
-82.31
-83.62
-82.57
-77.94
-69.69
-58.72
-47.30
-36.14
-25.47
-15.64
-7.72
-3.84
-6.60
-17.25
-34.16
-52.39
-65.13
-65.95
-52.78
-28.10
2.74
34.03
62.01
85.07
103.22
116.60
124.54
125.71
119.84
108.09
92.43
76.04
61.49
51.83
49.34
53.50
59.86
61.41
51.43
26.73
-9.96
-50.58
-84.77
-104.11
-105.27
-88.92
-59.60
-21.95
20.72
65.72
109.75
148.52
177.65
195.27
199.98
192.59
175.56
151.45
122.22
89.11
52.43
14.77
-22.18
-57.35
-90.20
-120.08
-146.18
-167.30
-181.81
-188.11
-185.15
-174.16
-158.24
-141.46
-127.62
-119.16
-116.44
-118.09
-121.95
-125.89
-129.55
-133.38
-137.90
-142.95
-147.42
-149.47
-147.25
-140.09
-126.70
-107.30
-82.54
-53.20
-20.01
16.15
54.14
91.95
127.57
159.31
185.34
204.64
216.87
222.73
223.34
220.00
213.66
205.10
196.20
185.80
173.13
157.67
139.13
117.40
92.50
64.58
34.06
0.85
-33.71
-68.43
-102.09
-133.44
-161.33
-184.54
-201.93
-212.97
-216.65
-212.51
-200.49
-181.05
-155.11
-124.14
-89.84
-53.94
-18.92
13.37
41.41
64.25
81.38
92.81
98.91
100.44
98.30
93.44
86.88
79.46
71.77
64.26
57.76
52.09
47.33
43.42
40.32
38.03
36.47
35.44
34.72
34.07
33.24
32.16
30.80
29.14
27.27
25.32
23.38
21.50
19.72
18.02
16.46
15.14
14.04
13.11
12.36
11.75
11.21
10.66
10.09
9.59
9.29
9.25
9.51
10.18
11.31
12.91
14.81
16.93
19.09
21.11
22.91
23.67
22.77
19.71
14.19
6.24
-3.55
-14.32
-24.94
-34.37
-41.88
-47.22
-50.41
-51.58
-51.15
-49.17
-45.45
-39.69
-31.65
-21.61
-10.39
0.93
11.56
20.61
28.00
34.17
39.65
44.85
49.23
51.74
50.97
46.44
38.23
27.85
17.61
9.99
6.99
9.72
18.67
32.32
49.26
65.61
76.06
75.43
61.10
34.95
2.92
-27.13
-48.73
-59.11
-60.01
-55.36
-49.14
-43.43
-38.06
-32.20
-25.54
-18.92
-13.66
-10.75
-9.84
-9.44
-7.66
-2.94
4.82
14.68
24.99
34.20
41.25
45.99
48.78
50.13
50.21
48.51
44.11
36.13
24.32
9.47
-6.92
-22.96
-36.89
-47.68
-55.24
-60.23
-63.59
-66.09
-67.91
-68.95
-68.85
-67.42
-64.93
-62.14
-59.97
-59.14
-60.14
-62.16
-64.37
-66.14
-67.04
-67.10
-66.67
-66.08
-65.75
-66.38
-68.99
-74.50
-82.55
-90.53
-93.85
-87.52
-68.76
-39.00
-4.21
27.30
48.28
55.48
50.51
38.58
25.71
16.19
11.95
13.20
19.86
31.90
48.68
67.87
85.14
95.22
94.61
83.75
67.09
51.13
41.25
39.10
41.84
43.83
39.66
27.24
9.17
-8.52
-19.19
-18.76
-8.17
7.41
21.01
26.90
23.23
12.31
-1.59
-14.45
-24.26
-31.15
-35.55
-36.77
-33.08
-23.24
-8.42
7.02
17.13
17.54
7.47
-8.68
-23.74
-31.28
-28.51
-17.11
-1.85
12.35
22.58
28.51
31.61
33.46
34.80
35.57
35.51
34.70
33.84
33.79
35.19
38.11
42.02
46.03
49.43
52.01
54.03
56.33
59.75
64.59
70.46
76.11
79.76
79.77
75.15
65.78
52.50
36.68
19.76
3.03
-12.93
-28.09
-42.55
-56.22
-68.60
-78.80
-85.83
-89.48
-89.61
-87.24
-83.98
-81.52
-80.98
-82.55
-85.40
-88.17
-89.91
-89.96
-88.82
-87.42
-86.77
-87.49
-89.76
-93.77
-98.39
-101.80
-100.82
-91.54
-70.68
-37.59
4.50
48.88
87.52
114.09
125.87
124.56
114.67
100.93
86.32
71.86
57.63
43.89
31.88
23.02
18.17
16.74
17.23
17.72
16.70
13.85
9.75
5.68
2.82
1.74
2.12
3.04
3.32
2.22
-0.37
-3.90
-7.49
-10.40
-12.24
-13.22
-13.88
-14.89
-16.70
-19.35
-22.57
-25.95
-29.07
-31.71
-33.96
-36.10
-38.39
-41.07
-44.19
-47.63
-51.38
-55.28
-59.31
-63.59
-68.31
-73.46
-78.97
-84.50
-89.43
-93.12
-94.68
-92.87
-86.68
-75.44
-58.86
-37.19
-11.17
18.11
48.66
78.79
107.00
132.05
152.92
169.07
180.28
186.58
189.35
187.82
181.91
171.60
156.90
137.89
114.85
88.23
58.00
26.15
-6.03
-36.73
-64.25
-86.94
-103.40
-112.55
-113.77
-106.94
-92.50
-71.99
-47.19
-20.52
5.38
27.95
44.97
54.82
56.57
50.28
35.72
14.83
-10.36
-37.72
-65.22
-91.06
-113.67
-131.81
-144.67
-151.61
-151.95
-145.56
-132.75
-114.17
-90.76
-63.80
-34.82
-5.93
21.08
44.97
64.67
79.55
89.53
94.94
96.44
94.86
91.03
85.87
80.19
74.39
68.72
63.28
58.13
53.27
49.02
45.02
41.20
37.61
34.24
31.07
28.13
25.45
23.01
20.78
18.64
16.62
14.70
12.87
11.15
9.57
8.19
7.03
6.05
5.13
4.26
3.38
2.49
1.62
0.86
0.33
0.11
0.14
0.30
0.46
0.45
0.27
0.02
-0.02
0.46
1.69
3.62
5.96
8.25
10.05
11.20
11.81
12.36
13.39
15.58
18.56
21.58
23.64
23.86
22.05
18.65
14.70
11.55
10.32
11.27
13.86
17.02
19.37
21.11
22.83
25.35
29.45
35.59
43.76
53.51
64.53
74.63
80.75
78.75
65.06
38.55
1.54
-38.76
-74.23
-98.49
-109.29
-108.47
-100.58
-90.24
-80.38
-71.81
-64.26
-57.76
-52.83
-50.36
-50.47
-52.42
-54.67
-55.78
-54.79
-51.79
-47.58
-43.15
-39.19
-35.43
-31.13
-25.28
-17.34
-7.66
2.44
11.03
16.40
17.97
16.78
15.30
16.49
22.35
33.06
46.72
59.86
69.10
72.72
71.19
66.69
61.56
56.86
52.30
46.76
39.26
29.53
17.74
3.86
-12.64
-32.37
-55.00
-78.41
-98.71
-111.90
-115.82
-110.49
-99.19
-84.32
-66.13
-43.23
-14.77
16.76
45.01
62.37
63.38
47.74
21.73
-5.50
-26.53
-38.23
-41.74
-39.82
-34.01
-23.80
-8.33
11.90
33.39
50.76
59.30
57.26
46.21
30.15
13.54
-0.32
-9.47
-13.45
-12.81
-9.01
-4.29
-0.97
-0.58
-3.19
-7.44
-11.12
-12.49
-11.08
-8.05
-5.85
-7.17
-13.85
-26.05
-41.93
-57.72
-68.69
-70.53
-60.98
-41.08
-15.04
10.89
30.19
38.09
33.38
19.00
1.32
-11.79
-14.23
-3.69
17.64
43.86
68.10
85.18
92.99
92.02
86.43
80.17
75.21
70.97
64.34
51.02
27.89
-4.60
-40.97
-71.82
-87.45
-82.33
-57.80
-21.55
16.17
47.11
67.40
76.73
75.60
63.61
40.34
8.26
-25.44
-50.53
-58.03
-45.01
-16.01
18.52
47.74
64.63
67.98
61.92
52.94
47.18
48.07
55.46
65.60
72.50
70.15
55.37
29.59
-1.53
-30.53
-51.70
-63.10
-66.79
-66.63
-65.82
-65.33
-64.45
-62.33
-59.03
-56.10
-54.56
-54.61
-54.91
-53.09
-47.08
-36.11
-21.51
-6.22
6.25
13.28
13.73
8.28
-0.85
-11.01
-19.84
-25.98
-28.91
-28.75
-25.61
-19.61
-10.86
0.29
12.78
24.85
34.27
39.05
37.93
30.99
20.16
7.18
-5.92
-17.82
-28.08
-37.14
-45.74
-54.30
-62.54
-69.62
-74.72
-77.26
-77.61
-76.68
-75.78
-76.26
-79.29
-85.72
-95.59
-107.44
-117.87
-122.15
-115.77
-97.00
-68.37
-36.22
-8.19
9.86
17.33
17.65
16.58
19.33
28.22
42.24
58.57
74.68
89.20
102.59
115.70
128.69
140.88
151.24
159.01
164.23
166.84
165.82
158.84
143.48
118.00
83.99
46.36
11.64
-14.60
-30.05
-35.97
-35.81
-33.16
-30.15
-27.05
-23.45
-19.34
-15.66
-13.75
-14.35
-17.00
-20.22
-22.31
-21.83
-18.59
-13.55
-8.35
-4.77
-3.75
-5.21
-8.01
-10.46
-10.93
-8.57
-3.51
3.11
9.62
14.65
17.58
18.75
19.20
20.03
21.54
23.23
23.63
20.93
13.81
1.74
-15.03
-35.54
-58.46
-81.43
-100.78
-111.98
-111.11
-96.78
-71.44
-41.21
-12.96
7.60
18.30
20.71
18.48
15.09
12.24
9.75
6.72
2.96
-0.88
-3.56
-4.24
-3.16
-1.54
-0.82
-2.13
-5.48
-9.97
-14.34
-17.48
-18.97
-19.25
-19.43
-20.76
-24.11
-29.55
-36.55
-44.15
-51.34
-57.32
-61.58
-63.84
-63.88
-61.38
-55.94
-47.20
-35.04
-19.79
-2.48
15.72
33.39
49.34
62.78
73.28
80.85
85.83
88.89
90.02
89.86
88.12
84.71
79.60
72.78
64.40
54.78
44.33
33.44
22.76
12.85
4.28
-2.51
-7.38
-10.39
-11.83
-12.19
-11.97
-11.63
-11.62
-12.15
-13.16
-14.62
-16.27
-17.83
-19.04
-19.69
-19.63
-18.94
-17.77
-16.12
-14.43
-12.95
-11.89
-11.34
-11.38
-11.90
-12.76
-13.69
-14.10
-13.68
-12.17
-9.37
-5.20
0.08
6.19
12.73
17.37
20.61
22.97
24.94
26.95
29.28
31.73
34.01
35.63
36.07
35.48
34.07
32.40
31.18
31.06
32.03
33.86
35.98
37.69
38.80
39.33
39.52
39.86
42.04
45.77
51.11
57.71
64.32
69.10
69.76
64.48
52.90
36.48
17.93
0.93
-11.43
-17.75
-18.96
-17.08
-15.39
-16.45
-21.01
-28.26
-35.65
-40.73
-42.37
-41.12
-38.87
-38.18
-40.81
-47.17
-56.94
-68.49
-80.07
-90.17
-97.36
-100.24
-97.90
-89.78
-75.37
-57.13
-38.06
-21.27
-8.95
-1.10
4.42
10.77
19.91
30.91
39.60
40.89
31.43
11.93
-12.48
-34.41
-47.57
-49.33
-41.34
-28.03
-13.60
-0.35
11.39
22.31
32.89
42.64
50.52
55.72
58.12
58.41
57.50
55.93
53.75
50.80
46.91
42.36
37.83
34.05
31.22
28.89
26.01
21.22
13.35
1.47
-15.18
-36.26
-60.64
-86.81
-112.98
-137.28
-158.08
-174.47
-186.59
-195.16
-200.78
-203.34
-201.92
-195.22
-182.38
-163.06
-137.22
-104.40
-63.29
-12.36
48.22
114.88
180.46
235.94
274.20
292.69
294.18
284.79
270.75
255.51
238.71
217.60
189.18
152.91
111.01
67.46
26.29
-9.55
-38.90
-62.20
-79.02
-90.78
-96.14
-92.82
-79.11
-55.44
-24.59
8.61
38.77
61.65
75.12
80.59
80.26
75.44
66.38
53.36
36.94
17.59
-4.75
-31.08
-61.11
-94.41
-130.31
-166.86
-199.57
-222.89
-231.99
-223.96
-197.66
-151.29
-85.07
-3.15
85.69
170.82
240.96
286.17
300.38
272.99
207.28
121.84
39.11
-28.33
-76.39
-103.94
-109.26
-91.39
-53.86
-5.29
39.71
65.11
59.55
24.56
-29.40
-87.70
-137.88
-173.40
-192.80
-199.30
-189.36
-168.68
-142.05
-112.31
-81.47
-52.28
-28.13
-10.73
-0.13
5.00
5.67
4.85
5.10
7.39
10.78
13.41
14.15
12.96
10.60
6.85
2.27
-2.68
-7.34
-10.19
-8.76
-0.41
15.57
36.68
56.93
70.53
74.06
67.79
55.19
40.81
28.20
18.70
11.49
4.67
-2.65
-9.86
-15.01
-15.98
-11.70
-2.88
8.39
19.55
28.90
36.55
43.41
50.01
54.36
52.73
42.00
22.49
-0.71
-19.14
-25.30
-16.83
2.26
23.37
38.18
43.33
41.38
38.18
38.66
43.68
49.87
52.76
49.44
39.84
25.77
8.86
-10.33
-31.71
-53.82
-73.85
-87.62
-91.60
-84.78
-69.27
-49.44
-29.63
-12.65
0.67
10.90
19.43
27.37
35.52
43.94
51.32
54.92
50.87
35.54
8.27
-26.57
-59.98
-81.38
-83.08
-65.05
-36.19
-9.91
0.68
-10.48
-38.96
-71.93
-94.28
-95.61
-74.68
-38.85
0.34
32.53
52.12
60.13
61.24
59.84
57.72
53.56
45.57
33.45
19.43
7.50
1.53
2.85
9.56
17.57
22.37
21.12
13.61
1.98
-10.21
-19.58
-24.08
-23.36
-18.44
-11.11
-2.87
5.30
13.22
21.35
30.32
40.89
53.21
67.22
81.59
95.00
105.92
112.72
113.63
106.92
91.47
67.21
35.81
0.43
-34.53
-64.84
-87.15
-100.24
-105.08
-103.71
-98.57
-91.37
-82.47
-70.51
-53.66
-31.04
-4.25
22.31
43.32
54.71
56.28
52.09
47.57
46.79
49.68
52.02
48.02
34.48
12.78
-11.52
-31.87
-44.19
-48.38
-47.69
-46.16
-46.60
-49.04
-51.86
-53.18
-52.25
-49.78
-46.40
-43.52
-41.44
-39.91
-38.09
-35.75
-32.63
-28.37
-22.51
-14.42
-3.97
7.56
17.48
23.41
24.28
21.51
18.30
17.64
20.45
25.40
30.31
33.94
36.97
40.64
44.80
46.44
40.62
24.04
-1.26
-26.92
-41.63
-36.91
-12.53
22.36
53.32
67.50
59.85
35.60
6.46
-16.26
-26.78
-26.40
-20.62
-14.95
-11.82
-10.07
-7.52
-2.97
1.89
4.04
0.96
-7.56
-19.14
-30.04
-36.68
-37.42
-33.33
-27.76
-24.24
-24.64
-27.99
-30.81
-28.83
-19.01
-1.37
20.92
42.13
56.87
62.01
57.51
46.12
31.94
19.10
10.59
7.75
9.47
13.98
19.58
25.25
30.67
35.30
38.79
40.46
38.01
27.40
5.57
-28.42
-72.64
-122.60
-172.40
-216.59
-252.58
-272.50
-274.88
-262.53
-241.11
-216.66
-193.28
-171.94
-150.79
-126.85
-97.79
-64.60
-30.44
0.08
22.76
35.38
38.84
36.94
34.88
37.32
45.90
60.64
80.71
105.15
132.66
160.72
184.85
199.56
200.68
187.61
165.15
141.63
124.68
116.81
113.90
107.95
92.23
66.17
36.42
14.25
10.15
28.91
67.66
117.66
168.33
210.98
240.92
256.70
258.40
246.47
221.82
186.68
145.40
104.04
68.75
43.72
29.94
24.88
23.36
19.67
9.54
-8.71
-34.07
-64.24
-97.12
-131.56
-167.42
-204.83
-243.39
-282.10
-319.55
-354.82
-388.00
-419.75
-449.76
-475.59
-492.45
-494.58
-477.92
-442.13
-391.20
-332.10
-272.09
-216.31
-166.45
-121.14
-77.56
-33.56
11.45
56.44
99.58
139.12
173.71
202.35
224.53
240.38
250.84
258.15
265.55
276.28
291.77
310.02
326.07
334.20
331.39
319.88
307.16
303.11
314.99
343.33
380.05
412.02
426.99
418.78
388.82
344.04
292.98
242.20
194.75
149.68
105.50
62.72
24.35
-6.66
-29.46
-44.96
-53.81
-54.35
-45.04
-24.88
4.86
39.83
72.09
92.62
95.56
80.62
52.05
12.37
-37.96
-99.26
-169.64
-244.85
-319.15
-386.58
-442.78
-468.67
-450.52
-392.75
-317.47
-245.34
-184.82
-134.88
-91.65
-52.41
-16.63
10.15
25.67
30.14
27.74
23.54
20.57
18.96
16.83
11.23
-3.33
-28.94
-66.30
-112.85
-163.78
-212.80
-252.33
-274.82
-275.84
-258.02
-229.27
-199.52
-174.83
-155.44
-137.09
-115.09
-88.24
-60.55
-39.72
-31.66
-36.67
-48.31
-57.38
-57.59
-49.06
-37.47
-29.77
-29.96
-36.15
-41.85
-39.27
-23.59
5.15
42.73
83.55
123.06
158.59
188.33
209.80
219.79
215.30
195.75
164.24
126.98
91.36
63.31
45.97
38.99
39.11
41.48
41.11
34.66
22.25
7.78
-2.41
-2.46
9.52
29.91
50.97
64.73
67.01
59.42
47.39
35.83
25.46
12.01
-10.45
-44.98
-88.85
-134.48
-173.59
-201.47
-218.90
-229.75
-237.20
-240.74
-236.21
-218.92
-186.81
-142.19
-90.60
-38.07
10.96
54.12
90.57
120.33
143.70
161.34
173.86
181.27
182.63
176.97
165.07
150.61
139.73
138.17
148.19
166.77
187.05
201.76
206.78
202.73
193.53
183.57
175.24
168.60
162.35
155.46
147.66
138.91
128.73
115.92
99.50
80.05
60.28
44.20
35.20
34.49
40.52
49.82
58.78
65.13
68.37
69.11
68.16
66.00
63.30
61.55
63.03
69.99
82.90
99.16
113.23
118.26
108.51
81.70
39.88
-10.90
-62.24
-105.86
-136.22
-152.35
-158.48
-162.71
-174.02
-198.43
-236.00
-280.19
-320.16
-345.34
-349.83
-334.86
-307.40
-276.57
-249.40
-228.40
-211.44
-193.97
-171.63
-143.19
-111.89
-84.36
-66.59
-60.72
-62.95
-64.56
-55.93
-31.20
7.78
51.82
88.94
110.97
116.93
112.04
102.92
93.02
81.80
66.35
44.56
17.16
-11.52
-37.35
-58.97
-77.79
-94.97
-107.01
-108.46
-96.01
-73.21
-47.04
-27.65
-23.68
-37.72
-63.49
-83.88
-82.62
-53.10
-3.56
55.15
110.78
154.40
182.81
199.32
217.01
244.86
281.39
312.89
334.25
345.61
351.25
355.60
362.81
384.58
427.86
489.69
554.12
615.43
670.52
717.03
752.16
722.52
610.50
449.25
333.24
263.43
220.30
173.09
108.20
22.70
-76.26
-167.11
-232.50
-269.09
-292.05
-308.91
-323.97
-340.99
-362.02
-385.26
-400.24
-400.71
-389.60
-380.24
-376.04
-375.60
-380.58
-392.88
-411.02
-427.67
-438.73
-446.48
-458.69
-474.70
-488.61
-499.82
-508.94
-514.87
-515.92
-514.93
-519.74
-539.28
-574.69
-574.96
-508.18
-383.06
-239.15
-110.61
-7.75
76.22
153.18
232.21
314.51
386.08
431.31
448.51
444.60
431.69
421.21
420.25
429.21
442.03
442.65
407.90
337.71
246.67
156.74
88.04
51.98
48.23
65.99
84.95
88.28
71.67
40.09
3.31
-30.64
-56.94
-74.06
-82.00
-83.86
-82.12
-77.06
-70.78
-67.02
-69.36
-79.01
-94.03
-104.61
-106.79
-100.66
-88.24
-72.49
-54.95
-36.08
-16.06
3.48
19.63
28.81
30.05
25.59
19.42
16.05
18.36
26.75
38.88
51.01
58.49
58.48
50.22
34.50
13.12
-11.28
-34.44
-51.05
-56.44
-48.91
-30.35
-6.15
16.85
33.14
40.63
41.00
37.83
34.32
31.54
28.81
24.97
19.80
14.41
10.58
9.63
11.43
14.50
16.85
16.90
14.39
10.25
6.08
3.34
2.79
4.14
6.28
7.95
8.22
6.97
4.75
2.52
1.17
1.09
2.09
3.51
4.60
4.85
4.22
3.05
1.90
1.22
1.24
1.81
2.57
3.17
3.35
3.20
2.90
2.70
2.79
3.21
3.84
4.43
4.80
4.85
4.58
4.06
3.38
2.43
1.09
-0.78
-3.11
-5.54
-7.61
-8.73
-8.52
-6.86
-3.94
0.14
5.47
12.18
20.21
28.88
36.77
41.65
41.08
33.11
17.37
-4.21
-27.18
-45.57
-53.69
-48.14
-29.45
-1.92
27.46
51.27
63.61
61.60
45.83
19.63
-11.72
-42.67
-68.41
-86.03
-95.08
-97.57
-97.06
-96.66
-97.10
-95.78
-87.71
-67.99
-34.95
7.32
48.82
76.88
81.65
61.26
23.68
-16.42
-43.73
-48.82
-31.62
-0.55
31.94
54.58
60.83
49.78
24.99
-7.37
-40.26
-67.56
-84.92
-90.28
-83.44
-65.42
-37.47
-0.30
44.48
94.19
144.69
189.93
222.41
235.08
224.06
190.82
142.26
88.95
42.17
9.90
-4.96
-4.11
8.85
30.83
60.10
94.59
130.31
161.38
180.41
181.06
160.66
121.38
69.38
12.37
-43.70
-95.90
-143.35
-183.09
-209.68
-218.42
-208.72
-183.74
-147.83
-105.31
-64.25
-26.41
5.45
27.47
36.22
30.57
12.62
-10.94
-31.39
-39.67
-28.39
3.71
50.73
100.73
139.47
155.46
143.81
107.39
55.05
-1.71
-53.86
-96.41
-127.80
-147.35
-153.09
-141.90
-112.19
-67.29
-15.91
29.63
58.82
67.87
60.61
45.62
30.42
17.26
2.11
-21.51
-57.71
-104.21
-151.89
-188.71
-205.21
-198.63
-172.90
-136.08
-95.45
-54.93
-14.77
26.04
66.67
103.36
130.28
142.57
138.46
119.99
91.78
58.72
24.91
-6.56
-32.97
-52.12
-63.95
-71.41
-79.92
-95.17
-120.99
-157.54
-201.81
-248.80
-292.58
-327.61
-348.85
-352.39
-336.15
-301.08
-250.91
-191.57
-129.51
-70.28
-17.79
25.22
56.88
76.87
86.84
91.31
96.96
110.36
135.53
171.90
214.22
254.20
283.09
294.77
288.13
267.73
242.44
221.98
212.28
212.02
212.64
202.80
175.02
131.19
83.35
48.11
38.40
56.31
91.66
126.88
145.37
138.05
105.51
55.34
-2.29
-57.85
-103.36
-131.98
-138.20
-119.79
-79.97
-27.57
25.63
69.18
97.48
110.29
110.31
100.13
80.95
53.66
21.21
-10.66
-35.03
-46.45
-43.16
-26.76
-0.57
32.00
67.64
102.37
131.29
149.64
155.28
150.08
138.85
125.72
111.69
93.80
67.60
30.67
-14.69
-61.30
-99.93
-122.86
-127.31
-116.78
-99.85
-86.83
-86.30
-102.24
-133.07
-172.80
-213.43
-247.59
-270.12
-278.51
-272.92
-256.21
-233.99
-213.67
-202.20
-203.04
-214.35
-229.53
-240.47
-241.00
-228.88
-205.13
-171.71
-129.67
-79.49
-23.51
31.41
73.67
90.38
73.72
26.29
-37.46
-96.19
-129.78
-127.61
-92.32
-37.73
18.30
61.82
87.65
99.74
107.08
118.75
140.17
171.67
209.20
245.81
273.56
285.00
274.84
241.65
189.41
127.48
68.64
24.93
3.26
2.89
16.35
33.64
47.13
54.79
59.70
66.66
77.85
90.63
98.85
96.64
82.33
59.15
33.10
9.65
-8.33
-19.87
-24.08
-19.06
-2.85
24.03
56.57
85.56
101.04
97.25
75.91
45.76
18.03
0.37
-7.07
-11.10
-20.57
-40.25
-67.47
-93.52
-108.99
-109.62
-99.09
-86.63
-81.60
-88.21
-103.78
-121.38
-134.34
-139.32
-136.41
-126.66
-110.03
-85.44
-53.06
-16.72
16.07
37.28
43.08
36.77
27.65
26.37
39.05
64.00
92.95
115.58
124.75
119.35
103.85
85.10
68.72
56.74
47.30
35.81
16.86
-13.62
-56.58
-108.51
-161.26
-203.71
-225.18
-219.70
-189.05
-142.78
-94.69
-57.65
-38.72
-37.14
-45.71
-54.49
-55.14
-43.85
-21.82
6.47
35.55
60.99
80.18
92.11
96.87
95.12
88.07
77.46
65.39
53.91
44.82
39.38
38.13
40.69
45.53
50.26
52.56
51.34
47.78
44.96
46.18
52.51
61.36
67.27
64.90
52.60
34.33
18.23
12.63
21.60
42.55
67.59
87.48
96.19
93.31
83.17
71.74
63.22
58.55
56.18
54.18
51.94
50.29
50.34
52.01
53.48
52.17
46.35
36.50
25.10
15.23
8.52
4.07
-0.92
-9.43
-22.79
-39.85
-57.78
-73.54
-85.06
-91.55
-92.79
-88.40
-78.09
-62.66
-45.15
-30.57
-24.08
-28.32
-41.76
-59.14
-73.91
-81.33
-80.27
-73.06
-63.53
-54.90
-48.54
-44.17
-40.82
-37.71
-34.56
-31.19
-27.08
-21.16
-12.11
0.95
17.66
36.01
52.55
63.60
66.76
62.11
52.32
41.42
32.85
27.91
25.38
22.61
17.32
9.06
-0.49
-8.51
-12.54
-11.60
-6.49
0.85
8.38
14.70
19.47
23.11
26.29
29.43
32.52
35.36
37.80
39.91
41.81
43.38
44.23
43.81
41.83
38.46
34.33
30.02
25.53
20.03
12.31
1.46
-12.55
-28.76
-45.81
-62.61
-78.71
-93.99
-108.11
-120.30
-129.59
-135.33
-137.67
-137.57
-136.19
-134.27
-131.66
-127.40
-120.31
-109.38
-93.97
-73.71
-48.56
-19.18
12.42
42.53
66.12
77.94
74.42
55.14
23.37
-14.89
-52.83
-84.95
-108.16
-121.80
-126.50
-122.99
-111.51
-92.21
-65.76
-33.93
0.41
34.16
64.86
91.31
113.52
132.03
147.19
158.98
167.02
170.73
169.49
162.38
147.99
124.64
91.42
49.04
0.66
-48.47
-92.43
-126.44
-148.45
-159.31
-161.71
-158.54
-151.55
-141.06
-126.50
-107.45
-84.31
-58.60
-32.19
-6.42
18.60
43.76
69.88
96.32
120.38
138.08
145.93
143.16
132.73
120.70
113.87
117.25
131.90
154.57
179.26
199.33
209.65
207.76
194.13
171.71
145.16
119.74
99.85
87.75
82.62
80.64
76.15
63.91
41.39
10.15
-24.46
-55.40
-76.87
-86.62
-86.28
-79.98
-71.87
-64.34
-57.60
-50.66
-42.83
-34.73
-28.15
-24.99
-25.96
-29.92
-34.17
-35.72
-32.56
-24.55
-13.20
-1.11
8.91
14.53
14.40
8.41
-2.43
-16.28
-31.26
-45.81
-59.08
-70.55
-79.38
-84.09
-83.05
-76.05
-65.51
-56.68
-55.58
-65.77
-85.66
-108.30
-124.30
-126.34
-112.91
-88.75
-62.26
-41.03
-28.47
-23.28
-21.62
-20.38
-19.04
-19.30
-22.75
-28.72
-33.72
-32.88
-22.63
-2.68
23.44
49.93
71.20
83.91
87.69
84.43
76.82
67.29
57.58
48.60
40.72
33.99
28.58
25.03
24.22
26.97
33.37
42.56
52.36
59.88
62.66
59.78
52.19
42.26
32.67
25.16
20.63
18.28
16.30
12.94
7.94
2.98
0.90
4.19
13.47
28.21
45.68
62.05
74.19
81.53
86.25
91.62
100.04
111.74
127.00
144.25
160.47
171.99
176.27
172.96
163.74
151.77
140.99
137.89
146.65
166.83
193.05
217.41
232.44
233.02
217.24
169.71
87.53
-17.64
-123.98
-212.37
-274.21
-310.55
-326.95
-329.78
-324.50
-312.18
-293.04
-267.69
-238.15
-206.86
-175.17
-144.59
-117.38
-96.22
-81.15
-71.74
-67.82
-70.21
-78.45
-90.46
-102.23
-108.90
-106.04
-90.08
-60.20
-19.24
26.65
71.94
107.64
126.80
126.87
110.62
85.05
57.04
35.84
20.72
9.77
1.29
-5.29
-9.73
-13.33
-16.30
-18.88
-21.52
-25.55
-31.05
-37.57
-43.83
-48.30
-49.98
-48.79
-45.71
-42.30
-40.58
-41.26
-44.26
-48.65
-53.12
-56.50
-57.77
-56.33
-51.83
-44.62
-35.03
-23.91
-12.40
-1.75
7.05
13.65
18.33
21.92
25.17
28.82
33.05
37.50
41.53
44.35
45.28
43.76
39.52
32.54
23.48
13.43
3.78
-4.07
-9.10
-11.03
-10.29
-7.77
-4.33
-0.42
4.02
9.38
16.05
24.12
33.17
42.42
50.93
57.90
62.88
65.71
66.47
65.12
61.36
54.67
44.66
31.32
15.32
-2.10
-19.41
-35.15
-48.44
-59.07
-67.26
-73.38
-77.57
-79.68
-79.37
-76.40
-70.82
-63.02
-53.68
-43.58
-33.37
-23.57
-14.58
-6.78
-0.64
3.27
4.50
2.75
-1.82
-8.65
-16.69
-24.69
-31.44
-36.01
-37.84
-36.81
-33.15
-27.36
-20.13
-12.08
-3.80
4.23
11.64
18.14
23.53
27.67
30.44
31.75
31.57
29.86
26.64
22.08
16.56
10.68
5.15
0.64
-2.43
-3.91
-3.92
-2.68
-0.44
2.62
6.33
10.50
14.89
19.17
23.04
26.27
28.62
29.83
29.49
27.12
22.40
15.27
6.14
-4.02
-13.85
-21.86
-26.78
-27.93
-25.19
-19.08
-10.70
-1.51
6.87
13.02
16.04
15.88
13.32
9.83
7.07
6.46
8.74
13.77
20.59
27.73
33.60
36.87
36.89
33.68
27.94
20.80
13.50
7.00
1.84
-1.87
-4.43
-6.30
-8.14
-10.64
-14.27
-19.20
-25.07
-31.08
-36.12
-39.09
-39.22
-36.25
-30.47
-22.53
-13.32
-3.67
5.68
14.18
21.40
27.03
30.89
32.96
33.37
32.40
30.53
28.26
26.04
24.13
22.57
21.21
19.82
18.20
16.21
13.91
11.46
9.09
6.92
5.02
3.37
1.84
0.28
-1.54
-3.85
-6.82
-10.47
-14.71
-19.35
-24.11
-28.66
-32.62
-35.64
-37.33
-37.38
-35.60
-31.99
-26.74
-20.23
-12.96
-5.39
2.05
9.02
15.30
20.72
25.13
28.39
30.47
31.36
31.19
30.17
28.52
26.41
24.00
21.41
18.80
16.36
14.19
12.32
10.70
9.12
7.37
5.26
2.76
0.07
-2.47
-4.40
-5.33
-5.06
-3.68
-1.52
0.90
3.10
4.73
5.68
5.99
5.82
5.34
4.69
4.03
3.45
3.01
2.68
2.39
1.97
1.25
0.03
-1.86
-4.50
-7.94
-12.16
-17.01
-22.23
-27.45
-32.23
-36.10
-38.64
-39.47
-38.37
-35.25
-30.29
-23.94
-16.84
-9.75
-3.28
2.16
6.51
9.89
12.47
14.39
15.68
16.36
16.56
16.48
16.36
16.40
16.66
17.04
17.37
17.42
17.04
16.20
15.00
13.65
12.41
11.47
10.86
10.41
9.73
8.40
6.09
2.80
-1.09
-4.83
-7.54
-8.46
-7.22
-3.97
0.53
5.10
8.42
9.49
8.02
4.56
0.44
-2.68
-3.34
-0.83
4.66
12.06
19.89
26.79
31.91
35.10
36.78
37.59
38.15
38.88
39.94
41.39
43.23
45.38
47.62
49.50
50.42
49.83
47.47
43.44
38.17
32.26
26.21
20.30
14.59
9.08
3.70
-1.53
-6.76
-12.36
-18.70
-25.96
-33.87
-41.59
-48.03
-52.11
-53.26
-51.59
-47.74
-42.64
-37.17
-31.90
-27.11
-22.84
-19.05
-15.60
-12.35
-9.18
-6.01
-2.91
-0.05
2.36
4.11
5.12
5.57
5.85
6.56
8.33
11.43
15.78
20.84
25.86
30.12
33.26
35.44
37.03
38.31
39.05
38.42
35.24
28.38
17.15
1.69
-16.96
-36.90
-55.81
-71.50
-82.43
-88.02
-88.62
-85.22
-79.00
-70.93
-61.62
-51.34
-40.10
-27.78
-14.41
-0.52
12.62
23.35
30.14
32.36
30.59
26.10
20.15
13.39
5.83
-2.55
-11.16
-18.90
-24.75
-28.48
-30.90
-33.30
-36.62
-40.87
-45.33
-49.07
-51.61
-53.09
-53.81
-53.75
-52.34
-48.85
-42.82
-34.55
-24.65
-13.53
-1.21
12.48
27.13
41.29
52.61
58.63
57.60
50.21
40.04
32.13
30.81
38.09
53.45
75.02
100.85
128.12
154.76
179.57
201.65
219.70
231.67
235.58
230.17
215.22
189.37
152.70
107.67
58.37
8.73
-39.11
-84.52
-127.64
-168.32
-208.57
-249.14
-288.22
-322.13
-347.31
-362.79
-369.75
-370.58
-350.53
-303.31
-235.09
-160.86
-94.18
-41.28
-4.39
17.04
26.27
30.09
34.79
46.33
70.21
108.42
161.46
222.65
281.69
328.12
355.76
361.04
343.98
309.60
265.15
219.25
174.44
130.13
82.82
33.52
-16.52
-67.32
-117.42
-164.35
-202.67
-231.58
-251.86
-266.21
-276.60
-270.61
-243.65
-199.28
-162.33
-133.09
-108.43
-79.14
-44.92
-8.85
23.25
43.71
51.62
48.03
40.21
29.44
19.09
10.98
10.91
22.02
42.77
69.44
96.96
121.93
138.75
144.26
137.67
121.66
99.24
71.14
37.43
-1.52
-44.49
-92.11
-143.79
-197.65
-249.51
-294.45
-327.62
-343.10
-333.77
-294.80
-226.84
-134.84
-27.24
86.31
196.10
288.90
345.64
359.13
338.74
300.82
258.45
218.80
185.40
159.32
139.90
125.28
112.99
97.87
72.74
33.87
-17.16
-74.04
-128.65
-174.17
-206.58
-213.77
-197.85
-167.80
-132.68
-98.02
-65.99
-37.53
-13.58
5.35
20.03
30.09
36.07
39.49
42.32
45.75
50.21
55.02
59.10
61.59
60.77
56.31
49.50
42.43
36.87
32.72
28.44
21.93
11.63
-3.76
-23.64
-46.27
-70.24
-91.21
-107.31
-118.02
-123.32
-123.67
-120.39
-114.81
-108.19
-101.53
-95.28
-89.70
-84.14
-76.89
-66.55
-52.97
-36.87
-19.37
-1.51
16.01
32.27
46.46
58.46
67.96
74.45
77.69
78.17
76.89
75.18
74.13
71.02
66.04
62.22
62.60
66.99
72.30
74.94
72.85
66.16
56.86
47.95
41.21
36.41
32.22
27.57
22.37
17.52
14.11
12.83
14.05
17.06
20.03
20.89
18.26
11.77
1.95
-9.85
-21.87
-31.95
-38.69
-41.28
-39.41
-33.35
-24.12
-13.61
-3.89
3.54
8.63
12.51
16.41
21.00
25.97
30.11
32.02
30.87
26.68
20.02
11.17
-0.54
-15.96
-35.10
-56.39
-76.76
-92.82
-102.45
-105.83
-102.95
-96.67
-90.73
-88.21
-90.48
-96.74
-104.35
-109.78
-109.64
-101.36
-84.25
-59.11
-28.21
4.91
36.05
61.08
76.60
80.48
72.12
52.07
22.04
-15.52
-57.79
-101.69
-143.82
-180.36
-207.51
-222.17
-222.85
-209.79
-184.83
-150.97
-111.77
-70.84
-31.32
4.45
35.34
61.47
84.12
105.17
126.42
148.88
172.56
196.56
219.28
238.89
253.61
261.97
263.23
257.50
245.71
229.26
209.52
187.36
163.17
137.05
109.10
79.72
49.60
19.62
-9.21
-35.72
-58.75
-77.29
-90.82
-99.60
-104.56
-106.99
-107.97
-107.85
-106.13
-101.91
-94.53
-84.21
-72.28
-60.60
-50.97
-44.33
-40.60
-38.91
-38.16
-37.46
-36.37
-34.75
-32.40
-28.89
-23.72
-16.62
-7.96
1.11
9.08
14.62
17.18
17.32
16.45
16.17
17.66
21.32
26.91
34.07
42.63
52.66
64.16
76.60
88.87
99.64
107.84
113.17
116.10
117.61
118.63
119.58
120.23
119.87
117.78
113.61
107.59
100.40
92.87
85.52
78.34
70.90
62.60
53.13
42.65
31.74
21.02
10.83
0.91
-9.41
-20.89
-33.98
-48.51
-63.92
-79.60
-95.35
-111.23
-127.18
-142.49
-155.52
-164.36
-167.69
-165.62
-159.66
-151.98
-144.23
-137.03
-130.17
-123.43
-117.29
-112.79
-110.69
-110.26
-108.92
-102.86
-88.79
-65.53
-34.66
0.18
34.92
66.60
94.05
117.51
137.44
153.59
164.83
169.81
167.84
159.66
147.24
132.89
118.54
105.15
92.78
81.21
70.53
61.35
54.65
51.17
50.93
53.08
55.96
57.49
55.69
49.32
38.47
24.58
10.00
-2.95
-12.55
-18.13
-20.04
-19.13
-16.04
-10.72
-2.55
9.03
23.72
40.91
59.71
78.83
96.53
110.62
119.04
120.31
114.21
101.50
85.34
70.13
59.12
52.63
47.44
38.65
21.74
-5.57
-43.61
-88.52
-134.06
-174.47
-206.74
-231.73
-251.79
-269.38
-285.81
-302.27
-316.38
-323.23
-317.54
-295.65
-257.56
-204.79
-140.11
-58.22
32.53
114.91
172.86
198.99
193.62
159.61
103.92
36.89
-29.70
-87.50
-130.76
-157.00
-170.18
-165.61
-144.13
-106.77
-56.92
-1.78
47.17
80.42
94.18
91.04
78.18
62.06
47.89
37.31
29.70
22.21
14.02
6.75
3.14
5.79
14.86
29.88
48.96
69.84
89.36
104.47
112.20
109.58
94.25
64.32
20.69
-32.82
-89.10
-139.73
-176.91
-195.76
-195.51
-178.96
-151.06
-115.11
-75.31
-34.75
4.18
39.24
68.02
88.61
100.46
104.75
104.05
100.73
96.50
91.68
85.52
77.20
66.85
55.93
47.03
42.81
44.70
52.44
63.57
73.90
78.97
75.84
64.42
47.68
30.52
17.70
12.49
15.49
24.81
37.21
49.41
58.88
64.29
65.52
63.16
59.00
55.13
53.38
54.68
58.67
63.90
68.64
71.60
72.07
70.89
69.18
67.93
67.59
67.83
67.80
66.47
62.94
56.08
45.86
31.97
13.89
-9.29
-38.76
-75.42
-119.34
-166.33
-215.49
-261.32
-296.54
-313.01
-303.74
-265.62
-201.58
-120.96
-37.56
33.87
83.21
107.09
109.68
100.44
90.07
86.52
92.37
104.78
117.20
123.51
119.87
106.23
85.77
62.89
41.35
22.88
7.28
-7.00
-21.31
-36.97
-54.92
-75.54
-98.47
-122.27
-144.79
-163.57
-176.54
-181.92
-178.62
-166.27
-145.16
-116.54
-82.85
-47.70
-15.02
12.23
32.93
47.53
56.89
61.42
60.74
54.71
43.95
30.81
19.17
13.08
14.63
22.81
34.12
44.23
49.98
48.85
39.02
19.04
-9.73
-42.66
-73.67
-97.72
-111.76
-114.19
-106.27
-91.10
-72.10
-51.87
-32.14
-14.25
1.00
13.73
27.50
45.54
70.19
102.24
140.12
179.56
214.43
238.89
241.82
222.79
188.30
147.22
106.75
70.27
37.62
7.22
-21.54
-47.23
-67.56
-81.41
-90.42
-98.47
-109.91
-127.49
-150.94
-177.08
-195.39
-200.13
-190.18
-168.75
-141.49
-114.40
-91.93
-75.97
-65.43
-55.82
-42.78
-21.41
10.09
50.07
94.08
136.22
170.99
190.29
193.35
183.69
166.91
147.49
127.76
108.16
87.99
66.37
43.29
20.90
1.57
-12.09
-18.67
-19.49
-17.63
-17.20
-21.54
-31.34
-43.32
-52.89
-55.97
-51.19
-40.04
-25.62
-11.00
2.09
13.20
22.67
30.01
34.04
33.56
28.25
19.57
9.78
2.22
-0.48
2.87
11.36
22.37
32.65
39.22
40.53
36.61
28.86
19.21
9.00
-2.07
-15.91
-35.06
-60.89
-91.55
-121.41
-141.83
-144.13
-122.83
-78.17
-16.62
51.11
113.47
161.39
190.07
198.91
190.03
166.77
133.00
92.63
50.01
9.35
-25.68
-52.77
-71.47
-83.05
-90.23
-96.56
-105.81
-120.97
-143.03
-169.75
-195.65
-213.32
-215.95
-199.96
-166.19
-119.33
-65.80
-11.45
39.58
84.60
121.44
147.97
162.52
164.96
157.12
142.50
124.96
107.47
91.56
77.53
65.07
53.66
42.81
31.86
20.24
7.77
-5.05
-17.14
-27.45
-35.64
-42.48
-49.52
-58.23
-69.06
-80.95
-91.65
-98.77
-100.85
-97.93
-91.32
-82.71
-73.18
-62.84
-51.05
-37.16
-21.26
-4.39
11.76
25.51
35.72
42.01
44.69
44.36
41.64
37.05
30.97
23.74
15.72
7.39
-0.65
-7.79
-13.56
-17.79
-20.53
-21.96
-22.35
-21.96
-20.98
-19.40
-16.84
-12.73
-6.56
1.55
10.64
19.16
25.80
30.31
33.66
37.21
41.56
45.72
47.45
44.54
36.26
23.92
10.14
-2.53
-12.88
-21.35
-29.21
-37.54
-46.38
-54.87
-61.93
-67.05
-70.59
-73.47
-76.63
-80.43
-84.66
-88.57
-91.26
-91.91
-89.92
-84.96
-76.87
-65.74
-51.86
-35.70
-17.59
2.31
23.78
45.94
66.97
84.39
96.07
101.41
101.97
100.89
101.49
105.62
112.87
120.95
127.21
130.03
129.41
126.22
121.07
113.78
103.63
90.50
76.01
63.38
56.13
56.22
62.27
69.37
70.37
58.66
31.20
-9.43
-55.14
-94.61
-116.96
-115.43
-89.68
-45.61
6.90
57.65
99.43
129.50
148.84
159.72
163.27
158.57
143.74
118.42
85.76
52.66
27.54
16.97
22.65
40.44
62.33
79.68
86.56
81.03
64.60
40.14
10.02
-24.81
-64.57
-109.32
-157.80
-206.98
-252.65
-290.94
-319.56
-338.04
-346.87
-346.07
-334.31
-309.26
-269.08
-214.18
-147.97
-75.98
-3.83
64.98
129.43
189.85
245.67
294.19
330.68
350.30
350.26
331.11
296.41
251.32
200.84
148.91
98.54
52.14
11.15
-24.45
-56.46
-87.71
-120.45
-155.00
-189.67
-222.07
-250.48
-274.25
-292.70
-304.04
-305.62
-296.09
-277.78
-257.12
-242.05
-237.07
-239.39
-238.84
-222.87
-182.96
-119.52
-42.00
35.55
100.63
146.74
174.65
190.14
200.08
209.43
219.70
228.98
233.51
229.68
215.55
191.51
159.83
123.53
84.97
45.04
3.14
-42.24
-92.58
-148.67
-210.04
-274.44
-337.34
-392.12
-431.11
-447.70
-438.48
-404.73
-352.28
-289.47
-224.45
-162.96
-107.61
-58.35
-13.74
27.84
67.49
105.87
143.40
180.14
215.52
248.06
275.50
295.51
306.50
308.22
301.82
289.39
273.33
255.92
238.90
223.07
207.94
192.17
174.37
154.12
132.80
113.29
98.86
91.48
90.12
90.75
87.98
77.21
56.02
24.49
-15.27
-59.28
-102.07
-137.12
-157.95
-160.32
-144.41
-115.49
-82.27
-53.60
-34.96
-26.83
-25.59
-26.07
-24.37
-19.22
-11.27
-1.67
9.03
20.93
34.33
48.86
63.41
76.32
85.79
90.31
89.09
81.72
68.70
51.69
33.65
18.32
8.94
7.50
14.15
26.94
41.95
54.29
59.57
55.44
42.85
25.90
10.45
1.84
2.78
12.51
27.73
44.52
60.16
73.70
85.28
94.90
101.70
104.37
102.15
95.63
86.66
77.18
68.24
59.22
48.30
33.29
13.06
-11.75
-39.32
-67.67
-95.27
-120.89
-143.04
-159.48
-168.14
-168.93
-165.37
-164.53
-174.09
-198.21
-234.02
-271.72
-297.81
-300.55
-274.58
-222.59
-154.24
-82.52
-20.25
22.86
42.26
39.81
23.89
7.37
3.62
21.78
63.27
121.23
183.58
237.91
275.73
294.07
294.53
280.91
257.00
225.85
190.33
153.90
120.86
95.22
79.17
71.76
68.87
64.45
52.76
30.41
-2.72
-43.90
-89.84
-138.72
-190.85
-247.31
-307.21
-365.75
-414.38
-443.42
-445.79
-419.67
-369.00
-301.80
-227.60
-154.97
-90.33
-37.08
4.61
37.53
66.18
94.55
124.17
153.28
177.74
192.84
195.42
184.65
161.52
127.94
86.33
40.41
-4.04
-39.97
-61.54
-66.75
-58.64
-43.81
-29.46
-20.26
-16.39
-14.01
-7.83
5.76
26.67
50.97
72.65
85.16
83.49
66.48
38.74
10.15
-7.03
-2.15
29.76
86.67
158.16
227.20
274.60
285.70
255.16
188.59
101.04
12.98
-53.53
-82.51
-69.61
-23.19
39.84
100.02
140.95
153.03
126.72
64.71
-15.24
-88.61
-138.41
-160.54
-159.65
-143.93
-121.85
-101.03
-85.29
-75.40
-70.05
-66.86
-63.13
-57.43
-50.72
-45.13
-43.00
-43.59
-44.80
-45.54
-46.98
-50.67
-56.34
-60.55
-56.72
-39.24
-4.45
44.85
99.19
145.79
174.03
179.45
161.72
129.88
93.37
59.43
31.29
9.03
-8.58
-22.30
-32.03
-37.68
-39.24
-38.39
-37.03
-36.92
-38.92
-43.16
-48.40
-52.98
-55.42
-54.36
-49.94
-43.05
-35.04
-27.06
-19.87
-13.64
-8.26
-3.56
0.67
4.05
6.15
6.75
6.04
4.52
2.74
1.11
-0.29
-1.48
-2.66
-4.00
-5.42
-6.74
-7.69
-8.12
-8.04
-7.64
-7.22
-7.27
-8.21
-10.24
-13.22
-16.49
-19.09
-20.04
-18.79
-15.28
-10.09
-4.10
1.70
6.48
9.82
11.73
12.72
13.60
15.26
18.18
22.14
26.21
28.97
29.05
25.76
19.35
11.02
2.40
-5.07
-10.67
-14.61
-17.92
-21.81
-27.23
-34.39
-42.66
-50.81
-57.53
-61.86
-63.47
-62.79
-60.60
-57.75
-54.73
-51.62
-48.10
-43.71
-37.99
-30.69
-21.79
-11.45
0.01
12.05
23.95
34.77
43.55
49.60
52.61
52.73
50.38
46.14
40.59
34.35
28.03
22.32
17.84
15.00
13.92
14.34
15.82
17.83
19.91
21.66
22.75
23.03
22.46
21.20
19.57
17.96
16.75
16.21
16.51
17.64
19.38
21.33
22.95
23.65
23.08
21.15
18.05
14.14
9.84
5.49
1.31
-2.58
-6.13
-9.31
-12.17
-14.76
-17.08
-19.05
-20.48
-21.19
-21.00
-19.85
-17.82
-15.12
-12.09
-9.11
-6.56
-4.72
-3.70
-3.41
-3.62
-4.07
-4.61
-5.25
-6.12
-7.31
-8.76
-10.22
-11.37
-12.09
-12.48
-12.87
-13.76
-15.52
-18.25
-21.67
-25.24
-28.33
-30.40
-31.06
-30.15
-27.62
-23.60
-18.29
-12.04
-5.27
1.47
7.61
12.76
16.73
19.60
21.61
23.00
23.78
23.90
23.26
21.72
19.33
16.25
12.82
9.40
6.33
3.81
2.04
1.23
1.41
2.57
4.48
6.89
9.53
12.14
14.51
16.47
17.89
18.62
18.75
18.37
17.64
16.74
15.70
14.41
12.70
10.53
8.05
5.63
3.61
2.12
1.16
0.49
-0.17
-0.97
-1.87
-2.70
-3.26
-3.42
-3.17
-2.45
-1.19
0.70
3.27
6.44
9.93
13.36
16.30
18.41
19.49
19.50
18.59
17.06
15.19
13.22
11.32
9.49
7.67
5.88
4.10
2.42
0.88
-0.57
-1.96
-3.30
-4.57
-5.76
-6.81
-7.76
-8.67
-9.65
-10.84
-12.28
-13.89
-15.45
-16.68
-17.33
-17.27
-16.56
-15.40
-14.11
-12.91
-11.90
-11.02
-10.11
-8.98
-7.51
-5.68
-3.55
-1.21
1.22
3.67
6.00
8.11
9.91
11.33
12.40
13.19
13.78
14.20
14.39
14.22
13.59
12.53
11.15
9.67
8.28
7.07
6.00
4.95
3.77
2.31
0.51
-1.62
-3.92
-6.11
-7.88
-8.95
-9.22
-8.76
-7.82
-6.71
-5.65
-4.80
-4.16
-3.64
-3.09
-2.35
-1.29
0.08
1.62
3.02
4.00
4.36
4.08
3.32
2.34
1.32
0.35
-0.61
-1.69
-2.98
-4.52
-6.22
-7.90
-9.30
-10.19
-10.52
-10.42
-10.14
-9.87
-9.61
-9.11
-7.96
-5.82
-2.59
1.56
6.26
11.14
15.93
20.54
24.85
28.72
31.86
33.87
34.35
33.05
30.07
25.85
21.17
16.76
13.10
10.21
7.94
6.23
5.40
5.84
7.54
9.58
10.30
7.99
1.86
-7.43
-18.16
-28.53
-37.69
-45.76
-53.10
-59.10
-61.70
-58.08
-46.39
-27.28
-4.35
16.95
31.44
36.12
31.11
19.13
4.18
-9.89
-20.30
-25.55
-25.26
-20.05
-11.44
-1.66
6.77
11.90
13.21
11.96
10.83
12.85
20.08
32.70
48.81
65.07
77.82
84.30
83.39
75.80
63.55
49.22
35.11
22.66
12.38
4.01
-3.06
-9.52
-15.85
-22.14
-27.93
-32.19
-33.61
-31.14
-24.62
-15.16
-4.93
3.69
9.05
11.00
10.67
9.79
9.83
11.40
14.28
17.89
21.70
25.47
29.07
32.26
34.51
35.09
33.32
28.82
21.68
12.46
2.04
-8.53
-18.15
-25.82
-30.73
-32.53
-31.29
-27.50
-21.94
-15.40
-8.71
-2.73
1.58
3.28
1.74
-2.90
-9.39
-15.57
-18.98
-17.77
-11.54
-1.37
10.78
23.04
34.48
45.25
56.03
67.11
77.76
86.28
90.90
90.99
87.75
83.85
82.15
84.30
89.76
96.04
99.67
97.97
90.19
77.61
62.66
47.54
33.46
20.66
9.05
-1.26
-9.29
-13.32
-11.61
-3.59
9.41
24.21
36.73
43.19
40.89
29.21
9.84
-14.02
-39.18
-63.71
-87.47
-111.23
-133.34
-151.09
-162.42
-166.67
-164.32
-156.68
-145.60
-133.06
-120.38
-108.03
-96.11
-84.66
-73.87
-64.14
-56.05
-50.01
-45.95
-43.06
-40.22
-36.66
-32.30
-27.63
-23.50
-20.73
-19.74
-20.27
-21.10
-20.68
-18.02
-13.06
-6.68
-0.24
4.88
7.87
8.70
8.27
7.82
7.85
7.97
6.96
3.47
-3.69
-15.18
-31.10
-50.14
-69.51
-85.01
-91.49
-84.58
-62.79
-28.99
10.78
46.44
70.91
82.15
83.10
79.30
75.47
73.43
71.47
66.73
57.36
44.51
31.60
22.36
19.13
21.43
26.53
30.42
29.74
22.76
10.11
-6.86
-26.18
-45.11
-60.15
-67.04
-62.88
-48.19
-28.08
-10.74
-4.42
-13.39
-35.39
-62.55
-84.15
-91.65
-81.58
-55.92
-20.08
19.60
57.41
89.25
110.07
118.48
115.05
101.75
81.74
59.09
38.09
22.56
15.67
16.94
24.29
33.80
41.54
45.14
44.90
43.50
44.64
51.02
62.35
75.53
85.06
85.75
74.82
53.11
24.72
-5.17
-29.58
-44.02
-47.67
-44.83
-39.43
-34.50
-31.28
-29.16
-26.07
-18.92
-4.53
18.07
46.32
74.28
93.27
95.41
75.50
33.47
-24.82
-86.26
-133.29
-152.32
-141.52
-111.43
-75.16
-40.87
-10.20
15.34
38.86
59.32
72.70
75.07
62.91
35.86
-3.66
-49.34
-96.01
-140.09
-181.11
-220.14
-245.18
-247.25
-224.77
-184.65
-136.24
-86.80
-40.07
1.43
35.83
62.10
78.03
83.46
80.46
72.96
64.60
58.13
54.61
54.03
56.19
58.67
60.46
62.03
64.77
69.65
76.29
84.15
91.78
97.62
98.15
91.89
79.15
61.58
41.21
19.94
-0.76
-19.94
-36.98
-53.67
-70.39
-86.77
-102.03
-115.42
-126.46
-134.88
-140.76
-133.18
-113.65
-86.53
-56.72
-27.95
-2.38
19.09
36.69
51.51
64.47
75.06
84.05
91.58
97.36
101.03
102.55
102.36
101.72
101.02
99.50
96.95
91.94
82.74
68.45
49.60
27.83
5.30
-17.16
-38.84
-58.14
-75.02
-89.45
-101.44
-111.64
-122.61
-129.33
-132.72
-134.10
-133.68
-133.19
-133.53
-134.78
-136.98
-141.29
-149.94
-166.14
-190.36
-205.65
-199.01
-167.59
-119.83
-67.44
-20.38
15.30
36.97
47.50
52.46
53.25
50.89
46.40
41.94
40.44
45.64
59.15
82.45
114.86
150.75
183.46
205.43
210.94
197.46
166.84
125.69
81.73
39.44
-2.64
-46.65
-93.92
-141.33
-181.47
-205.30
-204.22
-177.50
-131.54
-86.49
-52.90
-34.72
-28.44
-26.40
-21.01
-3.92
26.44
64.43
101.74
135.02
164.57
193.02
222.41
253.51
291.10
336.22
384.09
427.17
460.41
479.67
481.60
463.32
392.91
271.43
134.68
23.92
-43.69
-73.30
-79.62
-76.32
-71.39
-67.92
-61.64
-51.99
-45.44
-50.54
-70.01
-99.45
-131.09
-160.37
-184.43
-197.72
-198.78
-191.71
-182.86
-176.18
-178.74
-188.63
-205.09
-225.01
-241.48
-250.04
-250.81
-246.94
-241.99
-240.00
-235.25
-229.30
-223.42
-217.57
-212.92
-211.35
-212.94
-214.18
-197.71
-156.27
-100.28
-47.84
-12.76
0.34
-5.18
-21.49
-40.36
-56.50
-69.81
-84.79
-102.68
-121.66
-138.51
-150.33
-155.56
-154.25
-147.57
-137.96
-130.06
-124.46
-119.13
-110.92
-96.93
-75.32
-45.80
-9.79
29.03
66.31
99.72
128.50
153.08
174.49
193.79
211.81
229.18
245.98
262.09
277.39
290.47
298.34
297.68
287.14
269.14
249.80
236.36
233.79
242.38
256.97
269.11
270.63
256.70
227.13
185.57
137.81
90.11
48.27
16.88
-1.27
-5.83
0.77
14.08
28.84
40.48
46.18
44.93
36.84
22.60
3.53
-18.16
-38.81
-53.54
-57.39
-46.80
-20.66
19.56
70.47
127.47
184.89
235.91
272.93
289.00
280.22
247.74
198.26
142.41
91.72
55.57
39.18
43.02
63.36
93.11
123.18
144.22
148.79
133.31
99.00
51.05
-3.57
-58.45
-108.80
-151.64
-185.11
-208.30
-221.73
-228.26
-232.87
-241.13
-256.61
-278.49
-300.92
-314.69
-310.93
-284.87
-238.28
-179.09
-118.78
-68.45
-35.42
-21.46
-23.24
-34.31
-47.62
-57.57
-60.97
-56.90
-45.93
-29.24
-7.97
17.02
45.04
75.35
106.78
137.41
164.30
183.56
190.74
182.07
156.16
115.71
68.13
24.51
-3.22
-5.89
19.75
69.73
134.04
199.78
255.10
292.41
309.51
308.90
295.45
274.15
248.61
221.00
192.56
164.12
136.13
108.14
78.61
45.40
7.05
-35.85
-80.10
-121.00
-154.55
-179.45
-198.19
-216.44
-240.96
-276.83
-324.98
-380.85
-434.57
-473.48
-486.18
-467.31
-420.92
-360.49
-304.99
-272.05
-271.26
-300.65
-348.00
-396.34
-430.57
-442.44
-431.54
-402.84
-362.67
-315.68
-263.86
-207.71
-148.24
-88.79
-34.93
7.14
33.14
42.97
41.82
38.67
43.19
62.02
96.06
140.37
186.64
227.05
257.64
279.67
298.03
318.14
342.93
371.76
401.57
428.88
451.28
467.43
476.13
475.10
461.17
431.59
385.87
326.97
261.03
195.58
137.35
90.76
57.34
36.21
24.54
17.85
10.27
-5.15
-34.95
-83.16
-149.03
-225.90
-301.76
-362.13
-394.40
-392.06
-357.45
-301.52
-240.91
-193.22
-172.22
-184.10
-226.17
-287.97
-354.46
-410.27
-443.81
-449.75
-429.47
-389.28
-337.22
-280.29
-222.96
-167.26
-113.86
-63.29
-16.52
25.26
61.18
91.14
115.71
135.83
152.60
167.43
182.44
200.39
223.89
253.84
288.05
321.04
345.59
355.90
350.72
334.69
317.12
308.13
314.32
335.82
366.16
394.91
411.76
409.90
387.60
347.61
295.06
235.32
172.58
109.50
47.38
-13.29
-72.49
-130.04
-184.78
-233.77
-272.20
-294.58
-296.96
-279.15
-245.65
-204.45
-164.11
-130.45
-104.80
-84.55
-65.48
-44.44
-20.86
3.61
26.53
46.11
61.71
73.25
80.29
81.73
76.06
62.51
42.13
17.98
-5.63
-24.67
-36.99
-43.00
-45.44
-48.09
-54.22
-65.35
-80.76
-97.84
-113.10
-123.42
-127.06
-124.08
-116.11
-105.52
-94.34
-83.70
-73.57
-63.31
-52.41
-40.99
-29.84
-20.07
-12.42
-6.94
-2.95
0.59
4.69
9.86
16.02
22.43
27.99
31.56
32.41
30.48
26.52
21.78
17.62
14.96
14.03
14.36
15.10
15.45
15.00
13.86
12.51
11.42
10.76
10.11
8.73
5.94
1.74
-2.97
-6.46
-6.87
-2.96
5.32
16.70
29.09
40.41
49.22
55.07
58.35
59.79
60.02
59.46
58.23
56.52
54.71
53.43
53.29
54.61
57.12
59.92
61.90
62.16
60.45
57.32
53.83
51.14
49.93
50.30
51.83
53.88
55.96
57.80
59.27
60.18
60.21
58.93
55.97
51.21
44.98
38.09
31.85
27.84
27.49
31.63
40.11
51.56
63.71
74.16
81.28
84.94
86.43
87.53
89.12
90.39
88.70
80.72
63.96
37.79
3.37
-37.43
-83.03
-132.01
-181.88
-227.88
-262.88
-279.40
-272.81
-243.90
-199.20
-148.63
-101.61
-63.73
-35.77
-15.00
2.09
17.47
30.71
39.65
41.95
36.69
25.15
10.65
-2.18
-8.91
-6.80
4.34
22.18
42.86
62.49
78.37
89.46
96.12
99.23
99.35
96.30
89.06
76.16
56.11
27.92
-8.64
-53.06
-104.43
-161.60
-222.93
-285.58
-344.99
-395.04
-429.40
-443.69
-437.47
-414.84
-383.16
-350.13
-320.84
-296.20
-273.42
-248.06
-216.59
-178.04
-134.09
-88.09
-43.50
-2.86
32.75
63.14
88.60
109.29
125.42
137.63
147.73
158.80
174.46
197.25
226.87
259.48
288.83
308.87
316.75
314.27
307.17
302.35
304.72
315.31
331.40
348.23
360.93
365.73
360.05
342.39
312.17
270.22
219.08
162.81
105.91
51.87
2.32
-43.33
-87.13
-131.25
-176.61
-222.04
-264.19
-298.51
-320.78
-328.56
-322.07
-303.89
-277.74
-247.00
-213.75
-178.65
-141.72
-103.34
-64.86
-28.70
2.33
25.89
40.75
47.08
46.25
40.33
31.46
21.39
11.09
0.59
-10.91
-24.82
-42.50
-64.32
-88.85
-112.47
-129.84
-135.07
-123.48
-93.11
-45.74
13.05
74.94
130.57
171.67
193.11
194.24
179.18
155.78
133.58
121.27
124.48
144.44
177.96
218.40
257.31
286.39
299.20
292.42
266.25
223.98
170.58
111.11
49.42
-12.10
-71.65
-126.68
-172.93
-204.89
-217.64
-209.06
-181.32
-140.58
-94.92
-51.69
-15.47
12.36
32.74
47.21
56.64
60.76
58.31
47.56
26.90
-4.36
-45.06
-91.29
-136.26
-171.36
-188.51
-182.81
-154.46
-108.87
-54.73
-1.19
44.70
79.15
101.24
111.65
111.59
102.25
85.11
62.33
36.87
11.93
-9.90
-27.25
-40.25
-50.16
-58.54
-66.53
-74.23
-80.62
-84.00
-82.69
-75.83
-63.79
-48.06
-30.68
-13.61
1.81
14.82
24.90
31.48
33.90
31.76
25.43
16.40
7.10
0.17
-2.49
-0.58
4.11
8.14
7.33
-1.88
-21.14
-49.42
-83.09
-117.03
-146.01
-166.35
-176.78
-178.56
-174.64
-168.52
-163.26
-160.84
-161.83
-165.09
-167.86
-165.99
-154.81
-130.67
-92.73
-44.20
7.67
53.64
85.75
100.55
100.56
93.08
86.93
88.62
99.89
117.90
137.54
154.59
167.56
177.74
187.12
196.11
202.46
202.19
191.65
169.72
138.32
101.34
62.53
23.61
-15.85
-57.02
-99.58
-140.40
-173.94
-194.37
-198.19
-185.52
-159.74
-125.35
-85.85
-42.85
3.20
51.21
98.17
139.16
168.86
183.50
182.36
167.76
144.11
116.24
88.05
61.87
38.44
17.70
-0.44
-15.38
-25.88
-30.44
-28.25
-20.04
-8.32
3.04
10.08
9.94
1.75
-13.11
-31.31
-48.25
-58.90
-58.92
-45.78
-19.64
16.19
55.81
92.02
117.82
127.94
119.48
92.30
49.16
-4.15
-58.86
-104.00
-128.56
-124.74
-91.16
-34.62
31.02
88.65
123.09
125.81
97.19
45.63
-15.71
-73.21
-116.36
-139.54
-141.99
-126.60
-98.06
-61.46
-21.33
18.64
55.76
88.32
115.44
136.75
151.75
159.39
158.10
146.81
126.47
100.83
75.70
56.42
45.17
39.47
33.25
19.94
-4.28
-39.17
-81.72
-128.67
-178.11
-228.80
-277.96
-319.57
-345.00
-346.35
-320.26
-269.89
-203.52
-130.95
-59.93
5.18
62.53
111.04
149.24
175.97
191.81
200.03
205.83
214.35
228.73
249.35
274.65
302.21
329.84
355.63
377.66
393.85
402.34
402.28
394.16
379.43
359.59
335.41
306.75
273.11
234.51
192.16
148.54
106.74
69.66
39.21
15.93
-1.13
-14.09
-25.75
-38.90
-55.73
-77.43
-104.36
-136.21
-172.49
-212.70
-256.28
-302.50
-350.62
-400.18
-451.04
-502.81
-553.62
-599.09
-632.43
-646.05
-634.42
-596.46
-536.49
-462.81
-384.86
-310.18
-242.70
-183.03
-129.82
-81.23
-35.70
8.32
53.08
101.98
158.76
225.58
300.90
378.32
447.19
495.91
516.01
505.37
469.05
416.82
358.76
301.38
246.30
191.96
136.97
82.49
32.24
-10.00
-43.00
-69.51
-94.98
-124.80
-161.85
-205.91
-254.92
-306.81
-360.21
-413.38
-462.40
-500.46
-519.40
-513.12
-481.05
-428.83
-366.18
-303.01
-245.99
-197.07
-154.69
-116.32
-80.37
-46.50
-14.07
18.86
54.76
94.75
136.46
173.54
197.83
202.03
182.17
139.25
78.38
6.89
-67.15
-135.65
-190.68
-224.41
-231.16
-210.42
-166.84
-110.07
-53.84
-12.37
4.08
-7.10
-38.47
-76.06
-106.87
-120.60
-112.19
-83.55
-40.55
10.53
65.27
122.30
178.27
222.05
241.97
231.86
193.22
137.15
80.63
41.10
32.03
56.72
103.62
158.38
211.35
257.63
298.15
336.18
358.89
355.32
348.89
345.81
332.66
303.50
257.15
197.81
130.88
62.24
-2.09
-58.88
-111.36
-159.37
-196.35
-214.67
-208.34
-179.19
-134.59
-83.79
-35.19
3.46
32.01
57.23
79.30
106.85
134.03
152.05
153.92
137.32
103.55
59.66
15.85
-20.00
-43.60
-56.52
-61.32
-59.78
-52.60
-41.49
-28.47
-15.97
-6.88
-2.17
-1.61
-1.41
4.11
20.12
48.55
87.58
131.97
174.07
206.14
221.07
215.05
187.61
141.24
80.76
12.70
-55.23
-114.80
-158.25
-180.46
-180.06
-160.53
-129.77
-98.00
-74.86
-66.60
-74.62
-95.50
-122.82
-149.12
-167.96
-175.30
-170.03
-153.88
-130.59
-105.00
-81.77
-64.54
-55.16
-53.41
-57.01
-62.13
-64.28
-59.41
-45.15
-21.47
9.21
42.58
73.52
97.33
110.80
112.95
105.23
91.10
75.15
61.70
53.57
51.30
53.11
55.75
55.81
50.92
40.36
25.24
7.99
-8.08
-19.45
-23.18
-17.79
-4.08
14.69
33.52
47.31
52.82
50.09
42.50
35.42
34.01
41.18
56.65
77.41
99.06
117.37
129.20
132.68
126.77
110.96
85.34
51.22
11.73
-28.26
-63.08
-87.83
-99.98
-100.10
-91.39
-78.33
-64.98
-53.68
-44.83
-37.33
-29.69
-21.00
-11.37
-1.79
6.37
12.01
14.61
14.29
11.55
7.19
2.20
-2.16
-4.26
-2.38
4.82
17.67
34.95
53.86
70.51
80.82
81.58
71.26
50.48
21.84
-10.73
-43.00
-71.49
-94.11
-110.40
-120.99
-126.98
-129.20
-127.98
-123.29
-115.15
-104.03
-90.99
-77.49
-65.04
-54.97
-48.37
-46.20
-49.34
-58.41
-73.33
-92.75
-113.90
-132.97
-146.06
-150.40
-145.23
-131.86
-113.07
-92.09
-71.56
-53.20
-37.81
-25.65
-16.69
-10.70
-6.97
-4.41
-1.68
2.39
8.36
16.01
24.41
32.45
39.09
43.79
46.53
47.65
47.60
46.78
45.28
42.97
39.66
35.30
30.25
25.32
21.63
20.25
21.67
25.63
31.03
36.41
40.58
43.15
44.76
46.74
50.51
56.97
66.12
77.23
89.15
100.74
111.06
119.37
125.02
127.53
126.66
122.62
116.11
108.13
99.56
90.77
81.52
71.10
58.72
44.05
27.53
10.38
-5.57
-18.55
-27.27
-31.21
-30.65
-26.44
-19.66
-11.46
-3.05
4.28
9.27
10.76
8.04
0.98
-9.79
-23.02
-36.90
-49.37
-58.40
-62.43
-60.75
-53.75
-43.04
-31.04
-20.52
-13.84
-12.45
-16.62
-25.46
-37.23
-49.75
-60.95
-69.29
-73.96
-74.92
-72.70
-68.05
-61.87
-55.11
-48.79
-43.78
-40.50
-38.49
-36.18
-31.42
-22.18
-7.65
11.33
32.58
53.39
71.63
86.25
97.08
103.99
106.21
102.13
89.95
68.87
40.19
7.73
-22.53
-43.71
-49.92
-37.99
-8.88
31.96
75.37
110.40
127.08
119.19
86.32
34.49
-24.83
-77.48
-110.19
-114.42
-89.08
-41.31
15.26
64.36
91.93
90.39
60.73
11.78
-42.92
-89.61
-118.18
-124.35
-109.78
-80.41
-44.17
-8.84
19.30
36.32
40.75
33.71
18.64
0.58
-15.02
-23.85
-24.09
-16.77
-4.99
7.64
18.67
27.62
35.68
44.39
54.32
64.28
71.83
74.63
71.84
64.96
57.39
53.04
54.57
62.29
73.95
85.59
92.96
92.78
83.66
66.01
41.62
12.93
-17.55
-47.71
-75.85
-100.54
-120.24
-133.05
-137.06
-130.98
-115.00
-91.22
-63.06
-34.01
-6.32
19.48
43.94
67.15
87.48
101.37
104.35
92.93
66.26
26.77
-20.33
-68.17
-109.64
-138.62
-151.04
-145.70
-124.55
-92.13
-54.37
-16.94
15.98
42.03
60.16
70.04
71.69
65.86
54.52
40.94
28.94
21.54
19.80
22.48
26.69
29.14
27.40
20.46
8.81
-5.99
-21.67
-35.71
-45.91
-50.90
-50.52
-45.87
-38.74
-30.67
-22.02
-11.61
2.97
24.11
52.74
87.04
122.08
150.57
164.61
158.00
128.38
78.50
16.15
-47.34
-99.76
-131.10
-136.15
-115.83
-76.79
-29.37
15.35
48.51
65.30
65.37
51.90
29.97
4.96
-18.53
-37.17
-49.02
-53.64
-52.10
-46.84
-40.98
-37.36
-37.35
-40.27
-43.50
-43.73
-38.38
-26.82
-10.61
7.17
23.15
34.76
40.78
41.27
37.14
29.70
20.40
10.69
1.90
-5.00
-9.64
-12.36
-14.05
-15.91
-18.93
-23.58
-29.53
-35.68
-40.45
-42.32
-40.47
-35.12
-27.52
-19.37
-12.09
-6.26
-1.61
2.53
6.53
9.98
11.83
10.88
6.60
-0.29
-7.71
-12.76
-12.66
-5.75
7.77
25.97
45.83
64.23
78.84
88.33
92.06
89.81
81.66
68.42
52.14
35.88
22.71
14.08
8.73
2.93
-7.62
-25.41
-49.41
-75.08
-96.20
-107.29
-105.65
-91.84
-68.97
-41.26
-12.92
12.54
32.48
45.14
49.80
47.01
38.60
27.49
17.04
10.18
8.45
11.41
16.48
19.87
18.17
10.22
-1.73
-12.22
-14.25
-2.00
26.64
68.66
116.38
159.46
187.83
194.48
177.29
139.29
87.56
31.03
-21.80
-64.70
-94.41
-110.46
-114.32
-108.55
-96.22
-80.65
-65.05
-52.40
-45.11
-44.99
-53.03
-69.05
-91.27
-115.89
-137.24
-149.01
-146.22
-127.27
-95.05
-56.46
-20.40
4.88
14.13
6.14
-16.24
-47.26
-79.82
-107.09
-123.99
-128.26
-120.59
-104.07
-82.83
-60.66
-39.98
-21.60
-5.09
10.47
25.97
41.83
58.03
73.98
88.62
100.59
108.51
111.43
109.26
103.01
94.56
86.22
80.04
77.07
76.94
77.78
76.90
71.67
60.73
44.63
25.90
8.16
-5.13
-11.80
-11.60
-5.83
3.37
14.01
24.72
34.80
43.70
50.73
54.94
55.43
51.89
44.93
36.15
27.47
20.40
15.26
11.05
5.96
-1.68
-12.42
-25.39
-38.64
-50.20
-59.02
-65.54
-71.23
-77.70
-85.58
-93.92
-100.44
-102.36
-97.54
-85.33
-66.80
-44.33
-20.74
1.53
21.06
37.56
51.61
64.11
75.63
85.91
93.49
95.93
90.43
75.07
50.00
18.26
-14.53
-41.50
-56.66
-56.89
-43.05
-19.77
6.16
27.82
40.20
41.34
32.57
17.50
0.64
-14.15
-24.70
-30.78
-33.63
-35.04
-36.55
-38.98
-42.44
-46.56
-50.68
-53.99
-55.41
-53.73
-47.87
-37.38
-22.83
-5.90
11.09
25.76
36.46
42.67
44.84
44.08
41.47
37.73
33.13
27.73
21.69
15.42
9.47
4.26
-0.15
-4.13
-8.36
-13.60
-20.56
-29.74
-41.37
-55.45
-71.66
-89.37
-107.73
-125.78
-142.65
-157.73
-170.67
-181.25
-189.22
-194.16
-195.48
-192.54
-184.99
-173.10
-158.03
-141.69
-126.34
-114.08
-106.30
-103.22
-103.73
-105.49
-105.31
-99.84
-86.43
-64.12
-34.13
0.15
34.22
63.78
86.14
101.07
110.63
118.39
128.37
144.15
167.90
199.39
235.06
268.14
290.09
293.56
275.68
240.00
195.85
155.02
127.54
118.10
125.16
142.53
162.23
177.39
183.84
180.27
167.47
147.32
121.83
92.64
60.91
27.68
-5.34
-35.39
-59.02
-73.11
-76.29
-69.84
-57.34
-43.06
-30.32
-20.47
-13.22
-8.03
-5.49
-7.70
-17.37
-35.96
-62.04
-90.86
-115.52
-129.12
-127.11
-108.63
-76.49
-35.97
6.84
46.38
78.42
100.18
110.22
108.25
95.13
72.79
44.14
12.74
-17.85
-44.65
-65.84
-80.79
-89.90
-93.89
-93.24
-88.02
-78.13
-63.90
-46.48
-27.74
-9.59
6.85
21.76
36.25
51.41
67.23
82.27
94.14
100.78
101.52
97.61
91.67
86.55
84.17
84.93
88.03
92.22
96.57
100.64
104.13
106.19
104.96
97.85
82.39
57.37
23.65
-15.61
-55.58
-90.77
-116.30
-128.89
-127.43
-113.09
-88.87
-58.96
-27.77
0.73
23.61
39.04
46.26
45.40
37.32
23.57
6.13
-12.93
-31.91
-49.80
-66.21
-81.13
-94.43
-105.64
-114.05
-119.01
-120.22
-117.80
-112.04
-103.23
-91.55
-77.33
-61.38
-45.22
-30.79
-19.84
-13.24
-10.62
-10.59
-11.37
-11.47
-10.13
-7.20
-2.93
2.39
8.54
15.33
22.66
30.56
39.29
49.18
60.42
72.66
84.95
96.03
104.65
109.72
110.23
105.01
92.79
72.82
45.63
13.61
-19.25
-48.43
-70.05
-81.71
-82.47
-72.45
-52.40
-23.87
10.28
45.71
77.24
100.17
111.66
111.36
100.97
83.18
60.64
35.56
9.98
-13.82
-33.29
-46.14
-51.21
-49.15
-42.26
-33.75
-26.51
-22.16
-20.63
-20.59
-20.31
-18.59
-15.39
-11.91
-10.01
-11.50
-17.35
-27.40
-40.65
-55.83
-72.11
-89.39
-108.23
-129.31
-152.84
-178.14
-203.47
-226.13
-242.76
-249.73
-243.91
-223.53
-189.12
-143.87
-93.14
-43.06
1.20
36.76
63.23
81.91
94.53
102.29
105.76
105.33
101.94
97.31
93.39
91.51
91.57
92.03
90.49
84.81
74.22
59.81
44.23
30.63
21.30
16.78
15.83
16.43
17.15
18.12
20.95
27.58
38.83
53.45
68.28
79.48
84.24
81.91
74.21
64.39
55.69
50.06
47.43
45.85
42.32
34.00
19.33
-1.33
-25.73
-50.41
-71.71
-86.79
-94.20
-93.98
-87.26
-75.64
-60.73
-43.83
-26.00
-8.13
8.97
24.56
38.08
49.24
57.89
64.01
67.64
68.99
68.68
67.76
67.51
69.00
72.53
77.33
81.79
84.00
82.50
76.78
67.41
55.69
43.12
30.85
19.29
8.10
-3.61
-16.80
-31.82
-47.94
-63.14
-74.50
-79.13
-75.27
-63.18
-45.40
-26.21
-10.46
-2.19
-3.43
-13.48
-28.93
-44.46
-54.36
-54.33
-43.13
-23.19
-0.02
19.58
29.98
28.67
17.22
0.78
-13.46
-18.53
-9.66
14.23
50.13
91.55
130.21
158.14
169.76
163.01
139.48
103.41
60.19
14.97
-28.12
-66.17
-97.18
-119.60
-132.07
-133.50
-123.37
-102.27
-72.07
-35.94
2.03
37.42
65.93
83.94
88.79
79.37
56.51
23.19
-15.77
-54.73
-88.50
-113.43
-127.92
-132.23
-127.94
-117.40
-103.30
-88.39
-74.81
-63.47
-53.62
-43.08
-29.36
-11.16
10.63
32.84
51.05
61.16
60.89
50.36
31.99
9.71
-12.06
-29.29
-39.09
-40.07
-32.47
-17.87
1.23
21.98
41.53
57.31
67.26
70.05
65.38
54.18
38.51
21.16
5.03
-7.62
-15.65
-19.20
-19.46
-18.23
-17.29
-17.93
-20.68
-25.26
-30.87
-36.49
-41.17
-44.15
-44.88
-42.99
-38.34
-31.09
-21.78
-11.23
-0.44
9.53
17.71
23.27
25.67
24.91
21.84
18.21
16.36
18.45
25.59
37.18
50.83
63.03
70.26
70.06
61.77
46.53
26.85
5.77
-13.85
-29.95
-41.41
-47.96
-49.91
-47.85
-42.44
-34.44
-24.68
-14.24
-4.37
3.68
8.89
10.72
9.27
5.19
-0.45
-6.48
-11.93
-16.27
-19.44
-21.74
-23.58
-25.21
-26.58
-27.33
-26.92
-24.88
-20.92
-14.99
-7.38
1.36
10.43
18.83
25.48
29.46
30.11
27.19
20.92
11.82
0.65
-11.64
-23.97
-35.01
-43.28
-47.38
-46.31
-39.89
-28.88
-14.85
0.18
14.27
25.96
34.49
39.79
42.20
42.26
40.31
36.27
29.52
19.18
4.60
-13.79
-33.93
-52.15
-64.05
-65.89
-56.17
-36.42
-10.98
14.24
33.61
43.42
42.88
34.14
21.41
9.56
2.71
3.04
10.22
21.55
32.82
39.72
39.17
30.39
14.98
-3.64
-21.57
-35.59
-44.06
-47.11
-46.12
-42.94
-39.14
-35.60
-32.49
-29.60
-26.77
-24.14
-22.19
-21.46
-22.17
-23.90
-25.58
-25.73
-23.01
-16.66
-6.88
5.23
17.90
29.28
37.97
43.43
46.09
47.09
47.80
49.21
51.52
54.15
55.89
55.43
51.61
43.69
31.50
15.59
-2.47
-20.16
-34.29
-41.90
-41.28
-32.80
-18.97
-3.67
9.22
17.11
19.36
17.17
12.80
8.63
6.40
6.97
10.32
15.74
22.06
27.92
32.03
33.51
32.06
28.06
22.50
16.60
11.57
8.19
6.60
6.12
5.46
3.07
-2.17
-10.40
-20.55
-30.62
-38.49
-42.80
-43.49
-41.76
-39.43
-38.08
-38.35
-39.83
-41.39
-41.72
-39.87
-35.49
-28.98
-21.27
-13.57
-7.00
-2.28
0.49
1.76
2.21
2.53
3.11
4.06
5.41
7.12
9.12
11.07
12.36
12.26
10.23
6.33
1.25
-3.98
-8.43
-11.70
-14.04
-16.04
-18.34
-21.22
-24.66
-28.36
-31.96
-35.10
-37.35
-38.23
-37.18
-33.79
-28.03
-20.41
-11.98
-4.07
2.07
5.71
6.84
6.23
5.21
5.28
7.72
13.33
22.11
33.23
45.02
55.25
61.46
61.62
54.80
41.88
25.65
10.43
0.97
0.87
11.32
30.49
54.00
76.41
92.88
100.51
98.73
88.91
73.43
54.94
35.97
18.87
5.75
-1.82
-3.19
1.02
9.05
18.60
27.56
34.60
39.45
42.68
45.44
49.23
55.62
65.99
80.96
99.86
120.31
138.44
149.82
150.79
139.63
117.14
86.26
51.20
16.20
-15.44
-41.99
-63.29
-80.49
-95.57
-110.50
-126.48
-143.43
-160.15
-174.91
-186.37
-194.09
-198.42
-200.10
-199.59
-196.51
-189.70
-177.95
-160.52
-137.85
-111.16
-82.05
-52.34
-23.59
3.46
29.07
53.79
77.82
99.84
117.61
128.76
131.01
123.11
106.37
84.91
64.05
48.46
38.94
33.23
27.09
15.21
-6.34
-37.07
-71.07
-99.62
-114.20
-111.45
-92.11
-59.88
-21.40
14.97
41.94
54.93
51.29
30.74
-7.29
-60.52
-114.46
-148.92
-151.92
-128.18
-91.40
-60.55
-35.26
-14.59
1.01
9.76
9.34
-5.50
-38.35
-88.23
-149.35
-211.52
-264.98
-300.67
-312.58
-300.84
-271.94
-234.56
-195.63
-158.52
-122.76
-87.94
-53.54
-19.56
12.84
42.08
67.91
91.69
115.04
139.01
162.61
184.90
206.09
227.15
248.70
270.48
290.57
305.49
311.19
303.67
280.87
243.41
194.49
139.15
83.65
34.46
-3.07
-25.64
-32.94
-27.25
-12.72
5.60
22.95
35.71
42.28
43.20
40.72
37.56
35.57
34.61
32.58
26.50
14.24
-4.11
-25.92
-46.83
-62.34
-69.26
-66.62
-55.63
-39.11
-20.72
-4.37
6.46
9.22
2.86
-11.73
-31.79
-53.23
-71.71
-83.72
-87.64
-83.99
-75.32
-65.35
-57.88
-55.61
-59.16
-66.63
-73.88
-75.51
-66.44
-43.44
-6.21
42.38
96.96
150.94
197.92
232.94
253.29
258.70
251.13
233.98
211.13
185.82
159.96
133.93
107.11
78.85
49.27
19.55
-8.36
-32.56
-51.88
-66.09
-75.61
-80.96
-82.19
-78.68
-69.47
-53.76
-31.48
-3.71
27.16
57.55
83.15
99.62
103.39
92.49
67.12
29.77
-15.25
-62.52
-106.38
-141.81
-165.08
-174.28
-169.61
-153.39
-129.66
-103.39
-79.28
-60.66
-48.80
-42.76
-40.05
-37.69
-33.24
-25.54
-14.78
-2.01
11.53
24.91
37.70
49.63
60.25
68.87
75.02
79.17
83.23
90.22
103.33
124.55
153.68
188.05
223.10
253.41
273.78
279.98
269.40
241.50
198.06
143.17
82.54
22.37
-32.22
-78.40
-116.06
-147.29
-175.19
-202.45
-230.16
-257.21
-280.28
-294.58
-295.18
-278.62
-244.38
-195.69
-139.33
-84.29
-39.62
-12.21
-5.07
-16.64
-41.42
-71.44
-98.42
-115.74
-119.78
-110.30
-90.01
-63.34
-35.07
-9.29
10.99
23.72
27.53
21.65
6.32
-16.53
-42.85
-66.69
-81.64
-82.88
-69.15
-43.53
-12.51
16.32
36.76
45.76
43.73
33.62
19.45
5.23
-5.66
-10.63
-8.00
2.69
20.42
42.73
66.14
87.08
102.77
111.77
114.12
111.16
104.99
97.92
91.71
87.04
83.31
79.02
72.50
62.71
49.80
35.11
20.64
8.22
-1.18
-7.86
-13.22
-19.18
-27.39
-38.59
-52.34
-67.16
-81.09
-92.23
-99.09
-100.74
-96.88
-87.85
-74.80
-59.68
-45.00
-33.27
-26.16
-23.86
-24.91
-26.62
-26.10
-21.25
-11.53
2.08
17.48
32.25
44.44
52.89
57.38
58.44
57.08
54.62
52.40
51.56
52.78
55.95
60.05
63.32
63.70
59.41
49.52
34.23
14.71
-7.20
-29.58
-50.79
-69.69
-85.57
-97.97
-106.48
-110.77
-110.76
-106.83
-100.02
-91.97
-84.61
-79.63
-77.83
-78.90
-81.48
-83.66
-83.65
-80.31
-73.28
-62.65
-48.36
-29.69
-5.31
26.14
65.10
110.29
158.50
205.24
245.68
275.72
292.47
294.44
281.38
254.27
215.43
168.36
117.46
67.19
21.21
-18.29
-50.60
-76.07
-95.43
-109.30
-118.09
-122.15
-121.96
-118.11
-111.19
-101.59
-89.45
-74.65
-57.04
-36.60
-13.55
11.48
37.44
62.83
85.81
104.25
115.80
118.20
109.56
88.90
56.59
14.84
-32.38
-79.68
-121.08
-151.19
-166.29
-165.43
-150.80
-127.58
-102.82
-83.61
-75.08
-78.72
-91.72
-107.81
-119.14
-118.63
-101.94
-68.44
-21.17
34.02
89.76
138.44
173.40
189.99
186.28
163.37
125.10
77.38
27.28
-17.79
-50.90
-66.54
-61.70
-37.03
2.58
48.63
90.91
120.27
131.17
123.06
100.00
68.90
37.22
10.90
-6.71
-15.07
-15.93
-12.55
-8.74
-7.91
-12.32
-22.51
-37.26
-53.98
-69.42
-80.55
-85.26
-82.73
-73.60
-59.71
-43.72
-28.45
-16.19
-8.15
-4.05
-2.17
0.24
6.22
18.22
37.19
62.04
89.63
115.32
134.11
142.05
137.26
120.43
94.57
64.09
33.51
6.52
-14.87
-30.41
-41.28
-49.35
-56.29
-62.85
-68.53
-71.96
-71.50
-66.19
-56.21
-42.95
-28.59
-15.37
-5.04
1.57
4.45
4.19
1.62
-2.50
-7.67
-13.62
-20.15
-26.93
-33.24
-38.00
-39.99
-38.29
-32.71
-24.02
-13.73
-3.57
5.15
11.94
16.98
20.78
23.54
24.84
23.79
19.57
12.11
2.51
-6.88
-12.94
-12.38
-2.65
17.18
45.72
78.84
110.07
131.85
137.55
123.66
91.35
46.53
-1.63
-43.27
-70.73
-80.51
-73.74
-55.29
-31.84
-9.84
5.92
13.10
11.65
3.34
-9.02
-22.29
-33.63
-41.04
-43.68
-41.96
-37.32
-31.66
-26.65
-23.18
-21.11
-19.46
-16.88
-12.17
-4.73
5.26
16.88
28.60
38.71
45.66
48.45
46.94
41.89
34.74
27.16
20.59
15.84
13.05
11.81
11.39
11.01
9.94
7.49
3.18
-3.19
-11.37
-20.61
-29.75
-37.61
-43.29
-46.41
-47.08
-45.80
-43.12
-39.61
-35.78
-32.02
-28.57
-25.35
-22.07
-18.25
-13.60
-8.20
-2.56
2.65
6.82
9.74
11.57
12.61
13.05
12.75
11.39
8.70
4.77
0.23
-3.82
-6.11
-5.55
-1.72
4.90
13.03
20.87
26.79
29.75
29.57
26.78
22.22
16.65
10.60
4.42
-1.45
-6.41
-9.90
-11.75
-12.46
-13.22
-15.40
-19.88
-26.51
-34.00
-40.43
-44.01
-43.78
-39.99
-33.96
-27.47
-22.33
-19.77
-20.37
-24.00
-29.90
-36.89
-43.59
-48.84
-52.29
-54.81
-58.58
-66.54
-81.34
-104.18
-133.91
-166.87
-197.53
-219.75
-228.23
-219.86
-194.31
-154.08
-103.77
-48.90
5.54
56.28
102.12
143.39
180.45
212.39
236.43
248.88
246.84
229.95
200.99
164.96
127.43
92.95
64.67
44.83
35.43
38.08
52.89
77.16
105.11
129.35
143.53
144.96
135.47
120.31
105.72
96.43
94.30
98.35
105.64
112.31
114.28
107.71
89.75
59.45
18.69
-27.50
-71.72
-105.98
-123.96
-122.75
-103.61
-71.27
-32.41
6.13
38.70
61.50
72.52
71.11
57.75
33.87
1.94
-34.56
-71.67
-105.57
-133.20
-152.63
-162.84
-163.40
-154.28
-136.05
-110.32
-80.09
-49.65
-23.70
-6.11
1.35
-0.43
-8.23
-17.64
-24.49
-26.12
-21.90
-13.20
-2.67
6.71
12.59
13.84
10.91
5.57
0.57
-1.01
3.48
15.40
34.07
56.22
76.36
88.05
85.84
67.44
35.02
-5.09
-44.37
-75.05
-92.69
-97.23
-92.31
-83.07
-73.93
-67.29
-63.58
-62.20
-62.48
-64.08
-66.64
-69.24
-70.36
-68.46
-63.03
-55.33
-48.29
-45.32
-48.79
-58.85
-73.18
-87.76
-98.03
-100.14
-91.75
-72.54
-44.31
-10.72
23.44
53.28
75.13
87.37
90.78
88.00
82.54
77.64
75.49
76.94
81.58
88.15
94.95
100.31
102.87
101.83
97.04
88.98
78.78
67.95
58.12
50.51
45.41
42.10
39.03
34.54
27.59
18.21
7.59
-2.56
-10.66
-15.87
-18.31
-18.84
-18.56
-18.21
-17.75
-16.46
-13.38
-7.98
-0.67
7.23
13.93
17.92
18.45
15.53
9.55
0.72
-11.11
-26.22
-44.69
-65.87
-88.25
-109.50
-126.82
-137.29
-138.36
-128.38
-107.26
-76.94
-41.32
-5.54
25.46
48.39
62.65
70.23
74.54
78.73
84.37
91.04
96.97
100.21
99.43
94.09
83.78
67.71
44.60
13.56
-24.75
-67.38
-109.39
-145.20
-170.36
-182.85
-183.17
-173.41
-155.90
-132.38
-104.09
-72.59
-40.57
-11.87
9.49
20.89
22.33
16.54
7.94
0.84
-2.08
-0.51
3.76
7.85
8.84
4.55
-5.88
-21.84
-41.21
-60.73
-76.66
-85.76
-86.10
-77.37
-60.59
-37.51
-10.01
20.01
50.42
78.80
102.56
119.58
128.68
129.74
123.18
109.37
88.38
60.52
27.42
-7.07
-36.84
-54.85
-55.30
-35.90
0.94
48.33
96.91
137.59
164.25
175.28
173.48
164.33
153.51
144.66
138.48
133.30
126.81
117.79
107.12
97.45
91.96
92.89
100.62
113.72
129.65
145.68
159.44
169.05
173.03
170.28
160.33
143.81
122.51
99.27
77.35
59.56
47.63
41.68
40.12
39.94
37.31
28.49
10.76
-16.95
-54.05
-98.66
-148.11
-199.16
-247.74
-288.77
-316.42
-325.41
-312.88
-280.33
-234.19
-184.75
-143.28
-118.53
-113.87
-126.06
-146.23
-162.63
-164.44
-145.07
-104.36
-48.42
12.51
67.55
108.53
131.99
139.36
135.32
125.62
114.95
106.06
99.65
95.01
90.69
85.15
77.29
66.83
54.57
42.33
32.23
25.66
22.28
19.59
13.30
-1.41
-28.10
-66.99
-113.68
-159.21
-192.28
-203.06
-187.12
-147.78
-95.28
-43.07
-2.68
20.20
26.69
22.65
14.75
7.18
0.39
-7.52
-18.31
-31.42
-43.61
-50.42
-48.32
-36.50
-17.23
5.43
27.56
46.88
63.02
76.46
87.16
93.79
94.25
87.14
73.04
54.78
36.19
20.23
7.57
-3.63
-16.47
-33.46
-55.00
-78.90
-101.02
-116.82
-122.95
-118.42
-104.89
-86.15
-66.98
-51.79
-43.42
-42.57
-47.92
-56.84
-66.51
-74.79
-80.82
-84.77
-87.09
-87.59
-84.71
-75.76
-58.09
-30.72
4.49
42.77
77.96
104.70
120.19
124.74
120.91
111.91
100.43
88.34
77.10
67.89
61.25
56.11
49.53
37.30
15.93
-15.51
-54.41
-95.27
-131.36
-156.63
-166.83
-159.79
-135.32
-95.07
-42.73
16.10
74.59
126.06
165.65
191.24
203.53
204.95
198.27
185.62
168.07
145.98
119.55
89.47
57.16
24.74
-5.28
-30.52
-49.15
-60.27
-64.02
-61.53
-54.54
-45.14
-35.28
-26.53
-19.82
-15.34
-12.70
-11.09
-9.70
-7.94
-5.70
-3.33
-1.52
-1.17
-3.14
-8.02
-15.84
-25.92
-36.98
-47.40
-55.74
-61.08
-63.32
-63.10
-61.57
-60.02
-59.40
-59.95
-60.94
-60.79
-57.48
-49.29
-35.66
-17.65
1.95
19.35
30.77
33.65
27.80
15.84
2.94
-4.43
-0.42
18.09
50.03
90.06
129.76
160.14
174.21
169.04
146.33
111.73
72.99
37.77
11.83
-2.01
-3.95
3.53
16.77
32.03
46.18
57.02
63.20
64.14
59.80
50.55
36.93
19.42
-1.61
-25.81
-52.50
-80.25
-106.69
-128.69
-142.92
-146.69
-138.80
-120.11
-93.74
-64.67
-38.83
-21.64
-16.58
-24.11
-41.38
-63.06
-83.01
-96.27
-100.55
-96.39
-86.26
-72.75
-57.22
-39.45
-18.68
4.95
29.34
50.63
64.78
69.48
65.39
55.92
45.55
37.76
33.70
32.37
31.92
31.18
30.25
30.07
31.17
32.95
33.99
33.36
32.06
33.17
40.58
56.61
80.03
105.62
125.59
132.33
121.13
91.78
48.58
-0.88
-47.62
-83.23
-101.37
-99.03
-77.08
-40.25
3.79
46.16
78.63
95.31
93.66
74.69
42.59
3.77
-34.29
-64.45
-81.37
-82.78
-70.01
-47.61
-21.87
1.09
17.18
25.10
26.01
22.36
16.42
9.54
1.97
-6.59
-16.44
-27.62
-40.00
-53.45
-67.72
-82.32
-96.13
-107.65
-115.35
-118.29
-116.50
-110.89
-102.80
-93.35
-83.13
-72.18
-60.42
-47.96
-35.30
-23.20
-12.28
-2.74
5.82
14.28
23.74
35.06
48.23
61.86
73.06
77.91
72.76
55.93
29.21
-1.70
-28.45
-42.50
-38.25
-15.20
21.77
64.10
102.65
130.52
144.77
146.24
138.16
124.18
107.05
88.10
67.77
46.54
25.76
7.90
-3.84
-6.41
2.01
21.28
49.04
81.10
112.32
137.66
153.13
156.38
146.90
125.91
96.10
61.16
25.18
-8.02
-35.35
-54.65
-64.80
-65.55
-57.72
-43.33
-25.88
-10.17
-1.47
-3.97
-19.28
-45.46
-77.35
-108.04
-131.08
-142.41
-141.27
-129.92
-112.46
-93.38
-76.30
-63.35
-55.11
-50.86
-49.07
-47.91
-45.71
-41.31
-34.19
-24.45
-12.79
-0.40
11.12
20.04
25.00
25.55
22.54
17.93
14.03
12.50
13.55
15.99
17.84
17.53
14.60
9.72
3.97
-1.97
-8.26
-15.68
-24.88
-35.90
-48.07
-60.38
-72.06
-82.74
-92.39
-100.97
-108.16
-113.32
-115.64
-114.31
-108.67
-98.30
-83.00
-63.00
-38.89
-11.67
17.50
47.30
76.21
102.18
122.52
134.21
134.82
123.85
103.62
79.33
57.72
45.00
44.67
56.33
75.85
96.84
112.88
119.42
114.82
100.32
78.96
54.30
29.23
5.45
-16.40
-36.18
-53.69
-68.24
-78.70
-83.82
-82.60
-74.72
-60.64
-41.52
-18.96
5.21
29.18
51.24
69.61
82.45
87.88
84.44
71.54
50.03
21.93
-10.26
-44.55
-80.15
-116.95
-154.34
-189.69
-217.89
-232.25
-226.86
-198.97
-150.14
-85.73
-13.14
60.05
127.20
182.85
222.72
243.95
245.68
229.54
199.24
159.38
114.02
65.85
16.49
-32.31
-77.60
-114.99
-139.66
-148.16
-139.96
-118.15
-88.97
-60.25
-39.51
-31.97
-39.16
-58.31
-82.85
-104.16
-113.90
-106.62
-81.30
-41.33
7.39
58.98
109.40
156.52
198.49
232.06
252.06
252.96
231.74
190.05
134.04
71.83
10.39
-46.06
-95.06
-133.80
-157.91
-162.70
-146.52
-113.72
-74.80
-42.96
-28.92
-36.66
-62.67
-98.25
-133.49
-160.59
-174.90
-174.29
-157.91
-125.46
-77.41
-15.82
54.79
127.20
191.82
238.41
258.41
247.43
206.83
143.84
69.67
-3.49
-65.59
-110.76
-137.67
-148.50
-147.22
-137.94
-124.03
-107.86
-91.28
-76.17
-64.60
-58.49
-58.64
-63.61
-69.54
-70.91
-62.18
-39.69
-2.73
46.19
101.91
157.73
206.52
241.74
258.48
254.43
230.42
190.44
140.78
88.70
40.79
1.80
-26.07
-43.04
-51.20
-53.68
-53.77
-54.21
-56.67
-61.42
-67.30
-72.02
-72.82
-67.28
-54.32
-34.76
-11.37
11.84
30.77
42.49
45.95
41.95
32.51
19.98
6.48
-6.41
-17.47
-25.71
-30.39
-31.20
-28.55
-23.60
-18.15
-14.02
-12.66
-14.57
-19.20
-24.96
-29.85
-31.95
-30.12
-24.39
-15.92
-6.86
0.12
2.50
-1.39
-11.49
-25.34
-38.26
-44.47
-39.29
-21.38
5.94
35.49
58.60
68.49
62.78
44.04
18.42
-6.86
-25.90
-35.35
-34.57
-25.24
-10.78
4.12
14.31
15.40
5.44
-13.88
-37.14
-56.70
-65.23
-58.26
-35.63
-1.21
38.63
77.25
109.29
131.44
142.37
142.41
133.27
117.86
99.85
82.86
69.43
60.04
52.83
44.07
29.50
5.93
-27.58
-69.10
-114.19
-156.93
-191.17
-211.82
-215.67
-201.84
-171.65
-128.31
-76.30
-20.99
32.01
77.41
110.87
129.55
132.33
119.75
93.79
57.52
14.89
-29.37
-70.04
-101.83
-120.10
-121.78
-105.93
-74.03
-29.60
22.21
75.14
122.30
156.49
170.92
160.34
122.62
60.70
-16.52
-94.97
-158.26
-191.77
-186.90
-143.83
-71.83
12.71
90.30
143.11
159.58
137.69
85.91
21.27
-35.57
-66.69
-62.98
-27.33
26.45
78.87
111.93
115.40
89.56
43.89
-7.35
-50.56
-76.88
-84.21
-76.43
-61.22
-47.20
-41.41
-47.55
-65.30
-90.77
-117.50
-138.32
-147.16
-140.83
-119.99
-89.28
-56.07
-28.31
-11.88
-8.43
-14.63
-23.49
-27.27
-20.80
-3.75
19.39
41.65
57.06
63.52
63.60
62.96
67.33
79.62
98.63
119.71
136.90
144.99
140.95
124.14
95.99
59.82
20.78
-14.58
-39.31
-47.92
-38.15
-11.72
26.37
69.64
111.90
148.25
175.00
189.24
188.81
172.85
142.52
101.21
53.71
4.82
-41.72
-83.48
-118.82
-146.25
-164.15
-171.33
-167.79
-155.12
-136.12
-113.68
-89.56
-63.89
-35.47
-2.96
33.75
72.66
109.78
140.13
159.19
164.10
154.19
130.80
96.70
55.52
11.48
-30.72
-66.22
-90.60
-100.94
-96.85
-80.94
-58.44
-35.83
-18.79
-10.48
-10.69
-16.26
-22.78
-26.68
-26.75
-24.53
-23.25
-25.86
-33.26
-43.40
-51.73
-52.75
-41.93
-17.26
19.99
65.33
111.89
151.73
177.38
183.30
166.80
128.44
71.90
3.57
-67.86
-132.17
-179.07
-200.34
-192.26
-157.41
-104.55
-46.38
4.31
38.41
52.62
49.20
33.73
12.40
-9.79
-29.51
-44.65
-53.90
-56.92
-54.91
-50.62
-47.69
-49.07
-55.46
-64.93
-73.77
-78.28
-76.46
-68.65
-57.08
-44.63
-33.67
-25.40
-19.91
-16.47
-13.99
-11.37
-7.79
-3.11
2.08
6.57
9.20
9.46
7.89
5.84
4.77
5.41
7.42
9.56
10.26
8.25
2.87
-5.78
-16.80
-28.39
-37.94
-42.31
-38.57
-24.92
-1.19
31.05
69.18
110.32
151.80
191.08
225.36
251.34
265.66
265.68
250.50
221.45
181.94
136.73
90.94
49.06
14.24
-12.08
-30.18
-41.54
-48.24
-52.31
-55.33
-58.47
-62.64
-68.71
-77.43
-89.07
-102.92
-117.04
-128.42
-133.88
-131.22
-120.24
-103.07
-83.67
-66.42
-54.67
-49.49
-49.64
-52.24
-54.18
-53.30
-48.98
-41.97
-33.69
-25.49
-18.36
-12.91
-9.56
-8.56
-9.76
-12.10
-13.55
-11.45
-3.59
10.55
29.07
47.84
61.86
67.06
61.94
48.10
29.54
11.14
-3.08
-11.02
-12.73
-9.87
-4.74
0.57
4.76
7.49
9.07
10.13
11.09
12.00
12.44
11.87
9.90
6.47
1.80
-3.90
-10.51
-17.62
-24.00
-27.07
-23.19
-8.85
17.55
54.21
95.70
134.32
162.52
175.21
171.13
152.50
123.67
89.49
54.17
20.92
-7.94
-30.69
-46.22
-54.14
-54.83
-49.44
-39.72
-27.83
-16.17
-7.20
-3.03
-5.01
-13.38
-27.12
-44.13
-61.58
-76.19
-84.56
-83.72
-71.88
-49.43
-19.56
12.01
38.40
53.67
54.76
42.51
21.13
-3.45
-25.71
-42.08
-51.56
-55.19
-55.10
-53.41
-51.61
-50.31
-49.39
-48.31
-46.22
-42.05
-34.60
-22.82
-6.42
13.49
34.03
51.04
60.39
59.68
49.52
33.76
18.17
8.26
7.18
14.63
27.28
40.40
49.86
53.70
52.58
49.22
46.99
48.39
53.97
61.94
68.77
70.38
63.70
47.89
24.89
-0.98
-24.19
-39.64
-44.29
-38.17
-24.58
-9.32
1.07
1.25
-10.95
-33.58
-61.00
-85.60
-100.29
-100.75
-86.59
-61.12
-29.95
0.91
26.62
44.37
53.40
54.56
49.57
40.35
28.62
15.65
2.22
-11.25
-24.36
-36.47
-46.53
-53.20
-55.12
-51.31
-41.41
-25.75
-5.39
17.95
41.82
63.10
78.14
83.26
75.45
53.31
17.74
-27.65
-76.73
-121.74
-154.64
-168.87
-160.92
-131.47
-85.44
-31.02
22.43
66.59
96.05
109.01
106.79
92.49
69.52
40.75
8.35
-25.60
-58.36
-86.01
-103.72
-106.86
-92.58
-61.13
-16.43
34.66
84.13
125.16
153.76
169.52
174.85
173.29
167.74
159.28
147.03
128.96
103.24
69.43
29.13
-14.18
-55.90
-91.47
-117.37
-131.70
-134.26
-126.23
-109.91
-88.41
-65.48
-45.11
-30.83
-24.74
-26.79
-34.70
-44.69
-52.88
-56.69
-55.59
-50.94
-45.01
-39.78
-36.20
-33.99
-32.23
-30.00
-26.81
-22.63
-17.64
-11.92
-5.46
1.62
8.77
14.99
19.11
20.36
18.80
15.47
12.05
10.27
11.25
15.17
21.25
28.12
34.31
38.67
40.68
40.48
38.91
37.30
37.15
39.64
44.99
51.96
57.94
59.72
54.89
43.14
26.92
10.80
-0.32
-3.25
1.99
12.13
21.94
26.19
21.43
6.85
-15.79
-42.69
-68.70
-87.89
-94.46
-84.06
-55.50
-12.07
38.28
84.62
116.21
125.98
113.02
82.85
45.32
11.12
-11.97
-21.21
-19.05
-11.23
-3.93
-1.21
-3.81
-9.50
-14.55
-15.66
-11.33
-2.36
8.42
17.12
19.81
13.61
-2.45
-26.87
-55.58
-82.59
-101.39
-106.93
-97.33
-74.81
-45.20
-16.27
4.62
12.68
6.96
-9.56
-31.18
-51.25
-64.19
-67.03
-60.13
-46.78
-31.96
-20.43
-15.28
-17.03
-23.98
-33.32
-42.41
-49.71
-54.78
-57.75
-58.64
-57.05
-52.34
-44.24
-33.23
-20.53
-7.58
4.61
15.89
26.83
38.22
50.37
62.84
74.58
84.42
91.69
96.42
99.25
100.93
101.97
102.38
101.85
99.92
96.20
90.35
82.11
71.18
57.49
41.47
24.42
8.54
-3.47
-9.18
-7.31
1.50
14.43
26.86
33.39
29.31
12.14
-17.25
-54.32
-91.69
-120.96
-134.99
-130.03
-106.85
-70.42
-28.36
11.37
42.66
62.56
71.47
72.15
68.18
62.38
55.89
48.22
37.98
24.07
6.65
-12.46
-30.20
-43.17
-48.86
-46.50
-37.47
-24.98
-13.09
-5.49
-4.39
-9.90
-20.03
-31.56
-41.07
-46.09
-45.65
-40.34
-31.74
-21.81
-12.41
-5.15
-1.43
-2.41
-8.76
-20.37
-35.90
-52.82
-67.76
-77.25
-78.62
-70.93
-55.27
-34.60
-12.87
6.17
19.84
26.94
27.41
21.93
11.53
-2.23
-16.95
-29.30
-35.62
-33.18
-21.49
-2.87
18.05
35.89
46.51
48.31
42.63
33.07
24.14
19.77
22.14
31.14
44.48
58.34
68.47
71.38
65.35
50.93
30.84
9.04
-10.55
-25.25
-34.34
-38.77
-40.29
-40.21
-38.76
-35.19
-28.70
-19.43
-9.00
-0.09
4.64
3.74
-2.35
-11.43
-20.14
-24.87
-22.63
-11.78
7.31
31.99
57.49
77.95
88.06
84.87
69.03
44.60
17.76
-5.26
-20.16
-25.46
-22.40
-13.98
-3.75
5.03
9.90
9.28
2.69
-9.26
-24.73
-40.94
-54.74
-63.39
-65.36
-60.75
-51.34
-39.93
-29.63
-22.84
-20.65
-22.57
-26.86
-31.33
-34.09
-34.25
-31.89
-27.78
-22.65
-16.70
-9.48
-0.11
12.04
26.96
43.67
60.46
75.29
86.43
93.03
95.35
94.66
92.59
90.43
88.53
86.08
81.45
72.88
59.22
40.45
17.85
-6.32
-29.34
-48.79
-63.16
-72.29
-77.35
-80.32
-83.22
-87.22
-92.18
-96.62
-98.27
-94.95
-85.40
-69.76
-49.44
-26.52
-2.90
20.40
43.44
66.80
90.59
113.45
132.16
142.36
140.11
123.62
94.36
56.84
17.25
-18.39
-45.75
-62.72
-69.18
-66.38
-56.31
-41.61
-25.55
-11.76
-3.65
-3.43
-11.28
-25.09
-41.06
-54.93
-63.34
-64.92
-60.51
-52.55
-43.95
-36.85
-31.95
-28.63
-25.65
-22.08
-17.82
-13.52
-9.93
-7.30
-5.15
-2.63
0.87
5.18
9.49
12.82
14.83
16.17
18.24
22.61
30.27
41.25
54.68
69.29
83.77
97.03
108.19
116.38
120.90
121.25
117.46
110.13
100.23
88.69
75.93
61.65
44.88
24.47
-0.20
-28.75
-59.56
-89.80
-115.83
-133.65
-139.40
-129.91
-103.33
-59.87
-2.44
63.13
128.70
185.27
224.86
242.33
236.32
209.10
165.56
111.70
53.31
-4.79
-59.01
-106.78
-146.27
-176.30
-196.23
-206.01
-206.25
-198.10
-183.19
-163.43
-140.90
-117.59
-95.34
-75.59
-59.34
-47.06
-38.76
-34.12
-32.68
-33.79
-36.42
-39.14
-40.11
-37.64
-31.04
-21.12
-10.27
-1.53
2.78
2.33
-0.86
-3.05
-0.41
9.45
26.51
48.36
71.20
90.98
104.51
109.95
106.93
96.28
79.86
60.31
40.75
24.43
14.13
11.51
16.67
28.05
42.82
57.79
70.33
79.04
83.85
85.52
85.00
82.95
79.60
74.99
69.32
63.07
56.82
51.08
45.94
41.13
36.01
29.62
20.75
8.17
-8.95
-30.48
-55.00
-79.97
-102.56
-120.72
-133.99
-143.58
-151.62
-160.07
-169.96
-181.31
-193.51
-205.75
-216.99
-225.56
-228.72
-222.88
-204.44
-170.99
-122.27
-60.80
8.01
76.26
134.38
172.66
183.48
163.65
116.08
49.79
-22.18
-86.25
-131.90
-153.99
-153.12
-134.04
-103.32
-67.05
-29.55
6.84
41.06
72.38
99.67
121.13
134.87
139.82
136.46
127.02
114.88
103.51
95.44
91.64
91.62
93.95
96.90
98.89
98.71
95.59
89.18
79.64
67.57
53.95
39.95
26.71
15.34
7.03
3.22
5.57
15.50
33.42
58.00
86.01
112.65
132.68
141.61
136.61
116.90
83.66
39.67
-11.05
-63.70
-113.14
-154.63
-184.46
-200.61
-202.94
-193.19
-174.47
-150.49
-124.63
-99.03
-74.18
-49.35
-23.70
2.39
26.54
44.80
53.22
49.82
35.83
15.68
-4.54
-19.22
-25.05
-21.72
-11.59
1.49
13.59
21.70
24.43
22.09
16.35
9.55
4.02
1.42
2.38
6.26
11.34
15.02
14.50
7.64
-6.14
-25.22
-45.82
-62.77
-71.17
-68.00
-53.25
-29.99
-3.26
21.66
40.94
53.21
59.37
61.65
62.17
61.88
60.33
56.22
48.51
37.28
23.90
10.30
-2.25
-13.93
-26.42
-41.75
-60.72
-81.85
-101.42
-114.75
-118.18
-110.55
-93.57
-70.97
-46.84
-24.24
-4.52
12.42
27.27
40.53
52.01
60.90
65.98
66.13
60.73
50.00
35.06
17.96
1.32
-12.15
-20.25
-21.96
-17.67
-9.02
1.65
12.15
21.05
27.96
33.17
37.21
40.32
42.37
43.06
42.29
40.41
38.09
35.95
34.16
32.35
29.92
26.64
22.92
19.88
18.68
19.80
22.50
25.02
25.45
22.76
17.79
13.15
12.48
18.98
34.05
56.39
82.12
105.74
121.60
125.47
115.47
92.31
58.85
19.25
-21.82
-59.69
-89.98
-108.94
-114.05
-104.91
-83.81
-55.64
-26.88
-3.80
9.39
11.53
4.55
-7.70
-20.96
-31.86
-38.60
-41.01
-40.05
-37.20
-33.93
-31.31
-29.89
-29.78
-30.78
-32.59
-34.97
-37.64
-40.27
-42.32
-43.11
-41.99
-38.64
-33.29
-26.81
-20.45
-15.47
-12.67
-12.18
-13.29
-14.79
-15.42
-14.36
-11.67
-8.28
-5.65
-5.09
-7.16
-11.36
-16.28
-20.27
-22.13
-21.60
-19.41
-16.82
-15.05
-14.74
-15.70
-16.92
-16.75
-13.36
-5.22
8.21
26.07
46.05
65.02
80.20
90.36
96.41
101.05
107.30
116.72
128.19
137.84
140.29
130.71
106.77
69.58
23.48
-25.35
-70.62
-107.38
-132.68
-145.67
-147.06
-138.69
-123.24
-103.98
-84.45
-67.91
-56.67
-51.49
-51.35
-53.59
-54.59
-50.67
-39.15
-19.32
7.15
36.45
63.60
83.84
93.98
93.16
82.92
66.33
46.97
27.89
11.16
-2.18
-11.80
-17.64
-19.79
-18.45
-14.04
-7.42
0.21
7.52
13.45
17.56
20.06
21.60
22.77
23.71
23.97
22.84
19.78
14.88
8.98
3.42
-0.47
-1.97
-1.17
1.03
3.35
4.62
4.21
2.24
-0.62
-3.45
-5.48
-6.37
-6.25
-5.60
-5.07
-5.22
-6.34
-8.38
-11.01
-13.77
-16.18
-17.95
-18.99
-19.37
-19.22
-18.67
-17.79
-16.55
-14.85
-12.44
-9.09
-4.61
0.93
7.20
13.69
19.85
25.29
29.82
33.36
35.76
36.81
36.30
34.26
31.10
27.61
24.67
22.89
22.32
22.40
22.35
21.48
19.61
17.13
14.70
12.92
11.88
11.21
10.23
8.37
5.42
1.58
-2.53
-6.18
-8.59
-9.09
-7.25
-3.20
2.17
7.10
9.41
7.25
-0.11
-11.66
-24.94
-36.78
-44.36
-46.09
-41.95
-33.17
-21.69
-9.52
1.66
10.64
16.64
19.35
18.95
16.18
12.18
8.34
5.81
5.30
6.80
9.77
13.30
16.51
18.81
19.99
20.19
19.67
18.68
17.25
15.23
12.29
8.13
2.61
-4.15
-11.72
-19.45
-26.61
-32.68
-37.49
-41.39
-45.12
-49.51
-55.22
-62.44
-70.83
-79.61
-87.82
-94.45
-98.60
-99.65
-97.22
-91.36
-82.54
-71.54
-59.30
-46.64
-34.12
-21.97
-10.26
0.99
11.54
20.99
28.80
34.54
38.02
39.39
39.21
38.26
37.33
36.89
37.03
37.44
37.60
37.18
36.21
35.10
34.46
34.75
36.01
37.85
39.66
40.95
41.57
41.80
42.14
42.99
44.36
45.80
46.56
45.88
43.30
38.85
33.02
26.54
20.15
14.37
9.40
5.14
1.36
-2.07
-5.03
-7.16
-7.96
-7.09
-4.43
-0.23
5.04
10.82
16.57
21.82
26.08
28.84
29.57
27.96
24.09
18.59
12.56
7.27
3.77
2.58
3.52
5.83
8.46
10.43
11.12
10.40
8.63
6.41
4.44
3.20
2.70
2.45
1.50
-1.23
-6.50
-14.43
-24.33
-34.94
-44.84
-52.89
-58.49
-61.56
-62.29
-60.92
-57.53
-52.18
-45.00
-36.46
-27.34
-18.63
-11.25
-5.75
-2.21
-0.20
0.97
2.05
3.55
5.65
8.23
10.89
13.22
14.82
15.42
14.90
13.30
10.75
7.55
4.00
0.35
-3.23
-6.69
-10.03
-13.19
-15.99
-18.17
-19.49
-19.85
-19.48
-18.77
-18.24
-18.39
-19.58
-21.93
-25.30
-29.19
-32.85
-35.36
-35.95
-34.30
-30.74
-26.12
-21.50
-17.75
-15.25
-13.83
-13.03
-12.48
-12.07
-12.00
-12.55
-13.87
-15.89
-18.26
-20.58
-22.62
-24.44
-26.35
-28.71
-31.62
-34.74
-37.43
-38.95
-38.78
-36.68
-32.65
-26.75
-19.04
-9.58
1.46
13.61
26.14
38.10
48.55
56.77
62.48
65.89
67.67
68.81
70.22
72.37
75.01
77.34
78.37
77.51
74.87
71.16
67.31
63.94
61.13
58.45
55.32
51.22
45.85
39.14
31.16
22.10
12.47
3.13
-4.77
-10.08
-12.22
-11.43
-8.86
-6.16
-4.77
-5.39
-7.70
-10.64
-12.99
-14.02
-13.75
-12.79
-12.06
-12.25
-13.72
-16.57
-20.85
-26.52
-33.35
-40.56
-46.78
-50.35
-49.98
-45.38
-37.53
-28.31
-19.81
-13.52
-9.96
-8.69
-8.74
-9.04
-8.87
-7.93
-6.36
-4.54
-2.87
-1.67
-0.99
-0.68
-0.45
-0.07
0.49
1.09
1.53
1.71
1.72
1.74
1.94
2.34
2.86
3.36
3.70
3.84
3.81
3.61
3.09
1.92
-0.26
-3.64
-8.00
-12.59
-16.30
-18.04
-17.17
-13.77
-8.74
-3.44
0.76
2.90
2.65
0.26
-3.59
-8.08
-12.52
-16.48
-19.82
-22.68
-25.32
-28.06
-31.19
-34.93
-39.34
-44.16
-48.85
-52.66
-54.94
-55.52
-54.94
-54.38
-55.25
-58.51
-64.13
-70.91
-76.84
-79.85
-78.57
-72.81
-63.47
-52.14
-40.44
-29.60
-20.17
-12.04
-4.65
2.89
11.45
21.58
33.08
44.95
55.67
63.71
68.27
69.48
68.32
66.08
63.88
62.35
61.62
61.44
61.24
60.33
58.03
54.05
48.80
43.54
39.96
39.54
42.91
49.50
57.91
66.45
73.74
78.91
81.55
81.39
78.26
72.05
63.00
51.80
39.57
27.60
16.81
7.39
-1.33
-10.42
-20.51
-31.14
-40.46
-45.86
-45.02
-37.04
-22.89
-5.01
13.73
31.05
45.68
57.14
65.12
69.10
68.27
61.93
49.83
32.23
9.65
-17.28
-47.61
-79.44
-109.29
-132.31
-143.43
-139.38
-120.33
-90.42
-56.56
-25.97
-3.61
9.27
14.86
17.06
19.24
22.73
26.61
28.65
26.61
19.23
6.39
-11.16
-32.36
-55.97
-80.52
-103.85
-123.12
-135.10
-137.05
-127.66
-107.79
-80.48
-50.56
-23.71
-5.40
0.37
-7.62
-26.89
-51.17
-71.58
-79.04
-67.10
-34.18
15.85
75.08
134.30
185.85
225.35
251.80
266.40
270.97
266.97
255.37
237.22
214.13
188.21
161.48
135.21
109.64
84.21
58.40
32.39
7.28
-15.22
-33.55
-46.83
-55.02
-58.53
-57.79
-53.01
-44.37
-32.66
-19.69
-8.33
-1.82
-2.66
-11.58
-27.26
-46.78
-66.87
-84.99
-99.95
-111.60
-120.12
-125.29
-126.45
-123.02
-115.18
-104.26
-92.30
-81.15
-71.72
-63.73
-56.34
-48.99
-42.10
-36.88
-34.58
-35.50
-38.52
-41.39
-41.66
-37.90
-30.31
-20.77
-12.04
-6.63
-5.93
-9.69
-16.21
-22.99
-27.58
-28.29
-24.60
-17.22
-7.61
2.57
12.07
20.33
27.41
33.67
39.51
45.10
50.43
55.42
59.96
64.01
67.38
69.75
70.69
69.84
67.15
62.90
57.64
51.96
46.25
40.59
34.83
28.79
22.41
15.92
9.78
4.57
0.75
-1.47
-2.33
-2.38
-2.37
-2.95
-4.38
-6.50
-8.79
-10.76
-12.17
-13.22
-14.41
-16.20
-18.65
-21.33
-23.38
-23.89
-22.20
-18.06
-11.53
-2.89
7.42
18.57
29.22
37.54
41.62
40.10
32.71
20.43
5.20
-10.74
-25.26
-36.54
-43.03
-43.40
-37.03
-24.54
-8.35
7.49
18.32
20.42
12.53
-3.43
-22.89
-40.18
-50.42
-51.13
-42.85
-28.68
-13.11
-0.55
5.76
4.32
-4.67
-19.64
-38.11
-56.97
-72.90
-82.74
-84.23
-76.62
-60.94
-39.75
-16.35
6.28
26.12
42.26
54.45
62.47
65.99
65.00
60.70
56.09
55.52
63.21
81.10
107.26
135.72
158.10
166.44
155.90
126.33
81.96
29.91
-21.89
-66.10
-96.83
-110.20
-105.05
-83.83
-52.78
-21.03
1.82
8.62
-3.10
-30.50
-66.93
-104.41
-136.07
-157.55
-167.09
-165.06
-153.37
-135.09
-113.94
-93.53
-76.16
-61.96
-48.93
-34.09
-15.34
6.95
29.53
47.43
56.08
53.64
42.04
26.50
13.50
8.45
13.65
27.71
46.41
64.37
77.02
81.84
78.66
69.10
55.60
40.58
26.04
13.43
3.72
-2.57
-5.61
-6.36
-6.39
-7.39
-10.42
-15.26
-20.27
-22.88
-20.40
-10.90
6.25
30.26
59.11
89.86
119.10
143.41
159.94
167.10
164.84
154.69
139.11
120.59
100.89
80.69
59.92
38.28
15.80
-7.11
-29.81
-51.74
-72.59
-92.25
-110.75
-128.26
-145.22
-162.31
-180.20
-199.08
-218.07
-235.13
-247.42
-252.00
-246.64
-230.11
-202.20
-163.39
-114.69
-57.91
3.90
66.13
123.06
168.93
199.46
213.24
212.09
200.50
184.12
168.00
155.35
147.01
141.78
137.37
131.36
121.96
108.42
91.09
71.21
50.66
31.60
16.08
5.79
1.64
3.57
10.41
19.98
29.47
36.04
37.38
32.17
20.21
2.29
-20.05
-44.72
-69.25
-91.03
-107.68
-117.48
-119.70
-114.65
-103.38
-87.37
-68.24
-47.85
-28.41
-12.42
-2.26
0.63
-3.60
-12.95
-24.21
-33.98
-39.84
-40.90
-37.87
-32.39
-26.26
-20.80
-16.62
-13.81
-12.17
-11.49
-11.61
-12.31
-13.19
-13.65
-13.02
-10.92
-7.61
-4.07
-1.90
-2.78
-7.85
-17.17
-29.50
-42.53
-53.48
-59.87
-60.05
-53.57
-41.06
-23.94
-4.00
16.79
36.50
53.32
65.77
73.06
75.25
73.27
68.62
62.90
57.31
52.42
48.27
44.60
41.14
37.75
34.47
31.47
28.97
27.18
26.18
25.92
26.10
26.36
26.36
25.98
25.27
24.30
22.96
20.86
17.48
12.46
5.89
-1.64
-9.23
-16.04
-21.55
-25.69
-28.60
-30.50
-31.47
-31.58
-31.05
-30.38
-30.36
-31.73
-34.89
-39.49
-44.39
-47.89
-48.32
-44.62
-36.84
-26.28
-15.06
-5.47
0.78
2.96
1.22
-3.96
-12.38
-24.22
-39.51
-57.18
-74.46
-87.07
-90.62
-82.33
-62.39
-34.00
-2.05
28.57
54.57
74.50
88.24
96.17
98.67
96.38
90.63
83.63
77.72
74.32
72.88
70.98
65.44
54.11
37.49
19.04
4.10
-2.27
2.55
17.57
38.63
60.11
77.00
86.48
88.25
83.71
74.74
62.78
48.52
32.39
15.10
-2.14
-17.68
-30.19
-39.14
-45.00
-48.97
-52.35
-55.87
-59.32
-61.58
-61.15
-56.87
-48.53
-37.24
-25.08
-14.46
-7.25
-4.14
-4.60
-7.24
-10.59
-13.67
-16.22
-18.51
-20.87
-23.26
-25.34
-26.60
-26.81
-26.22
-25.40
-24.90
-24.78
-24.56
-23.46
-20.89
-16.73
-11.40
-5.55
0.26
5.64
10.24
13.50
14.68
13.11
8.68
2.05
-5.53
-12.65
-18.40
-22.56
-25.36
-27.06
-27.54
-26.29
-22.77
-16.94
-9.37
-1.17
6.52
13.08
18.61
23.80
29.46
35.98
43.01
49.51
54.25
56.39
55.92
53.66
50.83
48.38
46.56
44.94
42.88
40.02
36.51
32.78
28.95
24.46
18.21
9.29
-2.29
-15.17
-27.06
-35.49
-38.77
-36.38
-28.88
-17.47
-3.59
11.09
24.58
34.59
39.10
37.07
29.07
17.23
4.26
-7.82
-18.64
-29.41
-41.81
-56.46
-71.85
-84.43
-90.06
-85.94
-72.24
-52.29
-31.48
-15.30
-7.35
-8.36
-16.31
-27.46
-37.89
-44.88
-47.42
-46.09
-42.25
-37.07
-31.01
-23.95
-15.70
-6.71
1.72
7.77
9.99
8.00
2.80
-3.82
-10.15
-15.30
-19.27
-22.45
-24.88
-25.78
-23.77
-17.33
-5.60
11.27
32.00
54.45
75.90
93.36
104.00
105.68
97.62
80.91
58.57
34.89
14.21
-0.31
-7.67
-9.03
-7.11
-4.98
-4.97
-7.92
-13.12
-18.76
-22.72
-23.40
-20.21
-13.77
-5.63
2.27
8.22
11.20
10.98
7.92
2.57
-4.57
-13.05
-22.30
-31.46
-39.48
-45.46
-49.03
-50.49
-50.54
-49.79
-48.36
-45.84
-41.68
-35.66
-28.25
-20.47
-13.51
-8.18
-4.61
-2.28
-0.36
1.91
4.88
8.49
12.37
16.13
19.62
22.98
26.57
30.77
35.71
41.14
46.42
50.72
53.32
53.91
52.85
51.13
50.09
50.97
54.34
59.69
65.43
69.19
68.55
61.79
48.47
29.69
7.93
-13.43
-30.96
-41.99
-45.43
-42.17
-34.88
-27.32
-23.22
-25.08
-33.50
-46.98
-62.45
-76.19
-84.77
-85.89
-78.74
-64.03
-43.68
-20.43
2.70
22.82
37.51
45.20
45.47
39.15
28.23
15.44
3.53
-5.43
-10.51
-11.95
-10.77
-8.08
-4.70
-0.99
2.91
6.71
9.84
11.51
11.12
8.59
4.47
-0.22
-4.38
-7.16
-8.19
-7.55
-5.79
-3.83
-2.97
-4.74
-10.53
-20.98
-35.35
-51.18
-64.60
-71.30
-67.87
-53.09
-28.54
1.48
31.16
54.72
67.98
69.43
60.38
44.27
25.36
7.38
-7.40
-18.31
-25.78
-30.41
-32.26
-30.66
-24.79
-14.45
-0.76
13.61
25.05
29.94
25.76
11.97
-9.84
-36.18
-62.42
-83.81
-96.57
-98.74
-90.68
-74.80
-54.58
-33.22
-12.40
8.14
30.16
55.66
85.44
118.04
149.58
174.64
187.62
184.42
163.61
127.10
79.92
29.20
-17.38
-53.24
-74.27
-79.46
-70.66
-51.92
-28.41
-5.48
12.23
21.47
21.08
12.25
-1.72
-16.19
-26.62
-30.04
-26.12
-17.26
-7.71
-2.04
-3.54
-13.22
-29.58
-49.20
-67.86
-81.55
-87.30
-83.52
-70.02
-47.85
-19.24
12.48
42.96
67.30
80.92
80.60
65.44
37.32
0.66
-38.42
-73.42
-98.58
-109.91
-105.69
-86.65
-55.78
-17.74
21.97
57.92
85.68
102.48
107.44
101.40
86.62
66.16
43.39
21.49
3.03
-10.31
-17.84
-19.80
-17.17
-11.37
-4.04
3.18
8.94
12.33
13.01
11.19
7.43
2.29
-3.88
-11.07
-19.34
-28.45
-37.61
-45.45
-50.45
-51.56
-48.76
-43.14
-36.42
-30.25
-25.42
-21.70
-18.07
-13.46
-7.33
0.04
7.77
14.93
20.97
25.96
30.28
34.35
38.24
41.65
44.09
45.27
45.18
44.11
42.37
40.12
37.28
33.73
29.63
25.53
22.28
20.58
20.66
22.00
23.54
24.16
23.12
20.27
15.90
10.37
3.86
-3.61
-11.92
-20.52
-28.40
-34.36
-37.47
-37.33
-33.96
-27.45
-17.63
-4.26
12.38
30.82
48.10
60.45
64.47
58.55
43.61
22.70
-0.13
-21.31
-38.62
-51.25
-59.09
-62.08
-60.02
-52.92
-41.72
-28.71
-17.16
-10.34
-10.18
-16.39
-26.47
-36.59
-43.26
-44.68
-41.42
-35.89
-31.09
-29.06
-29.94
-32.10
-32.93
-30.27
-23.30
-12.85
-0.84
10.61
19.98
26.78
31.32
34.32
36.37
37.65
38.00
37.19
35.20
32.46
29.79
28.03
27.67
28.57
30.02
31.03
30.85
29.16
26.15
22.25
17.89
13.37
8.82
4.27
-0.35
-5.25
-10.90
-18.04
-27.52
-39.94
-55.19
-72.13
-88.50
-101.29
-107.46
-104.91
-93.08
-73.21
-47.91
-20.36
6.44
30.21
49.32
62.55
68.78
67.09
57.17
39.80
17.21
-7.14
-29.13
-44.97
-52.01
-49.40
-38.33
-21.83
-4.26
9.44
14.87
9.44
-6.41
-28.58
-49.79
-61.36
-55.84
-29.70
15.21
71.97
130.68
181.49
217.29
234.90
234.86
219.88
193.41
158.80
119.39
78.97
41.90
12.52
-6.09
-13.12
-10.39
-1.54
9.36
19.36
27.24
33.21
38.10
42.33
45.62
47.11
45.81
40.99
32.03
18.23
-1.41
-27.73
-60.70
-98.50
-137.27
-171.82
-197.25
-210.63
-212.00
-204.03
-190.65
-175.32
-159.99
-145.17
-130.66
-116.48
-103.14
-91.29
-81.17
-72.26
-63.67
-54.66
-45.08
-35.18
-25.05
-14.00
-0.45
17.44
40.68
68.53
98.35
126.08
147.57
159.86
162.03
155.33
142.51
126.92
111.38
97.77
86.84
78.43
71.90
66.36
61.01
55.28
48.96
42.32
36.05
31.18
28.85
29.84
34.23
41.09
48.42
53.50
53.51
46.25
30.77
7.57
-21.42
-53.13
-83.58
-108.28
-122.85
-124.22
-111.85
-88.60
-60.44
-34.99
-19.02
-16.08
-25.31
-41.81
-58.60
-69.10
-69.18
-58.16
-38.52
-14.84
7.81
25.20
35.16
37.88
35.49
30.95
26.59
23.03
18.73
10.46
-5.76
-33.13
-72.68
-122.08
-175.22
-223.09
-255.77
-265.06
-246.74
-201.94
-136.70
-60.54
15.59
81.58
129.86
156.67
162.73
152.97
135.12
117.39
105.81
102.45
105.27
109.73
111.47
108.38
101.46
93.84
88.88
88.31
91.43
95.56
97.18
93.42
82.75
65.21
42.03
15.38
-11.85
-36.28
-54.57
-64.20
-64.34
-56.20
-42.65
-27.18
-12.71
-0.98
7.40
12.14
12.51
7.14
-5.44
-25.59
-51.40
-78.30
-99.92
-109.97
-104.51
-83.65
-51.79
-16.38
14.44
34.25
40.10
32.89
16.73
-2.47
-18.57
-26.66
-24.17
-11.49
7.83
27.58
40.23
39.15
20.86
-13.01
-55.52
-96.11
-123.92
-131.64
-118.17
-89.03
-54.12
-23.98
-5.96
-2.07
-9.26
-21.42
-32.32
-37.84
-36.89
-31.09
-23.66
-18.13
-17.39
-23.00
-34.86
-51.14
-68.58
-83.05
-90.59
-88.40
-75.65
-53.82
-26.32
2.38
27.96
47.29
59.10
64.07
64.23
62.20
60.30
60.02
61.88
65.53
70.02
73.98
75.93
74.59
69.34
60.45
49.09
36.95
25.63
16.27
9.36
5.05
3.40
4.52
8.38
14.36
21.07
26.47
28.61
26.31
19.76
10.37
0.25
-8.64
-14.99
-18.37
-18.97
-17.16
-13.35
-7.88
-1.26
5.79
12.33
17.44
20.56
21.60
20.93
19.19
17.12
15.33
14.28
14.21
15.09
16.64
18.33
19.64
20.11
19.60
18.18
16.14
13.75
11.20
8.58
5.99
3.79
2.62
3.53
7.57
15.58
27.62
42.71
58.72
72.61
81.11
81.53
72.69
55.41
32.48
7.79
-14.79
-32.64
-45.08
-53.15
-58.90
-64.12
-69.53
-74.48
-77.35
-76.45
-70.82
-60.75
-47.69
-33.80
-21.24
-11.51
-5.18
-1.70
0.14
1.75
3.92
6.34
7.45
4.84
-3.85
-19.98
-43.04
-70.53
-98.40
-121.94
-136.78
-139.69
-129.10
-105.25
-70.36
-28.40
15.34
55.01
85.33
102.65
105.82
96.41
78.16
55.88
34.05
15.61
1.46
-9.31
-18.54
-27.88
-38.23
-49.54
-61.14
-72.17
-81.66
-88.55
-91.56
-89.42
-81.31
-67.45
-49.19
-28.76
-8.61
9.25
23.64
34.21
41.31
45.72
48.55
51.01
54.22
58.83
64.86
71.70
78.39
84.06
88.13
90.33
90.49
88.35
83.41
75.33
64.19
50.95
37.57
26.59
20.38
20.37
26.34
36.37
47.45
56.34
60.68
59.56
53.60
44.43
34.00
24.01
15.57
9.27
5.35
3.77
4.17
5.72
7.19
7.22
4.74
-0.63
-8.34
-17.13
-25.42
-31.81
-35.46
-36.23
-34.63
-31.66
-28.59
-26.68
-26.95
-29.89
-35.36
-42.51
-50.04
-56.44
-60.48
-61.43
-59.32
-54.86
-49.26
-43.81
-39.52
-36.81
-35.52
-35.09
-34.93
-34.69
-34.44
-34.58
-35.67
-38.11
-41.88
-46.32
-50.13
-51.58
-48.95
-41.30
-28.94
-13.67
1.72
14.43
22.72
26.73
28.25
29.88
33.71
40.35
48.58
55.93
59.67
57.93
50.26
37.95
23.85
12.04
7.14
13.26
32.75
64.95
105.77
148.31
184.77
208.69
216.76
209.32
189.41
161.01
127.34
90.20
50.52
9.66
-29.29
-61.29
-80.58
-82.93
-67.82
-39.48
-5.89
23.58
41.02
41.80
24.93
-7.53
-51.51
-101.50
-150.82
-192.25
-219.34
-228.14
-218.56
-194.45
-162.15
-128.27
-97.90
-73.77
-56.75
-46.61
-42.54
-43.30
-47.04
-51.47
-54.30
-53.98
-49.89
-42.04
-30.23
-13.23
11.40
46.36
92.78
148.29
206.11
255.97
286.80
290.22
263.37
210.05
139.54
63.96
-5.16
-59.55
-95.50
-113.71
-117.87
-112.83
-103.12
-92.09
-81.89
-73.97
-69.46
-69.26
-73.59
-81.51
-90.77
-98.29
-100.93
-96.25
-82.74
-59.69
-27.11
14.09
61.47
110.74
155.98
190.84
210.16
211.28
194.62
163.16
121.58
75.40
30.46
-7.43
-33.14
-43.27
-37.31
-18.14
8.44
35.65
57.84
72.16
78.86
80.29
79.41
78.44
78.41
79.34
80.66
81.44
80.29
75.18
63.67
43.54
13.67
-25.41
-71.67
-122.15
-173.63
-222.80
-265.90
-298.28
-314.54
-309.77
-281.62
-232.32
-169.11
-102.65
-43.56
1.09
29.55
44.76
51.64
53.91
52.52
46.23
33.75
15.97
-3.48
-19.61
-28.40
-28.80
-22.76
-13.72
-4.43
4.45
14.05
25.79
39.60
53.02
61.75
61.46
49.98
28.67
2.24
-22.68
-40.01
-46.25
-41.60
-29.43
-14.59
-1.26
8.57
15.42
21.39
28.53
37.44
46.75
53.77
55.75
51.19
40.30
24.85
7.28
-10.07
-25.25
-36.57
-42.23
-40.39
-29.77
-10.85
13.31
36.94
52.88
54.76
39.51
8.96
-30.20
-68.22
-95.31
-104.69
-94.53
-68.23
-33.01
2.52
30.74
46.78
49.04
38.78
19.17
-5.76
-31.86
-55.34
-73.10
-83.08
-84.53
-78.20
-65.94
-49.93
-31.70
-11.39
12.11
40.06
72.50
107.17
139.51
163.94
175.83
173.18
157.25
131.92
102.07
72.01
44.50
20.70
0.70
-15.75
-28.63
-37.55
-41.95
-41.41
-35.94
-26.06
-12.94
1.58
15.26
25.86
31.80
32.76
29.93
25.51
21.68
19.49
18.17
15.44
8.66
-3.65
-20.76
-39.72
-56.35
-66.77
-68.80
-62.44
-49.55
-32.93
-15.33
1.21
15.51
26.85
34.74
38.65
38.13
33.12
24.16
12.47
-0.27
-12.29
-22.19
-29.03
-32.42
-32.33
-29.02
-23.00
-15.10
-6.44
1.74
8.29
12.57
14.49
14.49
13.25
11.26
8.69
5.40
1.26
-3.58
-8.61
-13.19
-16.93
-19.92
-22.72
-25.90
-29.74
-34.00
-38.23
-42.14
-45.94
-50.09
-54.92
-60.15
-64.76
-67.52
-67.38
-64.05
-57.93
-49.71
-39.95
-29.00
-17.31
-5.85
3.57
8.88
8.78
4.04
-1.96
-4.10
2.48
19.94
46.40
76.53
103.80
123.46
134.12
137.52
136.58
133.22
127.18
116.55
99.16
74.11
42.39
6.69
-29.26
-61.40
-85.78
-99.15
-99.64
-87.37
-64.64
-35.48
-4.63
23.61
46.08
60.86
67.02
64.24
52.74
33.54
8.85
-17.77
-41.82
-58.90
-66.10
-62.96
-51.55
-35.40
-17.89
-0.82
15.84
33.10
51.39
69.37
83.83
90.69
86.63
70.47
43.78
10.58
-23.48
-52.51
-71.64
-78.42
-73.59
-61.05
-46.62
-35.94
-32.44
-36.33
-45.26
-56.12
-66.92
-77.67
-89.58
-103.32
-117.54
-128.55
-131.60
-123.02
-101.94
-70.88
-34.87
0.30
29.81
50.82
62.64
66.11
62.83
54.51
42.79
29.28
15.80
4.48
-2.49
-3.39
2.36
13.55
27.04
38.33
43.01
38.46
25.31
7.67
-8.11
-15.86
-12.11
2.48
23.46
44.54
60.13
67.24
66.05
58.93
48.91
38.31
28.20
18.60
9.08
-0.78
-11.22
-22.36
-34.21
-46.54
-58.62
-69.15
-76.48
-79.21
-76.77
-69.83
-60.10
-49.80
-40.93
-34.64
-31.14
-29.85
-29.79
-29.94
-29.60
-28.49
-26.75
-24.73
-22.50
-19.48
-14.09
-4.08
12.65
36.93
67.41
100.56
131.48
155.51
169.53
172.66
166.14
152.50
134.63
115.22
96.36
79.53
65.71
55.40
48.73
45.53
45.30
47.14
49.67
51.17
49.95
45.02
36.60
26.25
16.20
8.40
3.54
0.71
-2.08
-6.85
-14.62
-24.87
-35.85
-45.53
-52.55
-56.74
-58.93
-60.13
-60.76
-60.25
-57.39
-51.18
-41.66
-30.29
-19.56
-12.16
-9.99
-13.70
-22.64
-35.28
-49.79
-64.20
-76.42
-84.06
-84.47
-75.17
-54.87
-24.37
12.85
50.91
82.98
103.14
108.17
98.48
77.67
51.10
24.15
0.76
-17.11
-29.20
-36.21
-39.13
-38.77
-35.78
-30.80
-24.63
-18.17
-12.38
-8.08
-5.88
-6.05
-8.51
-12.70
-17.61
-21.89
-24.18
-23.54
-19.86
-14.09
-8.02
-3.78
-2.96
-5.97
-11.91
-18.92
-24.98
-28.66
-29.53
-28.08
-25.17
-21.51
-17.40
-12.77
-7.44
-1.41
5.08
11.70
18.26
24.76
31.35
38.06
44.58
50.27
54.40
56.27
55.52
52.10
46.19
38.20
28.73
18.64
9.03
0.99
-4.74
-8.04
-9.52
-10.26
-11.38
-13.55
-16.71
-20.09
-22.56
-23.08
-21.06
-16.61
-10.47
-3.67
2.87
8.65
13.73
18.49
23.21
27.85
31.94
34.84
36.17
36.12
35.34
34.73
34.95
36.08
37.57
38.51
38.01
35.63
31.55
26.53
21.58
17.47
14.47
12.24
9.93
6.56
1.33
-6.23
-16.24
-28.51
-42.61
-57.70
-72.39
-84.76
-92.70
-94.57
-89.96
-80.04
-67.32
-54.74
-44.68
-38.12
-34.56
-32.61
-30.87
-28.66
-26.11
-23.65
-21.24
-18.01
-12.51
-3.55
8.85
23.09
36.39
45.98
50.33
49.71
45.68
39.90
32.86
23.55
10.17
-8.27
-30.59
-53.13
-70.78
-78.94
-75.26
-60.46
-37.62
-10.73
16.79
42.90
66.62
87.12
103.03
112.36
113.25
105.02
88.86
67.69
45.12
24.10
5.96
-9.68
-24.17
-38.67
-53.20
-66.43
-76.16
-80.46
-78.64
-71.73
-62.19
-52.97
-46.24
-42.53
-40.54
-37.90
-32.56
-24.05
-14.31
-7.27
-7.50
-18.26
-39.75
-68.37
-97.23
-117.92
-122.94
-108.12
-73.97
-25.68
28.28
78.47
117.05
139.72
146.57
141.67
131.38
122.05
117.54
117.70
118.37
113.09
95.99
64.67
21.93
-24.68
-65.24
-90.77
-96.30
-82.16
-53.59
-18.81
13.39
35.81
44.22
37.79
18.90
-7.67
-35.74
-59.11
-72.77
-73.91
-62.36
-40.48
-12.52
16.25
40.55
56.14
60.67
54.31
39.77
21.63
4.91
-6.38
-10.52
-8.18
-1.81
5.71
12.08
16.11
17.48
16.17
12.24
5.87
-2.20
-10.35
-16.28
-17.74
-13.53
-4.21
7.75
18.74
25.17
24.83
17.81
6.62
-4.64
-11.63
-11.30
-2.80
12.33
30.87
49.15
64.08
73.78
77.56
75.54
68.35
56.87
42.30
26.01
9.45
-6.03
-19.30
-29.15
-34.21
-32.98
-24.36
-8.50
12.52
34.66
52.61
60.99
55.52
34.00
-3.26
-53.28
-110.50
-167.19
-214.38
-243.45
-248.06
-225.87
-179.38
-115.64
-45.01
20.81
70.88
97.21
96.54
71.22
28.88
-19.49
-62.48
-91.24
-101.47
-93.63
-71.71
-41.44
-8.73
21.12
43.65
55.50
55.04
43.04
22.88
-0.28
-21.12
-35.94
-43.69
-45.87
-45.28
-44.60
-45.17
-46.81
-48.25
-47.85
-44.30
-36.96
-26.09
-12.81
1.03
13.21
21.66
25.03
23.11
16.82
7.88
-1.80
-10.49
-17.02
-20.72
-21.32
-18.85
-13.43
-5.17
5.85
19.54
35.57
53.17
71.10
87.81
101.87
112.38
119.09
122.32
122.59
120.32
115.81
109.27
101.06
91.65
81.46
70.59
58.80
45.65
30.97
15.34
0.29
-11.94
-19.10
-19.69
-13.67
-2.64
10.42
21.81
28.13
27.10
18.26
3.09
-15.36
-33.39
-47.77
-56.69
-60.18
-59.66
-57.11
-54.02
-50.78
-46.78
-41.08
-33.14
-23.25
-12.53
-2.39
5.97
11.87
15.21
16.26
15.51
13.68
11.70
10.57
10.99
12.85
14.99
15.32
11.69
2.92
-10.31
-25.34
-38.22
-45.22
-44.28
-35.95
-23.30
-10.83
-2.92
-2.22
-8.91
-20.83
-34.41
-45.98
-52.68
-53.10
-47.28
-36.47
-22.77
-8.74
3.07
10.64
13.10
11.08
6.64
2.58
1.35
4.16
10.47
18.27
24.90
28.13
26.91
21.58
13.68
5.21
-2.03
-6.90
-9.14
-9.26
-8.17
-6.86
-6.05
-5.99
-6.42
-6.73
-6.20
-4.32
-0.99
3.51
8.49
13.09
16.37
17.60
16.53
13.63
10.21
8.10
8.98
13.57
20.98
28.83
34.09
34.41
29.20
20.15
10.47
3.66
1.85
4.85
10.03
13.18
10.16
-1.33
-20.26
-41.89
-58.66
-62.57
-48.29
-15.94
27.71
70.69
99.48
103.75
80.31
34.60
-20.95
-70.92
-101.79
-106.06
-84.07
-43.53
3.09
42.25
63.00
59.79
33.67
-8.32
-55.24
-95.33
-119.05
-121.33
-102.49
-67.57
-24.72
17.14
50.48
70.70
76.86
71.23
58.31
43.13
29.83
20.48
14.92
11.26
6.98
0.09
-10.08
-22.67
-35.59
-46.23
-52.13
-51.63
-44.21
-30.75
-13.39
4.70
20.08
29.78
32.21
27.50
17.35
4.38
-8.76
-19.99
-28.08
-32.57
-33.49
-31.19
-26.36
-20.08
-13.68
-8.50
-5.38
-4.48
-5.25
-6.81
-8.37
-9.51
-10.13
-10.20
-9.62
-8.15
-5.64
-2.24
1.58
5.23
8.34
10.95
13.44
16.18
19.09
21.50
22.40
20.94
17.05
11.58
6.06
1.92
-0.05
-0.11
0.61
0.71
-0.86
-4.37
-9.16
-13.87
-16.85
-16.66
-12.50
-4.54
6.07
17.39
27.26
34.04
37.23
37.61
36.93
37.14
39.59
44.44
50.70
56.61
60.38
60.91
58.07
52.62
45.71
38.30
30.73
22.73
13.75
3.41
-8.14
-20.03
-30.66
-37.83
-39.09
-32.28
-16.43
7.46
35.92
63.55
84.36
93.74
89.99
74.85
52.69
28.85
8.01
-6.92
-15.02
-16.92
-14.16
-8.64
-2.31
3.01
5.78
5.02
0.54
-6.91
-15.78
-24.14
-30.32
-33.62
-34.70
-35.47
-38.39
-45.31
-56.45
-70.00
-82.60
-90.48
-90.77
-82.40
-66.32
-45.06
-21.94
-0.31
17.11
28.73
34.30
35.16
34.08
34.85
41.20
55.34
76.74
101.59
123.73
136.65
135.87
120.41
92.83
57.84
20.47
-14.98
-44.99
-66.17
-75.14
-69.63
-50.32
-22.12
6.56
26.80
32.99
25.28
9.10
-7.97
-20.18
-26.13
-28.55
-31.59
-37.77
-46.14
-52.92
-53.69
-46.08
-31.16
-12.95
3.43
13.91
16.93
13.49
6.12
-2.62
-11.12
-18.94
-26.25
