1564517740.00
64.000000
-0.00
-0.00
-0.00
-0.00
-0.00
-0.00
-0.00
-0.00
-0.00
-0.00
0.00
0.01
0.01
-0.00
-0.03
-0.05
-0.05
0.00
0.13
0.36
0.66
1.01
1.37
1.72
2.06
2.40
2.79
3.24
3.80
4.42
5.06
5.66
6.20
6.68
7.15
7.68
8.32
9.16
10.12
11.09
11.97
12.70
13.33
14.03
15.02
16.44
18.53
21.07
23.82
26.46
28.83
30.99
33.28
36.11
39.80
44.73
50.55
56.73
62.70
68.10
72.98
77.85
83.39
90.14
98.63
108.36
118.53
128.25
136.96
144.68
152.07
160.45
168.53
178.57
191.16
206.40
223.09
238.31
247.72
246.73
231.98
202.59
160.93
110.84
56.65
1.58
-52.82
-106.33
-158.97
-210.44
-259.89
-305.85
-347.43
-383.92
-414.77
-439.15
-455.77
-462.90
-458.96
-443.17
-415.67
-378.12
-333.03
-283.35
-231.89
-181.67
-134.49
-91.27
-52.35
-17.76
12.45
38.27
59.75
77.18
91.10
102.37
111.82
120.09
127.58
134.36
140.34
145.29
149.02
151.46
152.68
152.79
151.80
149.65
146.17
141.62
136.12
129.78
122.74
115.23
107.45
99.56
91.69
83.95
76.43
69.16
62.15
55.43
49.03
43.01
37.34
32.06
27.16
22.64
18.49
14.68
11.23
8.13
5.40
3.04
1.04
-0.62
-1.98
-3.12
-4.12
-5.04
-5.94
-6.85
-7.79
-8.77
-9.77
-10.75
-11.70
-12.58
-13.37
-14.04
-14.58
-14.99
-15.27
-15.46
-15.57
-15.62
-15.66
-15.68
-15.70
-15.71
-15.71
-15.69
-15.62
-15.51
-15.31
-15.04
-14.68
-14.24
-13.73
-13.15
-12.53
-11.92
-11.33
-10.80
-10.36
-10.04
-9.86
-9.84
-9.98
-10.27
-10.69
-11.19
-11.72
-12.23
-12.66
-12.98
-13.15
-13.16
-13.00
-12.69
-12.26
-11.76
-11.22
-10.71
-10.25
-9.89
-9.65
-9.52
-9.51
-9.60
-9.77
-10.02
-10.33
-10.71
-11.13
-11.62
-12.15
-12.74
-13.39
-14.10
-14.89
-15.73
-16.63
-17.56
-18.51
-19.45
-20.34
-21.17
-21.87
-22.40
-22.69
-22.66
-22.23
-21.34
-19.91
-17.91
-15.30
-12.04
-8.13
-3.59
1.55
7.24
13.43
20.04
27.03
34.32
41.85
49.57
57.42
65.39
73.43
81.54
89.71
97.95
106.23
114.53
122.81
130.95
138.86
146.36
153.30
159.52
164.86
169.21
172.48
174.56
175.42
174.97
173.19
170.07
165.66
160.05
153.35
145.65
137.01
127.44
116.99
105.70
93.74
81.34
68.81
56.51
44.70
33.55
23.07
13.13
3.51
-5.99
-15.50
-24.98
-34.36
-43.53
-52.49
-61.45
-70.80
-81.02
-92.50
-105.48
-119.82
-135.03
-150.50
-165.70
-180.55
-195.72
-212.60
-232.78
-257.13
-285.02
-313.99
-340.41
-360.72
-372.48
-374.93
-368.76
-355.12
-335.33
-310.66
-282.99
-255.05
-229.83
-209.54
-194.42
-182.54
-170.89
-157.09
-140.69
-123.14
-106.49
-91.74
-78.31
-64.61
-49.47
-33.57
-19.33
-9.70
-6.32
-8.31
-12.56
-15.19
-13.51
-7.27
1.46
9.24
13.35
13.07
10.01
7.35
7.97
13.02
21.18
29.20
33.56
32.28
25.87
17.24
10.18
7.51
9.72
14.93
19.99
22.41
21.68
19.37
18.11
19.72
23.98
28.67
30.92
29.20
24.53
20.00
18.98
22.92
30.29
37.29
40.17
37.32
30.40
23.28
19.78
21.41
26.48
31.08
31.31
25.61
15.61
5.33
-1.12
-1.88
1.57
5.30
5.23
-0.47
-10.21
-19.99
-25.67
-25.32
-20.33
-14.41
-11.17
-12.10
-15.55
-18.04
-16.47
-10.08
-0.98
7.32
11.97
12.49
10.82
9.92
11.88
16.53
21.61
24.33
23.46
20.74
20.70
28.61
47.77
77.19
111.08
140.25
155.33
150.37
125.38
86.45
43.22
4.88
-23.44
-41.71
-53.14
-61.25
-67.33
-70.19
-67.68
-58.65
-44.15
-26.88
-9.93
4.69
16.43
25.65
32.55
36.45
35.95
29.98
19.02
5.55
-6.20
-12.08
-9.97
-1.24
9.60
16.98
17.19
10.61
1.39
-4.93
-4.83
1.35
9.83
15.76
16.14
11.24
4.12
-1.25
-2.25
1.12
6.35
9.90
9.14
3.95
-3.08
-7.87
-7.15
-0.50
9.07
16.60
17.93
12.19
2.52
-5.83
-8.45
-4.44
3.29
9.85
11.37
7.20
0.12
-5.36
-5.81
-0.85
6.71
12.48
13.09
8.10
0.25
-6.12
-7.53
-3.28
4.11
10.57
12.83
10.44
5.83
2.66
3.35
7.46
11.98
13.32
9.64
2.08
-5.75
-9.97
-8.48
-2.24
5.28
10.07
9.76
4.93
-1.20
-4.63
-2.94
3.16
10.08
13.33
10.13
1.12
-9.88
-17.96
-19.91
-15.85
-8.97
-3.36
-1.45
-2.64
-3.97
-2.18
4.00
12.91
20.79
24.08
21.55
15.12
8.87
6.78
10.43
18.12
25.86
29.50
27.07
19.81
11.44
6.08
5.97
10.29
15.60
17.81
14.47
6.21
-3.57
-10.72
-12.72
-10.17
-6.44
-5.55
-9.66
-17.74
-26.02
-30.21
-27.96
-20.40
-11.55
-6.02
-6.48
-12.14
-19.30
-23.46
-21.93
-15.22
-6.42
0.52
3.24
2.09
-0.36
-1.05
1.40
5.90
9.45
9.08
3.69
-5.02
-13.39
-17.60
-15.69
-8.52
0.73
8.19
11.59
11.19
9.77
10.73
16.06
24.85
33.63
38.30
36.64
29.73
21.58
16.94
18.46
25.22
33.06
36.95
33.91
24.68
13.13
3.94
-0.31
-0.42
0.02
-2.87
-10.63
-21.31
-30.62
-34.46
-31.62
-24.61
-18.28
-16.87
-21.44
-29.24
-35.39
-35.83
-29.85
-20.30
-11.90
-8.44
-10.58
-15.73
-19.59
-18.65
-12.09
-1.98
7.96
14.46
16.30
14.77
12.73
12.98
16.50
22.10
27.04
28.60
25.91
20.52
15.76
14.76
18.66
25.64
31.70
33.07
28.24
19.21
10.38
6.21
8.43
15.07
21.61
23.75
20.04
12.82
6.63
5.37
9.67
16.45
20.64
18.12
8.21
-5.92
-18.93
-26.21
-26.23
-21.22
-15.78
-14.21
-18.14
-25.75
-32.77
-35.10
-31.14
-22.85
-14.55
-10.38
-11.73
-16.36
-19.76
-17.95
-10.13
0.70
9.49
12.08
7.85
0.25
-5.30
-4.49
3.32
14.72
24.31
27.81
24.39
16.87
9.81
6.64
7.91
11.25
13.06
10.88
4.91
-2.29
-7.37
-8.32
-5.74
-2.59
-2.26
-6.65
-14.72
-22.84
-26.79
-24.00
-15.18
-4.10
4.34
6.68
2.65
-4.62
-10.50
-11.26
-6.13
2.57
10.65
14.62
13.58
9.63
6.55
7.40
12.47
19.14
23.31
22.08
15.65
7.47
2.27
3.37
10.65
20.52
28.01
29.51
24.87
17.38
11.80
11.50
16.65
24.03
28.93
28.04
21.31
12.08
5.07
3.60
7.49
13.10
15.41
10.84
-0.42
-14.48
-25.74
-30.07
-27.01
-20.00
-14.42
-14.36
-20.28
-28.84
-34.94
-34.98
-28.95
-20.41
-14.22
-13.47
-17.56
-22.58
-23.71
-18.28
-7.38
4.66
12.59
13.31
7.58
-0.31
-4.87
-2.37
7.12
19.72
29.79
32.87
28.07
18.42
9.22
4.91
6.82
12.46
17.30
17.50
12.31
4.28
-2.34
-4.41
-1.89
2.09
3.14
-1.55
-11.30
-22.14
-28.97
-28.55
-21.35
-11.41
-3.92
-2.36
-6.51
-12.73
-16.25
-13.99
-6.59
2.03
6.84
4.74
-3.51
-13.51
-19.62
-18.20
-9.55
2.17
11.49
14.70
11.92
6.75
3.85
5.94
11.98
17.87
18.94
13.04
2.04
-9.04
-14.84
-12.74
-4.28
5.65
11.76
11.25
5.49
-1.01
-3.43
0.61
9.42
18.46
23.00
21.03
14.35
7.50
4.98
8.57
16.32
23.63
26.06
21.82
12.84
3.56
-1.53
-0.39
5.52
12.35
16.07
14.89
10.23
5.62
4.54
8.09
14.22
18.81
18.04
10.67
-0.95
-12.05
-17.88
-16.14
-8.16
1.83
9.10
10.98
7.99
3.30
0.42
1.05
3.87
5.40
2.37
-6.15
-17.74
-27.94
-32.80
-31.15
-25.44
-20.18
-19.36
-24.06
-31.74
-37.79
-38.09
-31.31
-19.75
-7.99
-0.45
0.88
-2.40
-6.32
-6.82
-2.17
6.02
13.75
17.01
14.27
7.42
0.83
-1.36
2.48
10.40
18.10
21.50
19.08
12.84
6.89
5.05
8.58
15.46
21.74
23.80
20.66
14.46
9.14
7.98
11.55
17.12
20.14
16.95
6.90
-6.89
-19.18
-25.33
-23.65
-16.34
-8.12
-3.52
-4.47
-9.24
-13.61
-13.52
-7.48
2.31
11.34
15.22
12.32
4.75
-2.94
-6.28
-3.56
3.37
10.28
13.13
10.49
4.24
-1.50
-3.05
0.84
8.18
15.02
17.70
15.07
9.10
3.70
2.23
5.46
10.94
14.31
12.05
3.56
-8.11
-17.83
-21.29
-17.29
-8.63
-0.35
3.22
0.87
-4.76
-8.94
-7.75
-0.60
9.43
17.25
18.70
13.00
3.07
-6.02
-10.08
-7.92
-1.99
3.40
4.52
0.64
-5.74
-10.40
-10.08
-4.51
3.17
8.18
6.91
-0.79
-11.27
-18.98
-19.60
-12.42
-0.88
9.28
13.38
10.25
2.95
-3.21
-3.74
2.23
11.63
19.16
20.50
14.86
5.42
-2.66
-5.26
-1.71
4.97
10.00
9.75
4.04
-3.90
-9.28
-8.76
-2.40
6.16
11.85
11.12
4.08
-5.30
-11.51
-10.55
-2.23
9.57
19.23
22.65
19.45
13.13
8.70
9.69
15.95
23.80
28.34
26.26
17.79
6.61
-2.39
-5.65
-3.05
2.33
5.96
4.62
-1.68
-9.77
-15.08
-14.57
-8.50
-0.55
4.35
2.87
-4.75
-14.79
-22.19
-23.50
-18.74
-11.30
-5.93
-5.88
-11.08
-18.14
-22.50
-21.13
-14.44
-6.12
-0.98
-2.12
-8.94
-17.32
-22.07
-19.91
-11.38
-0.52
7.47
9.42
5.89
0.72
-1.46
1.91
9.72
17.75
21.16
17.27
7.35
-4.04
-11.42
-11.50
-4.93
4.04
9.98
9.41
2.60
-6.62
-13.26
-14.07
-9.26
-2.25
2.70
3.08
-0.53
-4.89
-6.38
-3.25
3.15
9.15
10.91
6.76
-1.77
-10.58
-15.26
-13.39
-5.85
3.82
11.16
13.29
10.38
5.29
1.93
2.90
7.90
13.92
17.01
14.65
7.39
-1.48
-7.67
-8.52
-4.56
0.74
3.07
0.02
-7.55
-15.81
-20.36
-18.84
-12.35
-4.84
-0.71
-2.15
-7.84
-13.69
-15.07
-9.62
1.40
13.80
22.67
25.21
22.10
17.00
14.20
16.18
22.08
28.47
31.53
29.28
22.96
16.10
12.42
13.57
18.01
21.92
21.13
13.77
1.25
-12.11
-21.40
-23.65
-19.54
-13.00
-9.06
-11.02
-18.57
-28.04
-34.48
-34.59
-28.49
-19.60
-12.39
-9.86
-11.93
-15.53
-16.86
-13.67
-6.68
0.83
5.18
4.52
0.07
-4.37
-4.66
1.18
11.69
22.84
30.06
31.05
26.89
21.30
18.32
19.88
24.73
29.29
29.92
25.13
16.58
8.08
3.46
4.25
8.72
12.64
11.78
4.31
-8.00
-20.57
-28.63
-29.83
-25.52
-19.99
-17.85
-21.19
-28.51
-35.54
-37.84
-33.54
-24.40
-14.75
-9.00
-9.09
-13.39
-17.85
-18.37
-13.23
-4.20
4.58
8.87
6.90
0.61
-5.53
-6.90
-1.44
9.17
20.50
27.80
28.67
24.29
18.68
16.23
19.13
26.12
33.19
35.89
32.07
23.18
13.73
8.78
11.02
19.08
28.12
32.49
28.99
18.73
6.64
-1.32
-1.59
5.07
14.18
20.09
19.40
12.80
4.35
-1.02
-0.84
3.43
7.36
6.28
-1.63
-14.03
-25.72
-31.53
-29.48
-21.87
-13.98
-10.79
-14.19
-21.87
-28.85
-30.49
-25.15
-14.96
-4.61
1.54
1.84
-1.80
-5.07
-3.91
3.17
13.95
23.76
28.00
24.78
16.17
6.86
1.61
2.37
7.00
10.75
9.14
0.80
-11.42
-22.05
-26.16
-22.23
-12.99
-3.84
0.26
-2.49
-9.72
-16.58
-18.65
-14.57
-6.90
-0.54
0.20
-5.74
-15.46
-23.52
-25.18
-18.98
-7.64
3.55
9.76
9.42
4.85
0.81
1.26
6.89
14.46
18.72
15.61
4.73
-10.03
-22.52
-27.33
-22.67
-11.12
1.83
10.72
12.82
9.45
4.84
3.49
7.51
15.20
22.25
24.23
19.42
9.83
0.26
-4.54
-2.51
4.59
12.46
16.69
15.43
10.14
4.57
2.30
4.57
9.55
13.35
12.40
5.55
-4.95
-14.55
-18.91
-16.36
-9.03
-1.71
0.79
-3.51
-12.62
-21.79
-26.30
-24.28
-17.76
-11.47
-9.94
-14.75
-23.54
-31.27
-33.12
-27.28
-16.12
-4.78
1.51
0.47
-6.09
-13.39
-16.55
-13.46
-5.79
2.07
6.01
4.66
0.30
-2.70
-0.59
7.36
18.34
27.73
31.55
28.80
21.86
15.06
12.12
14.11
18.93
22.69
22.08
16.40
7.99
0.96
-1.22
2.38
9.49
15.99
18.17
15.01
8.72
3.48
2.85
7.59
15.19
21.09
21.55
15.74
6.43
-1.55
-4.02
-0.02
7.75
14.41
16.04
11.90
5.00
0.20
1.25
8.47
18.40
25.78
26.41
19.67
8.68
-1.26
-5.92
-4.35
0.63
4.12
2.15
-5.90
-16.85
-25.44
-27.48
-22.38
-13.69
-7.14
-7.35
-15.03
-26.63
-36.28
-39.11
-34.19
-24.70
-16.16
-13.00
-16.07
-22.23
-26.53
-25.20
-18.02
-8.67
-2.39
-2.84
-9.79
-19.07
-24.69
-22.47
-12.32
1.51
12.76
16.81
13.27
6.14
1.38
3.34
12.16
23.67
32.03
33.10
26.77
16.97
9.10
6.98
10.69
16.72
20.27
18.14
10.62
1.41
-4.62
-4.17
2.61
12.18
19.47
20.80
15.83
7.70
1.17
-0.23
3.76
9.99
13.75
11.45
2.84
-8.83
-18.60
-22.43
-19.35
-11.94
-4.70
-1.33
-2.81
-6.80
-9.36
-7.43
-0.88
7.32
12.83
12.50
6.37
-2.25
-8.57
-8.98
-3.14
5.90
13.37
15.47
11.58
4.65
-0.66
-0.63
5.14
13.38
19.12
18.75
12.33
3.76
-1.53
0.22
8.77
19.96
28.27
30.03
25.47
18.39
13.52
13.71
18.04
22.59
22.80
16.33
4.48
-8.30
-17.00
-18.67
-13.90
-6.47
-1.07
-0.75
-5.24
-11.37
-14.98
-13.62
-7.82
-1.00
2.62
0.64
-6.07
-13.80
-18.11
-16.50
-9.97
-2.46
1.55
-0.37
-7.06
-14.60
-18.54
-16.56
-9.78
-2.09
2.15
0.51
-6.23
-14.46
-19.93
-20.05
-15.25
-8.95
-5.37
-7.29
-14.21
-22.59
-27.74
-26.60
-19.49
-10.07
-3.31
-2.39
-6.95
-13.22
-16.42
-13.64
-5.89
2.57
6.65
3.51
-5.60
-15.98
-22.04
-20.54
-12.24
-1.64
5.80
6.77
1.88
-4.72
-8.00
-5.06
3.11
12.13
16.88
14.50
6.14
-3.47
-8.65
-5.92
4.09
16.89
26.69
29.58
25.65
18.78
14.34
15.96
23.40
32.75
38.71
37.76
30.23
20.16
13.02
12.48
18.39
26.82
32.45
31.83
25.34
16.95
11.85
13.05
19.34
25.78
26.62
18.72
3.66
-12.88
-24.32
-26.69
-20.83
-11.73
-5.58
-6.21
-13.19
-22.30
-28.22
-27.83
-21.75
-13.84
-8.75
-9.01
-13.68
-19.11
-21.12
-17.76
-10.48
-3.25
-0.29
-3.41
-10.86
-18.38
-21.45
-17.94
-9.32
0.01
5.30
4.00
-2.80
-10.78
-15.01
-12.71
-4.97
3.73
8.20
5.68
-2.55
-11.65
-16.31
-14.01
-6.30
2.32
7.27
6.60
1.77
-3.65
-6.41
-5.44
-2.36
-0.13
-1.09
-5.54
-11.46
-15.76
-16.11
-12.41
-6.97
-3.32
-4.15
-9.41
-16.19
-20.05
-17.67
-9.03
2.33
11.26
13.89
9.95
2.81
-2.46
-2.10
4.29
13.50
20.65
22.00
17.05
8.79
2.06
0.73
5.64
14.28
22.30
26.10
24.70
20.20
16.16
15.38
18.20
22.25
24.08
21.10
13.32
3.41
-4.51
-7.03
-3.27
4.48
11.93
15.05
12.25
5.30
-1.65
-4.51
-1.53
5.60
12.73
15.45
11.63
2.49
-7.89
-14.76
-15.28
-10.06
-2.82
1.68
0.17
-7.12
-16.88
-24.49
-26.69
-23.43
-17.56
-13.01
-12.18
-14.66
-17.46
-17.24
-12.40
-4.24
3.64
7.62
6.14
0.64
-5.25
-7.86
-5.67
-0.13
5.28
7.10
3.95
-2.67
-9.30
-12.53
-10.93
-5.83
-0.38
2.33
1.02
-3.02
-6.88
-7.73
-4.55
1.35
7.05
9.81
8.76
5.44
3.01
4.19
9.57
17.04
22.85
23.71
18.80
10.25
2.10
-1.88
-0.17
5.85
12.73
17.03
17.12
13.94
10.25
8.66
10.10
13.12
14.79
12.58
6.09
-2.60
-9.87
-12.64
-10.15
-4.28
1.48
4.12
2.78
-0.80
-3.52
-2.91
1.33
7.04
10.85
10.06
4.32
-4.21
-11.89
-15.67
-14.66
-10.54
-6.51
-5.39
-7.99
-12.72
-16.45
-16.59
-12.54
-6.08
-0.41
1.83
0.16
-3.48
-5.77
-4.19
1.37
8.38
12.96
12.05
5.22
-4.89
-13.95
-18.08
-15.92
-9.16
-1.50
3.41
3.93
1.03
-2.60
-4.48
-3.79
-1.59
0.22
0.40
-0.73
-1.59
-0.64
2.33
5.71
7.02
4.45
-1.71
-8.87
-13.45
-12.70
-6.32
3.35
12.30
16.78
14.85
7.23
-3.06
-12.10
-16.72
-16.09
-11.94
-7.80
-6.90
-10.53
-17.25
-23.63
-26.46
-24.59
-19.78
-15.54
-14.89
-18.41
-23.59
-26.40
-23.59
-14.67
-2.22
9.33
16.15
16.83
12.97
8.24
6.42
9.50
16.67
25.03
31.14
33.17
31.89
30.00
30.44
34.16
39.48
42.93
41.43
34.33
24.08
14.91
10.54
12.18
17.76
23.27
25.01
21.59
14.66
7.86
4.66
6.40
11.66
17.02
19.09
16.38
10.02
3.05
-1.34
-1.73
0.74
3.16
2.46
-2.52
-10.19
-16.99
-19.54
-16.84
-11.23
-7.04
-7.94
-14.47
-23.33
-29.44
-29.22
-22.85
-14.31
-8.86
-9.70
-15.99
-23.64
-27.59
-25.09
-17.07
-7.62
-1.59
-2.00
-8.44
-17.33
-23.84
-24.39
-18.55
-9.24
-1.11
2.01
-0.78
-6.92
-12.03
-12.62
-8.17
-1.57
2.87
1.95
-4.33
-12.72
-18.63
-18.74
-12.93
-4.30
2.42
3.74
-0.53
-7.13
-10.89
-7.92
2.05
15.23
25.52
28.05
21.81
10.37
0.06
-3.51
1.55
12.59
24.13
31.15
31.80
28.13
24.24
23.41
26.00
29.23
29.25
24.02
14.99
6.44
2.95
6.40
14.40
21.48
21.97
13.21
-2.67
-20.00
-32.30
-35.65
-30.64
-21.75
-15.06
-14.87
-21.55
-31.50
-39.21
-40.42
-34.30
-23.93
-14.38
-9.79
-11.06
-15.40
-18.16
-15.80
-7.96
2.21
9.95
11.71
7.31
-0.03
-5.50
-5.28
1.17
11.20
20.48
25.48
25.51
22.73
20.68
21.87
26.24
31.23
33.45
30.86
24.35
17.28
13.71
15.98
23.13
31.27
35.41
32.11
21.37
6.77
-6.32
-13.36
-12.95
-7.49
-1.60
0.39
-3.15
-10.16
-16.51
-18.56
-15.71
-10.80
-8.38
-11.68
-20.32
-30.33
-36.35
-35.01
-27.02
-16.97
-10.50
-11.19
-18.35
-27.55
-33.29
-31.98
-23.90
-12.67
-3.14
1.44
1.02
-1.42
-1.89
2.27
10.58
19.63
25.04
24.14
17.60
9.55
5.27
8.36
18.55
31.65
41.72
44.27
38.64
28.34
18.82
14.40
15.73
19.66
21.26
16.97
6.86
-5.34
-14.37
-16.73
-12.70
-6.31
-2.97
-6.32
-16.09
-28.24
-37.39
-39.71
-35.04
-26.72
-19.66
-17.51
-20.85
-26.94
-31.51
-31.22
-25.60
-17.27
-10.39
-8.09
-10.49
-14.56
-15.88
-11.32
-1.12
11.12
20.33
22.99
19.21
12.74
8.86
11.23
19.76
30.45
37.71
37.52
29.61
17.79
7.60
3.31
5.54
11.13
15.05
13.50
5.99
-4.54
-13.59
-17.83
-16.98
-13.73
-11.99
-14.21
-19.96
-26.06
-28.64
-25.41
-17.29
-7.98
-1.87
-1.50
-5.94
-11.31
-13.05
-8.58
1.14
12.05
19.35
20.19
15.18
8.11
3.67
4.90
11.44
19.87
25.54
25.34
19.43
11.18
5.33
5.23
10.86
18.78
24.15
23.58
17.13
8.41
2.36
2.40
8.35
16.68
22.46
22.35
16.49
8.26
2.22
1.30
5.07
10.01
11.45
6.45
-4.47
-17.50
-27.41
-30.39
-25.95
-17.17
-8.85
-4.90
-6.22
-10.50
-13.78
-12.95
-7.65
-0.50
4.48
4.43
-0.76
-8.13
-13.37
-13.22
-7.38
1.35
8.68
11.29
8.80
3.80
0.34
1.30
6.58
12.97
15.79
11.78
1.19
-12.05
-22.24
-25.10
-20.19
-11.27
-4.05
-2.93
-8.39
-16.87
-22.99
-22.88
-16.50
-7.51
-0.96
0.10
-3.56
-7.84
-8.08
-2.11
8.31
18.34
22.94
19.77
10.55
0.11
-6.27
-5.62
1.30
10.51
17.11
17.96
13.22
6.18
1.12
0.91
5.24
10.83
13.42
10.24
1.83
-8.22
-15.32
-16.55
-12.28
-5.92
-1.91
-2.98
-8.63
-15.43
-19.07
-17.20
-10.73
-3.42
0.31
-1.66
-7.83
-13.60
-14.04
-6.89
5.91
18.88
26.14
24.58
15.59
4.49
-2.65
-2.12
5.41
15.45
22.38
22.58
16.38
7.62
1.27
0.30
3.92
8.13
8.17
1.58
-10.11
-22.07
-28.97
-28.02
-20.61
-11.37
-5.54
-5.99
-11.81
-19.07
-23.35
-22.29
-16.76
-10.26
-6.82
-8.72
-15.26
-23.00
-27.58
-25.97
-18.21
-7.47
1.60
5.30
3.07
-2.14
-5.68
-3.93
3.34
12.63
18.88
18.62
12.27
4.13
-0.25
2.61
11.82
22.61
29.14
27.91
19.80
9.46
2.62
2.73
9.10
17.63
23.26
23.10
17.80
10.92
6.45
6.44
9.70
12.72
11.91
5.72
-4.43
-14.85
-21.72
-23.05
-19.68
-14.61
-11.15
-10.95
-13.04
-14.35
-11.78
-4.37
5.78
14.14
16.28
10.47
-1.03
-13.00
-19.93
-19.05
-11.64
-2.16
4.44
5.53
1.99
-2.49
-4.05
-0.86
5.83
12.43
15.39
13.24
7.44
1.56
-0.83
1.60
7.38
12.90
14.59
11.14
4.21
-2.33
-4.76
-1.69
5.17
11.77
14.13
10.51
2.45
-6.13
-11.08
-10.32
-4.82
1.94
6.15
5.76
1.56
-3.18
-4.86
-1.60
5.57
13.05
16.85
14.82
7.99
0.03
-4.65
-3.64
2.33
9.74
14.26
13.42
7.85
0.93
-3.28
-2.38
2.84
8.96
11.93
9.48
2.54
-5.30
-9.83
-8.95
-3.92
1.04
1.38
-4.85
-15.53
-25.32
-28.64
-22.91
-10.08
4.27
14.10
16.19
11.74
5.38
2.31
5.16
12.74
20.96
25.43
24.12
18.37
11.94
8.56
9.64
13.27
15.39
12.13
2.30
-11.72
-25.21
-33.50
-34.57
-29.78
-23.10
-18.64
-18.36
-21.25
-24.11
-23.78
-19.05
-11.56
-4.85
-2.24
-4.94
-11.15
-16.97
-18.39
-13.60
-3.91
6.74
13.96
15.35
11.75
6.85
4.88
8.14
15.54
23.31
27.05
24.55
17.06
8.49
3.12
2.77
5.86
8.24
5.87
-2.54
-14.63
-25.44
-30.28
-27.10
-17.82
-7.10
0.21
1.72
-1.39
-5.12
-5.18
0.49
10.52
20.71
26.56
25.77
19.70
12.62
9.17
11.76
19.13
27.07
30.94
28.39
20.78
12.34
7.71
9.03
14.62
19.78
19.51
11.63
-1.83
-15.56
-23.95
-24.35
-18.50
-11.42
-8.37
-11.69
-19.59
-27.44
-30.70
-27.69
-20.48
-13.54
-11.04
-14.52
-21.98
-29.15
-31.86
-28.35
-20.15
-11.28
-6.06
-6.68
-12.01
-18.31
-21.42
-19.43
-13.85
-8.67
-7.83
-12.42
-19.68
-24.39
-21.86
-10.79
5.71
21.66
31.48
32.86
27.84
21.52
18.95
22.46
30.38
38.27
41.55
38.04
29.19
18.91
11.32
8.23
8.35
8.30
4.81
-2.96
-12.64
-19.88
-20.66
-13.85
-2.11
9.48
15.92
15.20
9.34
3.18
1.46
6.02
14.57
21.81
22.70
15.38
2.45
-10.25
-16.82
-14.48
-4.85
6.95
15.33
17.27
13.79
9.07
7.67
11.50
18.51
23.77
22.60
13.59
-0.16
-12.74
-18.68
-16.27
-8.59
-1.46
-0.18
-6.29
-16.62
-25.33
-27.28
-21.13
-10.01
0.26
4.53
1.14
-7.35
-15.76
-19.43
-16.80
-10.16
-4.16
-3.07
-8.02
-16.38
-23.31
-24.61
-19.21
-9.87
-1.66
0.94
-3.37
-12.05
-20.09
-22.96
-19.21
-11.34
-4.11
-1.78
-5.52
-12.65
-18.45
-18.88
-13.08
-3.86
3.77
5.56
0.26
-9.54
-18.89
-23.24
-20.80
-13.32
-4.86
0.55
1.13
-1.72
-4.57
-3.94
1.39
9.61
16.86
19.40
15.89
8.44
1.48
-0.66
3.83
12.91
21.99
26.56
24.68
18.30
11.92
9.79
13.19
19.78
24.77
24.11
16.86
6.00
-3.24
-6.19
-1.38
8.64
18.83
24.35
23.16
16.95
10.03
6.81
9.27
15.95
22.75
25.44
22.08
14.13
5.56
0.41
0.50
4.27
7.82
7.34
1.41
-7.86
-15.97
-18.69
-14.68
-6.52
0.51
1.47
-5.40
-17.53
-29.46
-35.79
-34.03
-25.90
-15.96
-8.94
-7.00
-8.77
-10.52
-8.78
-2.59
5.88
12.60
14.27
10.33
3.48
-1.67
-1.26
5.66
16.38
26.03
30.18
27.37
20.01
12.99
10.93
15.51
24.38
32.44
34.82
29.74
19.69
9.90
5.07
6.52
11.18
13.63
9.20
-2.90
-19.07
-33.12
-39.75
-37.40
-29.07
-20.56
-17.19
-20.95
-29.59
-38.17
-41.94
-39.06
-31.49
-23.67
-19.79
-21.27
-25.93
-29.39
-27.86
-20.51
-10.16
-1.67
0.86
-3.55
-12.19
-20.05
-22.58
-17.92
-7.90
3.26
11.16
13.77
12.33
10.46
11.82
17.66
25.92
32.49
33.68
28.65
20.20
13.21
11.81
16.87
25.47
32.55
33.97
28.80
19.91
12.17
9.56
13.09
20.22
26.35
27.57
22.91
14.67
7.48
5.38
9.62
17.76
25.05
27.06
22.22
12.79
3.39
-1.62
-0.88
3.12
5.57
2.35
-7.27
-19.89
-29.80
-32.36
-26.73
-16.61
-8.20
-6.67
-13.25
-24.38
-33.81
-36.19
-30.03
-18.39
-7.06
-1.04
-1.67
-6.25
-9.84
-8.49
-1.71
7.10
12.76
11.45
2.85
-9.40
-19.83
-23.96
-20.63
-12.56
-4.57
-0.96
-3.15
-8.89
-13.64
-13.25
-6.66
3.33
11.30
12.45
5.39
-6.60
-17.27
-20.79
-15.18
-3.39
8.47
14.66
13.35
7.47
2.70
3.79
11.53
22.13
29.53
29.03
20.16
7.01
-4.11
-8.23
-4.32
4.17
11.48
12.84
7.20
-2.47
-11.02
-14.24
-11.35
-5.39
-1.31
-2.94
-10.60
-20.74
-27.77
-27.30
-18.81
-6.06
4.82
8.81
4.90
-3.25
-9.56
-9.07
-1.03
10.56
19.37
20.48
13.43
2.67
-5.10
-4.93
3.49
15.73
25.10
26.54
19.43
7.71
-2.44
-6.22
-2.91
3.80
8.14
5.62
-4.08
-16.87
-26.57
-28.47
-22.41
-12.65
-5.66
-6.05
-13.93
-24.86
-32.65
-33.09
-26.54
-17.76
-12.92
-15.94
-26.33
-39.33
-48.82
-50.74
-45.28
-36.56
-30.35
-30.68
-37.71
-47.91
-56.16
-58.91
-56.27
-51.83
-50.43
-55.37
-66.18
-78.80
-87.87
-89.59
-83.80
-73.67
-63.24
-54.79
-47.48
-37.84
-22.29
0.59
29.35
60.90
91.12
117.47
139.52
158.30
175.27
190.59
202.75
209.94
211.47
208.33
203.20
198.33
194.46
191.15
186.83
179.26
166.34
146.94
121.83
94.80
73.22
61.49
61.99
73.28
89.74
103.41
106.94
94.64
67.93
32.58
-4.71
-38.62
-66.88
-89.56
-107.34
-120.28
-127.67
-128.60
-123.53
-114.65
-104.57
-95.84
-89.79
-86.24
-83.93
-81.19
-76.51
-69.65
-61.64
-53.88
-47.65
-43.58
-41.38
-40.18
-38.92
-36.72
-33.45
-29.67
-26.22
-23.82
-22.86
-23.16
-24.33
-25.85
-27.29
-28.59
-29.96
-31.79
-34.44
-38.09
-42.63
-47.92
-53.77
-60.00
-66.58
-73.51
-80.93
-89.00
-98.34
-108.82
-120.31
-132.70
-145.86
-159.63
-173.69
-187.62
-200.88
-212.67
-221.84
-227.08
-226.93
-219.94
-205.36
-182.21
-150.26
-110.16
-63.52
-12.74
39.07
88.48
132.25
167.70
193.14
207.85
212.23
207.69
196.46
181.11
164.24
148.08
134.25
123.64
116.26
111.41
107.88
104.25
99.03
91.04
79.50
64.13
45.17
23.27
-0.54
-25.00
-48.66
-69.96
-87.36
-99.58
-105.66
-105.12
-98.03
-85.10
-67.66
-47.55
-26.88
-7.88
7.39
17.27
20.67
17.25
7.32
-8.20
-27.90
-50.15
-73.24
-95.67
-116.17
-133.88
-148.21
-158.93
-166.07
-169.84
-170.53
-168.39
-163.65
-156.53
-147.89
-138.54
-129.32
-121.11
-114.68
-110.61
-109.12
-110.00
-112.64
-116.11
-119.20
-120.77
-119.87
-115.85
-108.41
-97.57
-83.69
-67.41
-49.70
-31.79
-15.11
-1.11
9.01
14.73
16.32
14.93
12.25
10.08
9.85
12.28
17.27
24.22
32.52
41.92
52.73
65.57
80.99
98.94
118.58
138.47
157.14
173.62
187.87
200.72
213.41
227.14
242.91
261.43
283.03
307.23
332.00
353.55
366.91
367.62
353.82
327.60
294.65
262.13
235.82
217.84
206.33
196.88
185.02
168.23
146.59
121.98
96.74
72.60
50.61
31.76
17.54
9.90
10.41
18.84
32.15
44.76
50.21
43.66
24.27
-4.07
-33.89
-57.05
-67.95
-65.59
-53.50
-37.71
-23.73
-14.24
-8.70
-4.73
-0.54
3.33
4.17
-1.14
-13.69
-31.21
-48.61
-60.45
-63.65
-58.93
-50.14
-41.56
-35.28
-30.10
-22.84
-11.17
3.90
17.67
23.80
17.85
-0.03
-24.80
-48.72
-64.91
-70.16
-65.52
-54.68
-41.44
-27.89
-14.42
-1.09
10.84
18.44
18.30
8.60
-9.21
-30.23
-47.91
-56.67
-54.36
-42.95
-27.31
-12.81
-3.03
1.34
1.94
1.14
0.56
0.43
-0.04
-1.74
-4.91
-8.90
-12.78
-15.79
-17.73
-18.82
-19.24
-18.79
-16.77
-12.23
-4.32
7.06
21.04
35.42
47.16
53.04
50.87
40.45
23.96
5.46
-10.59
-20.86
-24.41
-22.20
-16.19
-7.97
1.93
13.53
26.39
38.50
46.58
46.85
37.67
20.99
2.43
-10.61
-11.91
0.92
24.93
52.74
74.26
81.10
69.59
42.42
7.64
-24.37
-44.49
-48.36
-37.21
-17.80
1.84
15.35
20.59
19.85
18.42
22.17
32.79
51.88
74.41
94.22
106.63
110.86
110.31
109.26
111.77
119.07
132.64
149.92
168.19
184.07
196.09
203.15
203.74
196.02
179.20
155.64
130.12
109.45
99.17
100.88
109.22
115.65
111.52
91.15
53.61
1.10
-61.92
-131.07
-202.36
-272.18
-336.42
-390.10
-428.55
-447.32
-443.68
-417.12
-370.66
-310.81
-246.56
-186.90
-138.17
-102.09
-75.17
-51.50
-25.95
2.99
32.85
58.84
76.59
85.05
85.57
80.84
72.88
62.41
49.23
33.12
14.75
-4.17
-20.83
-32.59
-36.74
-31.74
-17.37
5.13
33.34
64.40
95.40
123.73
146.78
162.58
168.45
162.50
145.52
121.63
96.94
76.01
58.37
37.66
4.89
-46.30
-114.01
-187.02
-248.76
-284.69
-288.39
-264.99
-225.20
-180.70
-140.76
-111.22
-95.70
-96.39
-113.49
-143.61
-178.82
-207.65
-219.31
-207.40
-171.12
-116.28
-52.32
11.56
69.40
119.56
163.34
201.29
230.54
244.68
236.51
202.86
147.85
82.63
21.31
-24.39
-49.65
-57.86
-57.63
-57.91
-63.66
-74.62
-87.17
-98.43
-107.49
-115.36
-123.18
-130.33
-133.80
-128.81
-111.15
-80.70
-42.83
-7.45
14.85
17.57
2.13
-22.10
-41.65
-44.80
-26.52
10.52
58.84
110.35
159.26
202.46
237.57
261.23
269.29
258.47
228.80
184.77
134.24
86.05
48.00
24.95
17.87
24.18
38.49
54.49
67.08
74.15
77.25
80.37
87.29
99.27
114.35
128.07
135.92
135.35
126.19
109.46
85.87
55.42
18.74
-20.97
-57.43
-82.97
-92.09
-84.76
-67.17
-49.46
-41.35
-48.18
-69.35
-100.27
-135.78
-172.82
-210.40
-247.52
-280.58
-302.53
-305.31
-284.20
-242.11
-190.38
-145.39
-121.70
-125.28
-150.81
-184.32
-209.81
-216.16
-200.61
-167.25
-122.49
-70.83
-14.01
46.40
105.91
155.83
186.03
189.81
167.73
128.21
84.46
50.05
34.33
40.00
62.28
90.75
113.15
120.15
109.86
89.16
70.76
66.75
81.98
110.76
139.52
154.08
146.92
120.23
83.51
47.17
16.92
-7.32
-29.30
-51.91
-74.67
-94.13
-106.65
-111.44
-111.63
-112.73
-119.11
-131.21
-144.50
-151.07
-143.22
-116.94
-73.54
-19.14
38.00
90.27
132.31
161.13
175.64
175.81
162.53
138.04
105.57
68.48
29.12
-12.00
-55.05
-99.04
-140.66
-174.57
-195.44
-201.11
-194.28
-181.81
-171.00
-167.66
-173.68
-187.08
-205.36
-225.52
-245.71
-265.14
-282.13
-294.43
-299.21
-293.97
-277.67
-251.40
-217.68
-179.79
-140.35
-100.56
-60.31
-18.79
24.82
70.78
118.53
166.86
213.64
255.82
289.70
311.50
318.64
310.98
291.37
265.02
238.04
215.15
198.26
186.31
176.28
165.16
151.61
136.42
121.70
109.50
100.31
92.91
85.18
75.60
64.35
53.24
44.37
38.44
33.94
27.88
17.86
4.22
-9.61
-18.91
-20.93
-17.44
-14.60
-19.66
-36.45
-62.52
-89.77
-108.58
-112.75
-102.44
-83.30
-62.76
-45.77
-32.66
-20.00
-3.44
19.09
45.96
72.38
92.58
102.14
99.75
87.46
69.63
51.09
35.18
22.79
12.71
3.14
-6.73
-15.96
-22.31
-23.56
-18.68
-8.45
4.51
16.08
21.78
18.35
5.59
-12.96
-31.19
-43.08
-45.70
-40.50
-32.25
-26.02
-24.13
-25.26
-26.03
-24.01
-19.79
-16.79
-18.71
-26.63
-37.90
-47.44
-50.52
-44.93
-31.62
-13.51
6.07
24.72
41.40
56.10
69.36
82.04
95.28
110.29
128.01
148.33
169.83
190.07
206.42
216.99
221.19
219.44
212.48
200.62
183.64
161.18
133.39
101.39
67.02
32.17
-2.00
-35.44
-68.59
-101.52
-132.99
-160.55
-181.66
-195.06
-201.17
-201.12
-195.20
-182.13
-160.07
-129.04
-92.87
-59.01
-35.79
-28.55
-36.88
-54.89
-74.16
-87.46
-91.20
-85.68
-72.78
-54.02
-29.68
0.40
35.50
72.96
109.05
140.25
164.47
181.66
193.49
202.00
208.56
213.22
214.66
211.62
203.84
192.47
179.73
168.06
158.94
152.23
147.34
140.82
128.58
106.87
73.39
28.38
-24.62
-78.95
-125.98
-157.52
-169.81
-164.79
-149.31
-132.03
-119.65
-114.78
-116.05
-120.11
-124.26
-127.92
-131.90
-137.11
-143.44
-149.55
-153.87
-155.74
-155.73
-155.60
-157.74
-163.65
-173.52
-186.24
-199.98
-213.13
-224.98
-235.65
-246.00
-256.87
-268.12
-278.15
-284.78
-284.67
-274.58
-252.46
-217.95
-172.67
-119.76
-63.11
-6.51
46.89
95.07
136.85
171.79
199.86
221.26
236.37
245.60
249.50
248.76
244.42
237.91
231.30
227.21
227.86
233.79
242.81
249.90
248.62
233.63
202.79
158.59
107.61
58.61
19.69
-3.75
-10.06
-1.05
19.01
44.47
69.25
87.51
94.56
87.84
67.90
38.57
5.79
-24.42
-48.23
-64.91
-76.18
-84.20
-89.51
-90.29
-83.85
-69.06
-48.27
-27.12
-12.20
-8.01
-14.91
-29.25
-45.55
-59.13
-67.62
-70.79
-69.37
-63.87
-54.48
-41.65
-27.06
-13.80
-5.71
-5.86
-15.15
-31.80
-51.80
-70.12
-82.24
-85.45
-79.59
-67.17
-52.70
-41.32
-37.28
-42.55
-56.05
-74.04
-91.40
-103.07
-105.50
-97.23
-78.77
-51.97
-19.22
16.93
53.89
89.06
119.92
144.39
161.18
170.05
171.85
168.12
160.56
150.67
139.40
127.20
114.27
100.76
87.01
73.50
60.85
49.55
39.86
31.74
24.90
19.00
13.74
8.96
4.72
1.16
-1.57
-3.38
-4.33
-4.59
-4.38
-3.89
-3.26
-2.50
-1.52
-0.34
1.20
3.10
5.33
7.88
10.71
13.81
17.29
21.32
25.76
30.71
35.91
40.87
44.88
47.35
47.15
43.29
35.00
21.68
3.46
-19.36
-46.18
-75.85
-106.92
-137.96
-167.39
-193.61
-216.30
-233.66
-244.18
-246.76
-240.80
-226.34
-204.11
-175.36
-140.70
-103.04
-64.90
-28.65
3.79
31.19
52.85
68.63
78.94
84.56
86.25
85.28
82.68
79.23
75.48
71.74
68.11
64.64
61.46
58.22
55.03
51.95
49.05
46.38
43.99
41.88
40.05
38.33
36.45
34.31
31.73
28.44
24.23
18.96
12.67
5.54
-2.05
-9.67
-16.67
-22.45
-26.53
-28.58
-28.54
-26.52
-22.90
-18.19
-12.98
-7.82
-3.18
0.67
3.54
5.46
6.53
6.95
6.94
6.67
6.30
5.86
5.50
5.20
4.95
4.70
4.45
4.22
3.99
3.76
3.51
3.22
2.87
2.46
2.02
1.62
1.28
1.03
0.84
0.68
0.48
0.21
-0.14
-0.52
-0.85
-1.09
-1.21
-1.25
-1.31
-1.48
-1.83
-2.37
-2.97
-3.47
-3.72
-3.69
-3.47
-3.32
-3.53
-4.27
-5.52
-6.98
-8.24
-8.90
-8.87
-8.39
-8.02
-8.36
-9.79
-12.22
-15.07
-17.47
-18.73
-18.61
-17.60
-16.72
-17.01
-19.12
-22.88
-27.35
-31.19
-33.43
-33.73
-32.62
-31.25
-30.69
-31.71
-34.69
-39.82
-46.75
-54.15
-59.31
-58.51
-48.52
-28.27
-0.16
30.48
57.27
75.50
83.84
84.25
80.40
75.41
70.83
66.71
62.73
59.28
57.40
58.11
61.26
65.58
68.38
67.49
61.88
52.37
41.01
30.22
21.63
15.63
11.51
8.25
5.19
2.66
1.80
3.51
9.11
18.90
32.40
48.25
63.91
75.56
78.89
70.69
50.51
21.80
-9.16
-35.47
-52.31
-58.68
-57.14
-51.81
-46.09
-41.39
-37.12
-32.28
-26.55
-20.74
-16.16
-13.63
-12.85
-12.59
-11.43
-8.28
-3.17
3.04
9.15
14.29
18.22
21.42
24.86
29.40
35.39
42.29
48.91
53.76
55.60
53.74
48.23
39.68
29.05
17.28
5.29
-6.45
-17.55
-27.63
-36.34
-43.29
-48.12
-50.74
-51.42
-50.34
-48.10
-45.34
-42.60
-40.23
-38.36
-36.85
-35.50
-34.11
-32.41
-30.51
-28.61
-26.99
-25.87
-25.32
-25.18
-25.14
-24.83
-24.00
-22.76
-21.49
-20.63
-20.63
-21.58
-23.19
-24.90
-26.14
-26.60
-26.32
-25.83
-25.68
-26.34
-28.04
-30.75
-34.30
-38.22
-41.67
-43.37
-42.10
-37.14
-28.80
-18.53
-8.31
0.04
5.63
8.60
9.60
9.22
7.57
4.40
-0.54
-7.17
-14.86
-22.40
-28.21
-30.56
-28.02
-20.05
-7.59
6.95
20.43
29.87
33.74
32.28
27.16
20.65
14.61
9.97
6.81
4.68
2.85
0.60
-2.68
-7.30
-12.93
-18.66
-23.48
-26.65
-28.16
-29.04
-30.76
-34.19
-39.27
-44.46
-47.11
-44.88
-36.19
-20.61
1.27
27.83
56.32
81.80
98.59
101.97
91.07
70.65
50.32
40.62
47.98
71.66
103.39
132.29
149.58
152.06
142.19
125.24
105.75
84.94
63.17
39.63
15.27
-7.20
-24.58
-34.74
-38.00
-36.88
-34.58
-33.78
-35.55
-39.04
-42.29
-43.35
-41.28
-36.54
-30.76
-25.85
-23.06
-22.74
-24.04
-25.57
-25.99
-24.67
-21.86
-18.42
-15.39
-13.47
-12.85
-13.13
-13.57
-13.55
-12.78
-11.36
-9.69
-8.20
-7.16
-6.64
-6.45
-6.33
-6.09
-5.66
-5.15
-4.69
-4.41
-4.35
-4.49
-4.73
-5.01
-5.28
-5.59
-6.04
-6.73
-7.70
-8.98
-10.46
-11.98
-13.41
-14.69
-15.91
-17.25
-18.94
-21.12
-23.81
-26.73
-29.53
-31.91
-33.78
-35.38
-37.15
-39.68
-43.33
-48.09
-53.45
-58.64
-63.06
-66.48
-69.21
-71.94
-75.42
-79.79
-84.31
-87.30
-86.30
-79.16
-64.80
-43.63
-17.49
11.07
39.51
65.64
88.67
108.76
126.63
143.22
159.40
175.16
188.87
197.46
195.83
179.91
148.97
106.96
61.73
22.28
-4.85
-18.08
-20.48
-17.68
-14.58
-13.57
-14.63
-16.47
-17.51
-16.47
-12.42
-4.50
7.41
22.06
36.46
46.87
49.29
42.40
26.83
4.70
-21.06
-47.62
-72.09
-91.63
-103.67
-106.65
-100.00
-84.64
-62.69
-37.09
-11.65
9.30
21.36
22.31
13.22
-1.34
-15.19
-23.25
-23.77
-19.00
-13.32
-10.36
-10.37
-10.25
-5.29
7.20
25.78
45.22
58.74
61.84
54.39
40.69
26.81
16.67
9.69
1.83
-10.58
-27.09
-41.61
-45.48
-32.52
-3.29
34.26
68.34
88.76
91.60
79.10
59.37
40.20
25.42
14.18
3.06
-10.68
-27.54
-45.37
-60.90
-70.93
-74.16
-70.61
-60.89
-45.87
-26.85
-6.28
12.11
23.89
25.49
16.73
1.19
-15.08
-26.38
-29.86
-26.29
-18.86
-11.06
-4.73
0.09
4.21
8.05
11.00
12.00
10.44
6.84
2.72
-0.33
-1.01
0.68
3.79
6.74
8.24
7.72
5.54
2.70
0.37
-0.57
0.01
1.66
3.52
4.86
5.28
4.80
3.77
2.62
1.73
1.26
1.21
1.52
2.14
3.02
3.95
4.70
4.91
4.42
3.33
2.07
1.26
1.52
3.05
5.53
8.08
9.76
9.98
8.95
7.65
7.33
8.99
12.92
18.32
23.63
27.11
27.13
22.53
12.53
-2.88
-22.22
-42.27
-58.35
-65.63
-61.78
-48.17
-29.62
-12.42
-1.59
1.22
-2.21
-8.27
-13.76
-17.48
-20.02
-22.63
-25.92
-29.40
-31.86
-32.63
-32.05
-31.29
-31.87
-34.72
-39.60
-45.18
-49.50
-50.65
-47.43
-39.54
-27.55
-12.52
4.52
22.75
41.53
60.20
77.97
93.52
105.37
112.17
113.09
108.09
97.94
84.08
67.53
50.68
35.02
21.45
10.29
1.46
-5.43
-10.92
-15.52
-19.64
-23.52
-27.36
-31.13
-34.66
-37.71
-40.21
-42.24
-44.04
-45.86
-47.92
-50.36
-53.13
-55.98
-58.61
-61.03
-63.49
-66.29
-69.57
-72.98
-75.48
-75.47
-71.19
-61.41
-46.08
-26.46
-4.76
16.51
35.16
50.52
63.32
75.08
87.20
99.93
112.14
121.85
127.07
127.56
124.31
119.09
113.86
109.76
106.27
102.02
95.94
87.51
76.34
61.39
40.92
13.72
-18.54
-50.10
-72.26
-77.43
-63.54
-36.29
-7.14
12.15
14.76
1.41
-21.08
-44.02
-61.51
-72.13
-77.63
-80.18
-79.82
-74.92
-64.08
-48.12
-30.69
-17.67
-14.67
-24.11
-44.28
-67.94
-85.69
-89.15
-74.10
-41.72
1.35
46.05
84.07
109.88
123.44
126.59
121.51
107.45
85.35
55.84
21.01
-14.69
-47.83
-73.76
-91.82
-105.21
-118.94
-136.31
-157.19
-176.02
-180.37
-164.95
-123.70
-57.78
24.66
111.49
190.28
251.00
288.89
303.90
288.63
246.19
184.57
113.64
42.24
-22.54
-76.75
-118.34
-145.34
-157.93
-156.74
-146.57
-134.95
-129.86
-134.77
-150.77
-173.18
-192.62
-198.80
-182.40
-140.62
-77.86
-4.14
68.93
126.81
160.02
168.40
158.78
140.35
118.82
96.14
72.63
49.23
27.90
11.88
3.55
2.55
6.32
10.81
12.67
10.44
4.73
-2.55
-8.59
-11.23
-10.12
-6.65
-3.10
-1.36
-2.24
-5.35
-9.63
-13.47
-15.59
-15.73
-14.63
-13.54
-13.42
-14.70
-17.22
-20.45
-23.62
-26.03
-27.47
-28.21
-28.89
-30.04
-32.12
-35.31
-39.54
-44.38
-49.18
-53.17
-55.55
-55.80
-53.51
-48.61
-41.25
-31.72
-20.25
-6.92
8.26
25.15
42.59
59.50
74.47
86.11
93.57
96.95
97.30
96.24
95.32
95.27
95.85
95.88
94.01
89.73
83.60
77.18
72.08
69.23
68.35
68.55
69.04
69.68
70.49
70.63
67.89
58.17
38.04
6.84
-32.01
-71.87
-105.45
-128.26
-139.96
-143.46
-142.04
-136.32
-123.64
-99.88
-63.62
-18.97
24.66
56.50
69.92
65.73
51.73
37.98
30.63
28.65
24.98
12.21
-11.04
-37.60
-55.26
-54.10
-33.00
-0.53
30.10
48.75
53.58
50.33
46.86
46.94
47.92
43.39
28.26
3.18
-25.20
-48.26
-60.50
-61.82
-56.32
-48.59
-40.80
-32.54
-22.65
-11.54
-1.57
4.09
3.41
-2.88
-11.78
-19.65
-24.07
-24.73
-23.05
-20.82
-19.12
-17.94
-16.62
-14.68
-12.30
-10.08
-8.61
-8.01
-8.16
-8.44
-8.37
-7.68
-6.40
-4.86
-3.48
-2.59
-2.35
-2.62
-3.09
-3.42
-3.34
-2.78
-1.90
-0.95
-0.20
0.18
0.17
-0.09
-0.41
-0.62
-0.59
-0.32
0.15
0.73
1.26
1.58
1.57
1.16
0.44
-0.34
-0.83
-0.78
-0.09
1.01
2.02
2.42
1.88
0.57
-0.84
-1.39
-0.32
2.67
7.11
11.86
15.56
17.01
15.85
12.48
7.80
2.52
-2.95
-8.93
-16.09
-24.76
-35.30
-47.61
-61.42
-76.05
-89.89
-99.98
-102.51
-94.40
-74.53
-45.58
-13.33
15.40
35.47
45.27
46.81
43.95
40.13
37.07
34.47
31.42
27.60
23.75
21.11
20.51
21.70
23.50
24.54
23.68
20.90
17.06
13.41
11.08
10.49
11.27
12.53
13.23
12.68
10.84
8.26
5.77
4.07
3.49
3.84
4.61
5.17
5.07
4.20
2.77
1.22
-0.05
-0.75
-0.86
-0.59
-0.26
-0.32
-1.06
-2.65
-4.97
-7.67
-10.22
-12.09
-12.89
-12.48
-11.01
-8.80
-6.19
-3.29
0.12
4.47
10.17
17.26
25.35
33.58
41.02
47.03
51.39
54.31
56.38
58.18
59.96
62.14
64.93
68.55
72.57
75.65
75.65
70.35
58.60
41.04
20.62
1.34
-12.88
-19.86
-19.86
-14.90
-7.80
-0.77
4.78
8.11
8.26
3.74
-7.07
-24.66
-47.35
-71.38
-90.85
-101.53
-101.96
-93.91
-81.14
-67.56
-55.77
-46.28
-38.44
-31.33
-24.83
-19.28
-15.23
-12.84
-11.77
-11.36
-10.72
-9.38
-7.23
-4.73
-2.48
-0.93
-0.21
-0.07
-0.06
0.28
1.15
2.49
3.95
5.14
5.83
6.02
5.90
5.78
5.91
6.33
6.96
7.61
8.10
8.40
8.59
8.89
9.49
10.69
12.48
14.73
17.22
19.61
21.48
22.34
21.85
19.72
15.81
10.14
2.90
-5.37
-14.01
-22.25
-29.32
-34.52
-37.33
-37.51
-34.67
-29.58
-22.90
-15.41
-7.84
-0.83
5.19
10.06
13.86
16.85
19.28
21.52
23.76
26.05
28.36
30.49
32.20
33.19
33.20
31.91
29.20
25.05
19.67
13.50
7.34
2.18
-1.05
-1.77
-0.07
3.40
7.36
10.36
11.14
9.06
4.34
-2.29
-9.39
-16.44
-23.11
-29.59
-36.34
-43.60
-51.14
-58.06
-63.25
-66.00
-66.22
-64.58
-62.37
-60.83
-60.87
-63.06
-67.70
-74.53
-82.13
-87.91
-87.70
-77.96
-57.47
-28.56
3.25
31.34
50.65
59.65
60.34
56.63
52.01
48.08
44.62
40.71
36.01
31.26
27.71
26.18
26.45
27.37
27.50
25.78
22.15
17.44
12.91
9.64
8.08
7.92
8.26
8.09
6.71
4.07
0.62
-2.94
-6.04
-8.49
-10.48
-12.44
-14.82
-17.79
-21.06
-23.97
-25.61
-25.21
-22.11
-16.05
-7.19
3.74
15.60
26.95
36.33
42.61
45.04
43.60
38.92
32.14
24.48
16.91
10.09
4.30
-0.12
-2.93
-3.67
-1.83
2.90
10.18
18.97
27.67
34.56
38.79
40.11
39.30
37.72
36.84
37.95
42.04
49.79
60.03
71.53
80.64
82.25
71.86
48.00
13.63
-24.42
-58.11
-81.50
-92.74
-94.19
-90.36
-85.49
-81.58
-78.82
-76.80
-75.59
-75.70
-76.91
-77.92
-76.31
-69.63
-56.54
-37.47
-14.43
9.89
32.80
52.38
67.37
77.36
82.88
85.14
85.23
83.39
78.79
69.48
54.65
35.59
16.08
1.09
-5.39
-2.90
5.65
15.13
20.04
17.61
8.37
-4.44
-16.38
-23.56
-24.31
-19.08
-9.91
1.03
12.38
22.95
30.73
32.52
25.13
7.51
-17.13
-41.56
-56.89
-56.76
-40.91
-15.26
10.36
27.99
35.09
35.38
34.63
37.47
44.06
50.31
50.04
38.30
14.94
-14.61
-41.24
-56.39
-55.62
-40.88
-19.65
-1.08
8.18
6.68
-2.32
-13.77
-24.16
-32.80
-41.16
-50.50
-59.88
-66.29
-66.16
-57.69
-42.38
-24.51
-8.92
0.97
4.33
2.82
-0.74
-3.71
-4.68
-3.79
-2.21
-1.30
-1.95
-4.19
-7.24
-10.06
-11.78
-12.12
-11.52
-10.67
-10.12
-9.97
-9.85
-9.25
-7.85
-5.81
-3.71
-2.19
-1.54
-1.55
-1.70
-1.56
-1.19
-1.10
-2.01
-4.27
-7.63
-11.27
-14.16
-15.61
-15.46
-14.12
-12.19
-10.09
-7.87
-5.28
-1.98
2.18
7.04
12.26
17.44
22.19
26.20
29.08
30.46
30.10
28.15
25.19
22.17
19.92
18.85
18.63
18.46
17.50
15.41
12.59
9.96
8.45
8.42
9.51
10.73
11.02
9.70
6.74
2.71
-1.59
-5.44
-8.38
-10.16
-10.68
-9.86
-7.69
-4.36
-0.25
4.03
7.81
10.57
12.02
12.12
11.02
8.99
6.32
3.29
0.16
-2.86
-5.58
-7.87
-9.56
-10.55
-10.77
-10.32
-9.44
-8.51
-7.88
-7.85
-8.57
-9.99
-11.93
-14.10
-16.09
-17.43
-17.67
-16.53
-14.03
-10.53
-6.63
-3.05
-0.33
1.22
1.60
1.03
-0.10
-1.38
-2.36
-2.66
-2.03
-0.40
2.06
4.97
7.89
10.42
12.34
13.58
14.18
14.22
13.86
13.30
12.88
12.95
13.73
15.12
16.67
17.68
17.59
16.17
13.58
10.24
6.54
2.65
-1.49
-5.98
-10.68
-15.24
-19.05
-21.50
-22.19
-21.08
-18.43
-14.74
-10.60
-6.51
-2.86
0.17
2.52
4.25
5.38
5.88
5.77
5.12
4.21
3.39
3.07
3.50
4.67
6.31
8.03
9.44
10.30
10.55
10.27
9.63
8.74
7.67
6.45
5.08
3.62
2.19
0.97
0.12
-0.26
-0.17
0.27
0.82
1.20
1.11
0.33
-1.20
-3.36
-5.76
-7.83
-8.99
-8.78
-7.15
-4.49
-1.56
0.78
1.89
1.67
0.58
-0.51
-0.63
0.83
3.87
7.92
12.09
15.50
17.63
18.38
17.96
16.73
14.94
12.75
10.32
7.82
5.52
3.70
2.53
1.98
1.87
1.98
2.13
2.29
2.50
2.84
3.26
3.65
3.83
3.62
2.91
1.70
0.07
-1.86
-3.99
-6.20
-8.37
-10.26
-11.54
-11.88
-11.10
-9.31
-6.88
-4.34
-2.15
-0.54
0.55
1.35
2.10
2.92
3.78
4.57
5.21
5.71
6.13
6.57
7.11
7.74
8.38
8.87
9.04
8.76
8.00
6.82
5.41
3.96
2.65
1.63
0.98
0.71
0.76
1.06
1.46
1.85
2.13
2.22
2.07
1.62
0.83
-0.30
-1.73
-3.40
-5.27
-7.33
-9.52
-11.67
-13.45
-14.35
-13.92
-11.96
-8.67
-4.63
-0.61
2.75
5.08
6.40
6.99
7.21
7.32
7.43
7.52
7.57
7.60
7.65
7.82
8.13
8.53
8.88
9.00
8.79
8.28
7.66
7.17
7.02
7.23
7.66
8.02
8.10
7.81
7.25
6.59
5.95
5.40
4.89
4.37
3.82
3.31
2.87
2.53
2.21
1.84
1.37
0.79
0.09
-0.76
-1.79
-2.97
-4.03
-4.58
-4.14
-2.49
0.16
3.15
5.56
6.64
6.19
4.67
2.99
2.08
2.43
3.84
5.63
6.97
7.30
6.64
5.51
4.68
4.78
6.04
8.12
10.34
11.89
12.17
10.95
8.30
4.49
-0.15
-5.26
-10.53
-15.93
-21.98
-29.94
-41.56
-58.21
-79.70
-103.31
-123.90
-135.25
-132.29
-113.31
-80.91
-41.21
-1.82
30.67
52.51
63.10
64.31
59.02
50.06
39.56
29.01
19.57
12.20
7.61
5.94
6.60
8.40
9.94
10.16
8.76
6.28
3.80
2.38
2.62
4.40
7.01
9.50
11.09
11.46
10.73
9.35
7.71
6.08
4.46
2.83
1.17
-0.30
-1.28
-1.51
-0.93
0.23
1.53
2.48
2.71
2.15
1.00
-0.34
-1.42
-1.87
-1.54
-0.54
0.73
1.73
1.88
0.78
-1.61
-4.92
-8.41
-11.20
-12.54
-12.06
-9.89
-6.57
-2.91
0.31
2.53
3.51
3.35
2.34
0.89
-0.65
-1.98
-2.95
-3.51
-3.73
-3.67
-3.46
-3.21
-2.99
-2.86
-2.82
-2.77
-2.58
-2.08
-1.17
0.12
1.60
2.96
3.89
4.16
3.75
2.82
1.68
0.64
-0.10
-0.50
-0.63
-0.71
-0.92
-1.41
-2.26
-3.49
-5.08
-6.93
-8.87
-10.60
-11.78
-12.11
-11.46
-9.95
-7.88
-5.67
-3.68
-2.07
-0.88
-0.01
0.58
0.91
0.97
0.81
0.61
0.63
1.07
1.98
3.22
4.55
5.74
6.65
7.28
7.70
7.92
7.89
7.56
6.93
6.09
5.20
4.38
3.67
2.96
2.15
1.18
0.08
-1.03
-2.04
-2.92
-3.73
-4.57
-5.52
-6.63
-7.88
-9.26
-10.77
-12.36
-13.84
-14.87
-15.04
-14.02
-11.72
-8.40
-4.54
-0.76
2.44
4.78
6.26
7.04
7.34
7.36
7.22
6.98
6.72
6.51
6.43
6.58
6.96
7.54
8.20
8.81
9.24
9.40
9.24
8.77
8.07
7.20
6.27
5.33
4.45
3.60
2.72
1.75
0.69
-0.41
-1.40
-2.16
-2.61
-2.82
-3.00
-3.41
-4.27
-5.64
-7.42
-9.33
-11.02
-12.09
-12.26
-11.38
-9.47
-6.76
-3.61
-0.45
2.34
4.49
5.92
6.65
6.79
6.46
5.81
5.04
4.35
4.01
4.19
4.88
5.93
7.05
7.95
8.43
8.43
8.01
7.33
6.61
6.05
5.84
6.06
6.60
7.22
7.58
7.38
6.44
4.81
2.66
0.26
-2.10
-4.21
-5.89
-7.07
-7.83
-8.34
-8.81
-9.40
-10.03
-10.43
-10.21
-9.05
-6.86
-3.88
-0.60
2.48
4.92
6.52
7.26
7.17
6.34
4.83
2.76
0.36
-2.06
-4.20
-5.82
-6.88
-7.48
-7.74
-7.72
-7.36
-6.55
-5.21
-3.44
-1.53
0.10
1.12
1.36
0.95
0.21
-0.46
-0.71
-0.34
0.70
2.32
4.39
6.76
9.31
11.95
14.56
17.05
19.27
21.11
22.48
23.40
24.01
24.52
25.17
26.10
27.30
28.57
29.66
30.37
30.71
30.97
31.66
33.19
35.58
38.27
40.25
40.53
38.61
34.94
30.75
27.58
26.52
27.72
30.29
32.83
34.08
33.54
31.65
29.52
28.26
28.37
29.40
30.06
28.76
24.25
16.09
4.65
-9.09
-23.77
-38.12
-51.31
-63.50
-76.46
-93.61
-119.14
-156.03
-203.64
-256.25
-303.75
-334.39
-338.69
-312.49
-258.13
-183.39
-99.04
-16.19
55.90
111.28
148.22
169.29
180.30
188.29
199.06
215.48
237.26
262.08
287.23
310.81
331.58
348.18
358.63
360.45
351.42
330.45
297.92
255.33
204.90
149.12
90.48
31.50
-25.47
-78.31
-125.24
-164.72
-195.50
-216.85
-229.00
-233.44
-232.52
-228.63
-223.34
-216.99
-209.16
-199.47
-188.35
-177.29
-168.35
-163.23
-162.53
-165.51
-170.31
-174.55
-175.60
-170.93
-158.68
-138.55
-111.88
-81.53
-51.04
-23.56
-1.26
15.60
28.40
39.34
50.40
62.68
76.04
88.91
98.47
101.07
94.28
78.20
55.53
30.27
6.27
-13.85
-29.38
-41.28
-51.69
-61.52
-69.80
-74.41
-73.38
-65.73
-51.43
-31.27
-3.53
27.92
54.68
68.81
68.02
55.69
37.77
20.69
9.59
7.06
12.26
22.64
35.04
46.96
58.27
70.02
83.85
100.94
120.93
140.92
157.28
166.50
166.39
156.47
137.75
112.61
84.12
55.15
26.39
0.72
-19.70
-34.40
-44.77
-53.18
-61.46
-69.72
-76.05
-77.30
-69.95
-52.16
-24.63
9.00
42.78
70.03
85.37
86.47
74.59
54.09
30.37
8.20
-9.62
-22.81
-33.35
-44.23
-57.94
-75.62
-96.57
-118.87
-139.56
-155.75
-165.60
-169.33
-168.83
-166.34
-163.53
-160.67
-156.91
-149.75
-136.01
-112.92
-79.87
-39.05
5.28
47.38
81.41
102.85
109.93
103.38
88.23
69.85
50.19
29.64
9.10
-8.60
-22.45
-30.57
-32.83
-31.67
-31.21
-34.84
-42.08
-50.42
-54.38
-51.11
-39.60
-19.93
6.49
37.30
70.07
104.53
140.20
175.28
206.23
229.54
243.73
248.50
244.27
222.94
183.60
133.00
81.21
37.35
-1.38
-38.12
-74.87
-110.41
-142.64
-167.88
-183.67
-189.60
-187.22
-178.97
-166.15
-150.22
-132.91
-116.10
-99.79
-83.45
-66.54
-49.13
-31.89
-15.01
0.85
15.09
27.47
39.14
51.00
62.92
73.45
80.48
83.09
81.50
77.07
71.50
66.54
62.72
59.37
55.13
48.76
40.14
30.06
20.09
12.02
7.43
6.79
9.01
11.80
12.62
10.26
5.36
0.37
-1.68
1.53
10.59
24.26
40.21
55.99
69.72
80.02
85.85
86.33
80.80
69.21
52.28
31.43
8.37
-15.30
-38.26
-59.58
-78.69
-95.31
-109.20
-119.98
-127.03
-129.63
-127.15
-119.35
-106.65
-90.20
-71.90
-53.83
-37.83
-25.20
-16.60
-12.10
-11.07
-12.34
-14.51
-16.38
-17.17
-16.66
-15.00
-12.42
-9.00
-4.42
1.88
10.88
22.19
33.82
43.07
48.23
49.59
48.77
47.91
48.76
52.94
59.31
65.90
70.90
73.35
73.47
72.23
71.15
71.75
72.68
72.81
70.48
64.15
53.33
39.41
25.05
13.57
7.81
8.87
16.15
25.69
31.72
30.33
21.99
9.45
-4.26
-17.51
-31.11
-46.76
-66.29
-90.41
-119.79
-150.33
-177.88
-199.55
-213.68
-220.13
-219.13
-212.03
-201.81
-191.82
-183.67
-178.99
-179.06
-179.89
-178.34
-170.01
-151.12
-120.58
-79.09
-27.15
32.72
96.32
158.73
215.08
262.93
301.77
331.84
341.32
324.32
283.93
230.95
176.45
126.14
82.05
48.89
23.07
3.46
-6.92
-4.98
10.45
38.01
70.95
102.49
126.13
136.22
131.25
114.64
91.72
67.64
45.91
27.97
14.22
4.08
-4.10
-11.41
-17.93
-24.19
-31.00
-39.13
-48.98
-60.04
-71.27
-81.81
-90.51
-96.27
-99.11
-99.63
-98.73
-97.17
-95.02
-91.46
-85.43
-75.98
-61.79
-44.72
-28.84
-17.47
-10.69
-5.82
0.48
9.67
20.84
31.56
39.14
42.46
42.37
42.01
42.28
43.27
44.25
44.37
43.29
41.07
38.31
35.62
33.19
30.51
27.23
23.34
18.66
14.45
11.78
12.09
15.70
21.11
25.48
26.40
22.52
14.01
2.33
-10.67
-23.18
-33.88
-42.20
-48.25
-52.21
-54.61
-55.98
-56.63
-56.93
-57.22
-57.87
-58.95
-61.20
-63.34
-64.18
-62.82
-58.70
-51.89
-43.03
-33.24
-23.71
-15.40
-8.50
-2.81
2.33
7.67
13.61
19.78
24.84
27.07
25.12
18.89
9.54
-0.98
-10.79
-18.38
-23.20
-25.60
-26.42
-26.54
-26.60
-27.11
-28.34
-30.21
-31.96
-32.34
-30.04
-24.48
-16.22
-6.83
1.77
8.11
11.81
13.46
14.12
14.46
14.50
13.78
12.01
9.58
7.25
6.00
6.72
10.11
16.07
23.51
30.72
35.88
37.83
35.95
30.21
21.48
11.68
2.82
-3.43
-5.84
-3.42
4.78
18.35
35.13
52.12
66.93
77.70
83.62
85.06
83.50
81.12
78.85
76.69
69.75
56.85
40.95
27.38
24.51
33.49
53.27
81.13
110.55
135.94
153.41
160.66
157.32
138.51
105.81
66.99
29.59
-2.69
-30.02
-53.84
-75.48
-95.61
-114.39
-132.93
-150.37
-166.95
-183.02
-198.46
-212.85
-226.24
-239.32
-252.88
-267.06
-275.73
-275.51
-263.96
-239.64
-202.83
-156.43
-105.67
-56.67
-14.05
20.36
46.21
64.95
78.51
88.23
94.66
97.98
98.76
98.43
98.68
99.78
101.04
101.12
98.59
92.81
84.18
74.15
64.77
57.90
54.16
53.31
54.42
56.20
57.67
58.17
57.82
57.51
58.74
63.15
72.16
86.60
105.83
128.10
150.50
170.57
187.26
201.31
214.59
228.41
242.43
252.95
254.32
239.94
205.36
150.00
77.69
-3.63
-83.91
-152.95
-204.53
-236.53
-251.83
-255.57
-253.21
-249.31
-246.60
-246.87
-251.19
-262.42
-274.41
-279.79
-272.61
-252.91
-226.48
-198.49
-176.08
-152.87
-121.83
-78.10
-21.27
45.32
116.09
181.87
231.03
254.34
252.20
232.98
207.94
184.00
161.14
138.97
109.87
70.45
22.49
-28.19
-76.46
-119.28
-153.23
-175.48
-184.73
-181.76
-167.00
-140.96
-104.58
-60.95
-14.33
32.82
78.96
122.98
163.12
198.36
227.96
251.19
266.69
263.26
236.13
190.56
139.07
92.66
56.04
28.21
5.75
-14.49
-33.83
-49.98
-60.97
-66.29
-67.44
-66.73
-65.78
-65.28
-65.34
-65.98
-65.97
-64.39
-61.11
-55.08
-46.19
-34.83
-22.29
-10.84
-2.83
1.07
1.68
0.77
-0.05
-0.13
0.27
0.34
-0.56
-2.12
-2.82
-1.22
3.21
9.21
14.45
16.21
12.62
3.45
-9.58
-23.31
-34.56
-41.06
-43.00
-42.01
-40.86
-41.98
-46.12
-51.58
-54.93
-52.68
-42.38
-25.19
-4.41
14.62
26.35
26.64
14.00
-10.79
-45.43
-86.33
-131.69
-172.63
-198.32
-201.82
-185.85
-160.12
-133.88
-115.92
-99.69
-77.59
-43.70
2.88
58.25
116.28
167.74
203.98
220.57
217.78
196.74
160.71
113.45
58.70
-0.57
-56.04
-102.24
-137.52
-157.39
-159.49
-141.61
-103.47
-47.88
18.94
89.24
155.76
214.58
262.78
295.07
306.03
291.20
249.12
182.94
100.96
10.00
-72.51
-129.34
-155.81
-159.00
-150.03
-136.56
-121.33
-104.39
-85.87
-66.32
-48.73
-38.84
-38.78
-48.00
-63.22
-79.49
-90.97
-92.32
-79.64
-51.21
-13.91
21.88
47.30
58.70
58.04
50.75
42.36
36.35
32.35
27.46
20.07
11.02
2.93
-1.78
-2.38
-0.14
2.70
3.37
-0.18
-7.84
-17.57
-26.75
-33.40
-36.95
-38.11
-37.85
-37.77
-38.81
-40.59
-41.50
-39.79
-34.51
-25.97
-15.50
-4.94
4.03
10.34
13.85
15.77
17.65
20.63
24.95
30.12
35.33
39.81
43.10
45.12
46.99
50.18
55.82
64.57
76.67
92.15
110.74
132.02
150.29
162.10
165.69
160.59
147.62
128.55
105.61
80.93
56.18
32.84
9.18
-13.59
-32.73
-45.99
-53.28
-56.41
-57.62
-58.50
-59.10
-58.03
-53.88
-45.97
-34.73
-21.64
-8.48
3.68
12.94
18.00
18.68
15.33
9.70
3.81
-0.84
-4.79
-8.79
-15.45
-27.68
-46.83
-72.89
-102.25
-129.54
-149.59
-159.01
-157.25
-146.17
-128.25
-100.28
-64.71
-24.91
14.94
50.29
78.74
98.44
109.40
114.74
119.69
126.36
137.16
152.00
168.09
181.16
186.94
182.69
167.73
142.89
109.23
69.40
26.44
-16.35
-55.68
-88.81
-113.84
-130.08
-138.16
-140.36
-138.92
-136.18
-133.99
-133.41
-134.83
-137.90
-141.55
-144.21
-144.37
-140.63
-132.92
-122.70
-112.65
-105.69
-103.65
-106.36
-111.48
-115.40
-114.42
-106.59
-91.97
-72.19
-49.54
-26.33
-4.25
15.93
34.42
52.20
70.10
88.40
106.77
124.07
138.26
146.96
148.52
142.39
129.12
109.23
83.34
52.60
19.21
-13.71
-42.41
-62.88
-72.22
-68.19
-52.39
-31.16
-12.57
-0.40
6.92
12.51
19.23
26.72
33.97
39.11
40.84
39.39
36.44
33.79
32.46
32.60
33.63
34.90
35.60
35.54
35.59
37.47
42.82
52.45
66.20
82.83
100.39
116.35
128.68
136.71
141.32
144.17
146.69
149.46
151.96
152.87
150.51
143.72
132.58
118.36
103.06
88.55
76.06
65.64
56.15
45.05
28.91
4.14
-31.89
-79.46
-135.14
-191.34
-237.62
-263.44
-262.18
-234.16
-187.04
-133.28
-85.30
-51.01
-31.33
-21.37
-14.14
-4.88
6.81
17.57
22.26
16.64
-1.21
-30.73
-70.59
-119.49
-176.04
-236.97
-294.95
-339.16
-358.10
-343.89
-295.98
-222.86
-139.16
-60.28
3.76
51.96
90.00
125.01
160.79
195.99
225.63
245.25
253.95
251.53
241.57
229.89
220.55
212.61
203.38
189.12
169.74
147.96
127.04
110.47
99.69
93.50
89.05
83.52
74.92
62.64
46.46
25.94
0.52
-30.73
-68.26
-111.02
-155.75
-197.80
-232.08
-254.53
-262.78
-256.05
-235.60
-204.91
-169.17
-134.17
-105.01
-84.58
-72.98
-67.78
-65.28
-62.40
-57.47
-50.03
-39.73
-25.80
-7.30
15.48
40.20
62.81
79.03
86.14
84.02
74.90
61.96
48.17
35.52
25.10
17.39
12.31
9.02
5.91
1.10
-6.54
-16.56
-26.80
-34.52
-38.00
-37.41
-34.73
-32.56
-32.73
-35.50
-39.33
-41.30
-38.48
-29.36
-14.95
1.16
13.82
18.13
11.10
-7.46
-34.86
-66.66
-97.87
-124.01
-141.56
-148.40
-144.12
-129.93
-108.03
-80.11
-47.19
-10.26
28.68
65.78
95.83
114.10
118.62
111.31
97.96
84.58
74.33
66.68
59.05
49.75
39.68
32.00
29.48
33.22
40.01
43.72
39.15
25.84
9.12
-2.40
-1.35
14.40
42.40
75.86
107.56
130.08
137.97
131.34
116.06
103.43
92.32
77.37
53.11
15.37
-33.95
-88.92
-142.23
-187.40
-221.11
-243.64
-251.04
-244.23
-231.08
-221.93
-221.38
-224.49
-219.70
-200.47
-162.96
-109.33
-47.85
11.73
62.91
104.73
134.82
153.56
162.68
164.56
161.68
155.67
148.10
141.22
137.33
137.40
140.98
145.66
148.33
146.30
137.98
123.71
105.59
86.32
67.85
51.46
37.41
25.58
15.74
7.70
1.74
-1.31
-0.55
4.29
12.71
22.99
32.76
39.73
42.52
41.36
37.80
34.02
31.81
32.19
35.03
39.33
43.62
46.45
46.81
44.38
39.57
33.29
26.76
21.09
17.08
15.35
16.34
20.31
27.21
36.45
46.95
57.48
67.22
76.06
84.63
93.59
103.08
112.27
119.49
122.74
120.26
111.04
94.78
71.65
42.04
6.56
-33.57
-76.16
-118.16
-156.15
-187.28
-210.08
-224.78
-232.93
-236.34
-236.06
-231.90
-222.82
-207.92
-187.29
-162.49
-135.85
-109.61
-84.84
-61.10
-36.90
-10.77
17.69
47.53
76.86
103.77
126.80
144.74
156.00
158.30
149.28
127.84
95.40
56.23
16.45
-18.00
-43.31
-58.65
-65.57
-66.49
-63.36
-57.17
-48.45
-37.97
-27.14
-17.75
-11.21
-8.13
-8.05
-9.93
-12.64
-15.47
-18.17
-20.72
-23.03
-24.65
-24.80
-22.79
-18.57
-12.90
-7.31
-3.44
-2.46
-4.59
-9.11
-14.71
-19.94
-23.64
-25.12
-24.18
-21.06
-16.40
-11.11
-6.21
-2.59
-0.64
-0.14
-0.32
-0.18
1.15
4.07
8.39
13.50
18.50
22.53
24.98
25.61
24.51
22.07
18.84
15.39
12.19
9.60
7.83
6.90
6.67
6.85
7.05
6.89
6.19
4.97
3.45
1.93
0.63
-0.42
-1.38
-2.48
-3.92
-5.77
-7.86
-9.90
-11.48
-12.31
-12.37
-11.96
-11.63
-11.94
-13.23
-15.44
-18.14
-20.74
-22.71
-23.81
-24.08
-23.78
-23.35
-23.30
-24.06
-25.80
-28.11
-30.04
-30.32
-27.75
-21.76
-12.61
-1.29
10.92
22.83
33.64
42.87
50.22
55.40
58.07
57.91
54.82
49.05
41.21
32.24
23.28
15.51
9.81
6.52
5.36
5.39
5.31
3.78
-0.04
-6.16
-13.69
-21.14
-27.10
-30.80
-32.51
-33.21
-33.88
-34.80
-35.29
-34.26
-31.01
-25.88
-20.16
-15.39
-12.39
-10.85
-9.60
-7.37
-3.63
1.16
5.87
9.43
11.09
10.37
6.77
-0.57
-12.44
-28.82
-48.09
-66.76
-80.18
-83.99
-75.76
-56.04
-28.35
2.02
29.73
50.95
64.13
69.74
69.29
64.36
56.13
45.47
33.59
22.21
13.34
8.42
7.42
8.71
9.65
7.95
2.67
-5.01
-12.43
-16.57
-15.27
-7.80
5.16
21.88
39.74
55.58
66.12
68.83
62.69
48.77
30.03
10.24
-7.37
-21.50
-32.81
-42.84
-52.49
-60.98
-65.79
-63.76
-52.80
-33.36
-8.99
14.86
33.52
45.07
50.91
54.70
59.98
68.17
77.87
85.37
86.97
81.09
68.71
52.31
34.45
17.04
0.90
-11.27
-17.26
-18.26
-18.76
-23.33
-33.69
-47.74
-61.03
-69.41
-71.01
-67.50
-62.60
-59.63
-59.77
-61.91
-63.58
-62.60
-58.40
-51.76
-44.55
-38.53
-34.39
-31.78
-30.22
-30.19
-31.74
-35.06
-38.85
-40.09
-34.76
-19.68
5.82
36.88
66.30
87.48
97.00
95.83
87.99
78.20
69.80
63.86
59.90
57.30
55.88
55.82
57.22
59.57
62.00
63.58
63.53
62.02
60.13
59.29
60.36
62.76
64.13
61.07
50.56
31.84
6.50
-21.05
-45.59
-63.31
-73.15
-76.70
-76.84
-75.22
-73.24
-70.47
-65.81
-58.84
-50.34
-41.83
-34.70
-29.48
-25.83
-23.00
-20.13
-16.95
-13.75
-11.13
-9.56
-9.03
-9.07
-9.03
-8.37
-6.86
-4.71
-2.49
-0.79
0.05
0.06
-0.38
-0.83
-0.85
-0.29
0.70
1.75
2.50
2.76
2.58
2.19
1.91
1.94
2.32
2.91
3.47
3.79
3.77
3.51
3.21
3.14
3.46
4.13
4.91
5.49
5.59
5.11
4.25
3.49
3.36
4.26
6.22
8.79
11.33
13.21
14.04
13.90
13.23
12.52
12.06
11.52
9.99
6.29
-0.35
-9.89
-21.28
-32.68
-42.10
-48.13
-50.36
-49.59
-47.33
-45.12
-44.26
-45.58
-49.47
-55.26
-60.95
-63.35
-58.43
-44.48
-22.21
4.59
30.43
50.17
61.40
65.05
64.22
62.15
60.50
58.91
55.97
51.05
44.78
39.22
36.74
38.46
43.67
49.51
52.19
48.68
37.53
19.41
-3.36
-27.48
-49.37
-65.56
-73.48
-72.04
-62.45
-48.24
-34.51
-25.88
-24.87
-31.15
-42.14
-54.55
-65.64
-73.26
-75.07
-68.16
-49.54
-18.45
22.05
65.89
105.41
134.06
147.97
146.60
130.85
103.75
69.81
34.94
5.49
-13.64
-20.62
-17.47
-8.98
-0.55
4.23
4.31
0.57
-5.42
-12.60
-20.48
-28.45
-35.12
-38.35
-35.98
-27.04
-12.65
4.15
19.44
29.89
33.99
32.17
26.18
18.19
9.73
1.53
-6.13
-12.90
-18.04
-20.63
-20.09
-16.54
-10.77
-4.11
1.97
6.22
7.70
5.91
0.97
-6.42
-14.84
-22.30
-26.63
-26.18
-20.31
-9.71
3.82
17.82
29.64
37.15
39.17
35.68
27.79
17.46
7.00
-1.63
-6.07
-4.85
2.07
13.25
26.26
38.58
48.56
55.81
61.06
65.27
68.41
69.14
65.14
54.37
36.33
12.87
-12.25
-34.67
-51.03
-60.35
-63.85
-63.97
-62.79
-61.07
-58.21
-53.12
-45.33
-35.58
-25.82
-18.25
-14.39
-14.35
-17.03
-20.56
-23.21
-23.95
-22.60
-19.79
-16.54
-13.78
-12.10
-11.57
-11.79
-12.17
-12.14
-11.33
-9.66
-7.31
-4.60
-1.90
0.34
1.67
1.67
0.06
-3.20
-7.78
-13.04
-18.08
-21.94
-23.90
-23.69
-21.60
-18.45
-15.22
-12.70
-11.04
-9.80
-8.09
-5.23
-1.11
3.56
7.59
9.83
9.73
7.57
4.27
0.96
-1.56
-3.00
-3.64
-3.96
-4.41
-5.28
-6.67
-8.61
-10.90
-13.20
-14.88
-15.20
-13.51
-9.54
-3.61
3.52
10.86
17.62
23.40
28.30
32.71
37.05
41.56
46.18
50.63
54.45
57.23
58.63
58.50
56.78
53.49
48.63
42.16
34.24
25.30
16.23
8.26
2.66
0.27
1.07
4.10
7.72
10.18
10.24
7.59
2.81
-3.01
-8.75
-13.74
-17.81
-21.17
-24.12
-26.80
-29.21
-31.24
-32.81
-33.84
-34.23
-33.77
-32.09
-28.80
-23.62
-16.65
-8.40
0.16
7.82
13.37
15.93
15.19
11.60
6.25
0.61
-3.96
-6.56
-7.04
-5.93
-4.11
-2.43
-1.40
-1.11
-1.40
-2.05
-3.00
-4.23
-5.65
-6.91
-7.47
-6.80
-4.73
-1.64
1.57
3.84
4.39
3.05
0.32
-2.90
-5.72
-7.55
-8.28
-8.14
-7.47
-6.58
-5.70
-5.06
-4.96
-5.59
-6.96
-8.71
-10.12
-10.31
-8.60
-4.83
0.54
6.56
12.13
16.29
18.46
18.50
16.62
13.27
9.04
4.64
0.79
-1.87
-2.99
-2.65
-1.43
-0.23
0.05
-1.15
-3.79
-7.25
-10.60
-12.96
-13.78
-12.97
-10.91
-8.23
-5.70
-4.02
-3.60
-4.50
-6.29
-8.18
-9.24
-8.75
-6.45
-2.63
2.04
6.81
11.01
14.12
15.58
14.73
10.90
3.75
-6.33
-17.96
-29.02
-37.23
-40.86
-39.30
-33.15
-24.02
-13.85
-4.53
2.63
6.92
8.30
7.28
4.73
1.73
-0.64
-1.56
-0.65
1.84
5.07
7.78
8.78
7.40
3.77
-1.13
-5.90
-9.21
-10.28
-9.13
-6.35
-2.81
0.65
3.46
5.26
5.90
5.32
3.58
0.90
-2.32
-5.54
-8.23
-10.03
-10.84
-10.90
-10.67
-10.74
-11.60
-13.56
-16.67
-20.67
-25.07
-29.19
-32.34
-33.89
-33.40
-30.70
-25.96
-19.64
-12.46
-5.31
0.98
5.71
8.51
9.34
8.55
6.73
4.64
2.99
2.32
2.80
4.24
6.13
7.85
8.92
9.17
8.79
8.24
7.98
8.33
9.28
10.58
11.82
12.64
12.84
12.44
11.58
10.49
9.26
7.90
6.29
4.31
1.89
-0.91
-3.95
-7.06
-10.06
-12.80
-15.12
-16.89
-18.09
-18.86
-19.62
-20.97
-23.52
-27.53
-32.70
-38.08
-42.35
-44.23
-42.88
-38.18
-30.66
-21.30
-11.24
-1.56
6.88
13.38
17.57
19.43
19.30
17.84
15.85
14.08
13.00
12.85
13.57
14.93
16.55
18.01
18.96
19.28
19.06
18.63
18.36
18.48
18.94
19.48
19.73
19.38
18.27
16.36
13.71
10.40
6.54
2.34
-1.96
-6.13
-9.97
-13.43
-16.46
-18.90
-20.40
-20.45
-18.55
-14.38
-8.13
-0.43
7.74
15.24
21.17
25.01
26.73
26.69
25.49
23.72
21.93
20.57
19.90
20.06
20.85
21.85
22.47
22.22
20.91
18.78
16.34
14.15
12.59
11.85
11.90
12.65
13.93
15.45
16.74
17.25
16.58
14.70
11.99
9.17
6.95
5.77
5.67
6.27
7.00
7.18
6.30
4.06
0.50
-4.08
-9.15
-14.15
-18.62
-22.24
-24.79
-26.07
-25.95
-24.46
-22.00
-19.38
-17.73
-18.08
-21.00
-26.28
-32.98
-39.62
-44.69
-47.04
-46.12
-41.97
-35.17
-26.57
-17.16
-7.91
0.39
7.21
12.36
15.94
18.29
19.75
20.61
20.96
20.81
20.18
19.23
18.16
17.20
16.52
16.23
16.41
17.14
18.50
20.43
22.70
24.89
26.51
27.12
26.53
24.75
22.05
18.83
15.54
12.61
10.28
8.55
7.17
5.73
3.85
1.41
-1.39
-4.11
-6.23
-7.41
-7.62
-7.17
-6.62
-6.57
-7.53
-9.70
-12.86
-16.45
-19.69
-21.83
-22.44
-21.50
-19.35
-16.51
-13.39
-10.21
-6.92
-3.45
0.15
3.64
6.62
8.68
9.57
9.27
7.94
5.87
3.46
1.16
-0.39
-0.52
1.32
5.23
10.73
16.75
22.04
25.66
27.40
27.78
27.71
27.97
28.75
29.56
29.55
27.95
24.49
19.53
13.81
8.19
3.33
-0.49
-3.31
-5.43
-7.19
-8.89
-10.66
-12.50
-14.36
-16.22
-18.15
-20.28
-22.60
-24.88
-26.55
-26.90
-25.32
-21.59
-16.11
-9.75
-3.62
1.35
4.75
6.77
8.05
9.26
10.82
12.59
14.01
14.38
13.30
10.92
7.96
5.43
4.17
4.53
6.36
9.08
12.04
14.72
16.84
18.30
19.08
19.17
18.54
17.28
15.50
13.44
11.36
9.44
7.76
6.26
4.77
3.09
1.06
-1.37
-4.07
-6.85
-9.51
-11.93
-14.14
-16.32
-18.72
-21.53
-24.78
-28.25
-31.49
-33.94
-35.05
-34.41
-31.84
-27.46
-21.67
-15.01
-8.16
-1.73
3.79
8.04
10.85
12.20
12.28
11.40
10.00
8.55
7.44
6.96
7.23
8.25
9.89
11.97
14.21
16.27
17.81
18.56
18.40
17.39
15.74
13.69
11.49
9.35
7.50
6.19
5.62
5.83
6.61
7.52
8.06
7.80
6.61
4.65
2.30
-0.02
-1.97
-3.44
-4.51
-5.48
-6.73
-8.58
-11.15
-14.22
-17.19
-19.24
-19.58
-17.73
-13.68
-7.90
-1.15
5.72
11.97
17.08
20.75
22.92
23.69
23.30
22.09
20.44
18.75
17.31
16.38
16.09
16.51
17.62
19.28
21.21
23.05
24.44
25.06
24.80
23.73
22.02
19.91
17.55
15.00
12.27
9.40
6.49
3.67
1.02
-1.46
-3.87
-6.26
-8.57
-10.63
-12.21
-13.19
-13.74
-14.27
-15.34
-17.37
-20.40
-24.02
-27.38
-29.51
-29.57
-27.14
-22.39
-15.94
-8.72
-1.72
4.29
8.82
11.68
12.91
12.73
11.47
9.48
7.16
4.91
3.06
1.84
1.39
1.67
2.55
3.77
4.99
5.88
6.27
6.21
5.98
5.94
6.27
6.81
7.10
6.55
4.86
2.13
-1.08
-4.08
-6.37
-7.85
-8.81
-9.70
-10.84
-12.30
-13.98
-15.77
-17.72
-19.96
-22.56
-25.36
-27.95
-29.82
-30.52
-29.88
-27.97
-24.98
-21.08
-16.39
-11.05
-5.36
0.19
4.95
8.42
10.42
11.25
11.51
11.82
12.57
13.73
15.02
16.02
16.43
16.21
15.50
14.55
13.60
12.78
12.09
11.40
10.56
9.42
7.92
6.10
4.09
1.95
-0.41
-3.21
-6.71
-10.94
-15.52
-19.71
-22.66
-23.85
-23.43
-22.23
-21.41
-21.93
-24.05
-27.09
-29.72
-30.42
-28.13
-22.62
-14.64
-5.61
2.88
9.62
14.13
16.70
18.07
19.02
19.92
20.64
20.77
19.93
18.19
16.05
14.22
13.23
13.09
13.28
13.02
11.73
9.32
6.24
3.23
1.05
0.06
0.27
1.30
2.66
3.88
4.58
4.47
3.37
1.27
-1.68
-5.17
-8.80
-12.28
-15.48
-18.46
-21.34
-24.12
-26.56
-28.16
-28.26
-26.27
-21.94
-15.46
-7.56
0.71
8.24
14.17
18.18
20.49
21.74
22.68
23.82
25.34
27.07
28.68
29.88
30.51
30.46
29.58
27.71
24.73
20.88
16.84
13.62
12.11
12.56
14.23
15.50
14.43
9.56
0.48
-11.91
-25.76
-38.91
-49.57
-56.75
-60.36
-60.99
-59.56
-57.02
-54.16
-51.49
-49.33
-47.80
-46.90
-46.60
-46.74
-47.10
-47.29
-46.80
-45.05
-41.49
-35.76
-27.78
-17.80
-6.34
5.86
17.97
29.19
38.79
46.20
51.05
53.22
52.83
50.29
46.18
41.16
35.91
30.99
26.81
23.58
21.34
20.01
19.48
19.70
20.64
22.31
24.61
27.32
30.06
32.40
33.99
34.56
33.90
31.72
27.74
21.79
14.15
5.75
-1.93
-7.29
-9.29
-7.90
-4.23
-0.12
2.62
2.92
0.75
-3.10
-7.53
-11.67
-15.21
-18.31
-21.21
-23.92
-26.00
-26.65
-25.12
-21.08
-14.83
-7.30
0.25
6.71
11.46
14.51
16.40
17.85
19.42
21.17
22.71
23.33
22.41
19.68
15.32
9.91
4.23
-1.02
-5.30
-8.36
-10.18
-10.94
-10.98
-10.71
-10.53
-10.71
-11.30
-12.11
-12.80
-13.03
-12.66
-11.86
-11.05
-10.74
-11.28
-12.71
-14.68
-16.55
-17.60
-17.32
-15.50
-12.41
-8.65
-5.08
-2.56
-1.79
-3.09
-6.19
-10.30
-14.15
-16.40
-16.03
-12.61
-6.49
1.39
9.90
17.99
24.99
30.62
34.81
37.58
38.95
39.01
37.96
36.20
34.21
32.40
30.92
29.60
28.13
26.21
23.82
21.18
18.72
16.81
15.59
14.90
14.37
13.51
11.91
9.28
5.48
0.61
-4.95
-10.48
-15.08
-17.86
-18.35
-16.74
-13.90
-11.11
-9.53
-9.71
-11.40
-13.71
-15.59
-16.41
-16.29
-15.98
-16.54
-18.75
-22.77
-28.12
-33.85
-38.94
-42.47
-43.72
-42.06
-37.03
-28.44
-16.66
-2.75
11.61
24.43
33.94
39.05
39.63
36.44
30.93
24.73
19.27
15.41
13.29
12.42
12.00
11.30
9.97
8.15
6.38
5.26
5.24
6.34
8.16
10.00
11.08
10.85
9.11
6.13
2.45
-1.23
-4.40
-6.90
-8.91
-10.88
-13.23
-16.15
-19.55
-23.08
-26.37
-29.16
-31.40
-33.22
-34.82
-36.35
-37.81
-39.06
-39.82
-39.69
-38.19
-34.82
-29.20
-21.23
-11.29
-0.32
10.32
19.19
25.18
27.83
27.38
24.64
20.57
16.06
11.71
7.92
4.89
2.77
1.59
1.29
1.63
2.29
2.98
3.54
3.99
4.49
5.24
6.35
7.85
9.56
11.20
12.43
13.00
12.84
12.10
11.03
9.82
8.50
6.93
4.89
2.25
-0.88
-4.26
-7.61
-10.77
-13.83
-17.04
-20.61
-24.61
-28.76
-32.58
-35.44
-36.73
-35.97
-32.89
-27.56
-20.39
-12.09
-3.59
4.20
10.55
15.10
17.84
19.04
19.12
18.56
17.75
17.02
16.53
16.36
16.46
16.73
17.03
17.19
17.01
16.29
14.85
12.70
10.13
7.66
5.86
5.09
5.28
5.92
6.27
5.74
4.13
1.70
-1.06
-3.73
-6.15
-8.46
-10.93
-13.75
-16.81
-19.84
-22.45
-24.43
-25.79
-26.78
-27.68
-28.71
-29.87
-30.96
-31.70
-31.83
-31.17
-29.63
-27.07
-23.33
-18.30
-12.03
-4.92
2.32
8.74
13.51
16.14
16.71
15.77
14.16
12.61
11.56
11.12
11.15
11.47
12.02
12.80
13.85
15.08
16.28
17.11
17.32
16.84
15.80
14.47
13.05
11.64
10.12
8.34
6.16
3.62
0.89
-1.83
-4.38
-6.74
-9.02
-11.39
-13.97
-16.85
-20.04
-23.52
-27.12
-30.51
-33.03
-33.89
-32.27
-27.74
-20.54
-11.58
-2.26
6.06
12.42
16.58
18.91
20.04
20.53
20.64
20.36
19.61
18.43
17.07
15.88
15.12
14.87
14.96
15.12
15.07
14.68
13.93
12.91
11.70
10.38
9.03
7.65
6.24
4.68
2.82
0.58
-1.98
-4.63
-7.02
-8.84
-10.07
-11.00
-12.18
-14.16
-17.15
-20.85
-24.47
-26.99
-27.49
-25.49
-21.10
-14.94
-7.95
-1.07
4.96
9.76
13.19
15.35
16.37
16.43
15.71
14.42
12.86
11.34
10.15
9.53
9.54
10.12
11.02
11.95
12.58
12.65
12.05
10.83
9.19
7.39
5.71
4.23
2.85
1.28
-0.80
-3.54
-6.83
-10.26
-13.32
-15.55
-16.85
-17.50
-18.12
-19.38
-21.77
-25.31
-29.50
-33.42
-35.98
-36.25
-33.80
-28.80
-21.97
-14.37
-7.04
-0.73
4.26
8.00
10.76
12.79
14.18
14.83
14.52
13.06
10.45
6.96
3.21
0.18
-1.02
0.59
5.48
13.24
22.55
31.44
37.92
40.58
39.06
34.05
26.88
18.94
11.23
4.19
-2.11
-7.72
-12.60
-16.65
-19.84
-22.37
-24.66
-27.12
-29.89
-32.73
-35.13
-36.54
-36.74
-35.99
-34.86
-33.91
-33.24
-32.36
-30.31
-26.06
-19.08
-9.60
1.32
12.14
21.29
27.59
30.53
30.30
27.65
23.66
19.53
16.30
14.62
14.64
15.92
17.66
18.89
18.91
17.55
15.24
12.88
11.52
11.89
14.13
17.65
21.28
23.66
23.69
20.94
15.84
9.47
3.18
-1.96
-5.52
-7.68
-9.06
-10.24
-11.56
-13.01
-14.44
-15.74
-16.99
-18.42
-20.24
-22.57
-25.36
-28.52
-31.83
-34.96
-37.36
-38.31
-37.03
-32.98
-26.12
-17.06
-6.93
2.91
11.30
17.52
21.47
23.45
24.03
23.75
23.10
22.40
21.92
21.82
22.13
22.70
23.24
23.43
23.02
21.99
20.55
19.00
17.63
16.59
15.87
15.36
14.83
14.04
12.74
10.77
8.16
5.29
2.75
1.25
1.23
2.61
4.75
6.68
7.52
6.84
4.83
2.13
-0.57
-2.92
-5.04
-7.41
-10.60
-14.91
-20.20
-25.82
-30.79
-33.87
-33.89
-30.01
-22.04
-10.75
2.22
14.64
24.33
29.81
30.69
27.59
21.76
14.51
6.83
-0.70
-7.72
-13.90
-18.87
-22.26
-23.84
-23.69
-22.13
-19.59
-16.49
-13.09
-9.49
-5.71
-1.72
2.38
6.38
9.89
12.50
13.87
13.88
12.65
10.52
7.91
5.24
2.87
1.07
-0.03
-0.49
-0.61
-0.88
-1.87
-3.93
-7.07
-10.90
-14.80
-18.17
-20.70
-22.38
-23.54
-24.56
-25.74
-27.06
-28.18
-28.46
-27.15
-23.71
-18.02
-10.51
-2.12
5.98
12.82
17.76
20.71
21.91
21.76
20.65
18.89
16.77
14.68
13.09
12.44
12.99
14.57
16.69
18.61
19.72
19.80
19.07
18.08
17.37
17.22
17.48
17.75
17.62
16.91
15.76
14.55
13.60
13.01
12.59
11.98
10.87
9.17
7.07
4.92
3.06
1.64
0.58
-0.32
-1.32
-2.50
-3.78
-4.94
-5.78
-6.31
-6.72
-7.31
-8.26
-9.48
-10.45
-10.37
-8.42
-4.10
2.50
10.62
19.09
26.58
32.03
34.86
35.00
32.81
28.90
24.00
18.81
13.93
9.74
6.39
3.81
1.77
0.03
-1.53
-2.94
-4.17
-5.19
-6.05
-6.82
-7.62
-8.54
-9.69
-11.24
-13.30
-15.93
-18.96
-22.01
-24.60
-26.34
-27.17
-27.35
-27.34
-27.55
-28.15
-28.98
-29.68
-29.89
-29.40
-28.23
-26.62
-24.94
-23.56
-22.77
-22.70
-23.18
-23.73
-23.59
-21.89
-17.99
-11.74
-3.60
5.44
14.16
21.52
26.89
30.18
31.69
31.86
31.11
29.73
27.96
26.01
24.15
22.69
21.87
21.84
22.50
23.58
24.64
25.25
25.06
23.96
22.10
19.77
17.33
15.00
12.83
10.69
8.38
5.75
2.78
-0.40
-3.61
-6.67
-9.51
-12.11
-14.49
-16.62
-18.44
-19.87
-20.99
-22.05
-23.40
-25.40
-28.13
-31.29
-34.18
-35.88
-35.53
-32.61
-27.10
-19.54
-10.88
-2.25
5.23
10.77
14.02
15.14
14.69
13.38
11.85
10.44
9.26
8.19
7.14
6.11
5.26
4.84
5.01
5.78
6.95
8.20
9.15
9.51
9.14
8.03
6.31
4.19
1.93
-0.25
-2.16
-3.82
-5.37
-7.08
-9.17
-11.62
-14.22
-16.57
-18.33
-19.41
-20.03
-20.62
-21.65
-23.38
-25.72
-28.16
-29.89
-30.03
-27.79
-22.81
-15.31
-6.14
3.41
11.94
18.38
22.19
23.45
22.73
20.80
18.38
15.92
13.66
11.62
9.81
8.28
7.20
6.78
7.15
8.20
9.61
10.89
11.62
11.56
10.79
9.58
8.25
6.95
5.66
4.23
2.50
0.44
-1.86
-4.23
-6.55
-8.79
-11.06
-13.48
-16.14
-19.06
-22.23
-25.61
-29.23
-33.01
-36.74
-39.88
-41.59
-40.95
-37.29
-30.54
-21.34
-10.98
-1.01
7.19
12.82
15.67
16.09
14.77
12.56
10.37
9.14
9.63
12.18
16.54
21.74
26.38
29.06
28.96
26.12
21.42
16.23
11.83
8.94
7.54
7.00
6.51
5.48
3.84
2.00
0.57
-0.02
0.24
0.91
1.37
1.08
-0.12
-2.05
-4.34
-6.69
-8.97
-11.29
-13.81
-16.65
-19.72
-22.85
-25.64
-27.61
-28.18
-26.71
-22.69
-15.95
-6.87
3.57
13.95
22.80
28.98
32.04
32.26
30.50
27.82
25.11
22.90
21.31
20.25
19.54
19.02
18.58
18.12
17.55
16.83
15.99
15.11
14.29
13.60
12.93
12.11
10.90
9.16
6.92
4.36
1.82
-0.39
-2.10
-3.35
-4.35
-5.45
-6.93
-8.91
-11.29
-13.81
-16.18
-18.19
-19.82
-21.18
-22.48
-23.88
-25.42
-26.96
-28.19
-28.71
-28.08
-25.93
-22.10
-16.63
-9.88
-2.49
4.71
10.90
15.47
18.20
19.24
19.01
17.99
16.55
14.87
13.04
11.19
9.55
8.40
7.96
8.23
9.07
10.20
11.34
12.26
12.76
12.67
11.81
10.14
7.77
5.05
2.40
0.14
-1.58
-2.93
-4.24
-5.82
-7.82
-10.15
-12.54
-14.70
-16.44
-17.78
-18.87
-20.01
-21.47
-23.41
-25.85
-28.57
-31.11
-32.73
-32.60
-30.02
-24.71
-17.05
-8.01
1.02
8.73
14.26
17.40
18.56
18.45
17.73
16.82
15.89
14.91
13.89
12.93
12.21
11.89
12.00
12.43
12.98
13.45
13.74
13.85
13.81
13.60
13.15
12.27
10.82
8.76
6.23
3.54
1.05
-0.93
-2.32
-3.22
-3.93
-4.74
-5.87
-7.33
-9.07
-10.99
-13.03
-15.22
-17.63
-20.33
-23.27
-26.25
-28.92
-30.76
-31.19
-29.67
-25.93
-20.10
-12.77
-4.90
2.45
8.50
12.88
15.71
17.37
18.26
18.58
18.34
17.51
16.18
14.69
13.49
13.03
13.44
14.53
15.82
16.74
16.88
16.15
14.76
13.12
11.61
10.43
9.48
8.50
7.17
5.30
2.91
0.21
-2.53
-5.13
-7.45
-9.45
-11.10
-12.37
-13.36
-14.30
-15.54
-17.47
-20.25
-23.65
-27.03
-29.44
-29.96
-27.97
-23.39
-16.75
-8.96
-1.12
5.83
11.30
15.13
17.47
18.68
19.06
18.83
18.14
17.11
15.91
14.74
13.79
13.23
13.05
13.18
13.48
13.77
13.96
13.99
13.84
13.46
12.76
11.64
10.01
7.91
5.47
2.89
0.37
-1.99
-4.21
-6.38
-8.57
-10.77
-12.85
-14.64
-16.02
-17.04
-17.97
-19.17
-20.98
-23.56
-26.68
-29.75
-31.87
-32.10
-29.73
-24.59
-17.12
-8.36
0.41
7.99
13.62
17.16
18.95
19.61
19.70
19.58
19.35
18.99
18.44
17.75
16.99
16.30
15.75
15.34
15.04
14.79
14.54
14.25
13.89
13.41
12.74
11.79
10.49
8.79
6.73
4.43
2.06
-0.19
-2.18
-3.91
-5.49
-7.05
-8.67
-10.37
-12.05
-13.62
-15.03
-16.40
-17.99
-20.10
-22.90
-26.28
-29.77
-32.56
-33.73
-32.49
-28.50
-22.00
-13.83
-5.18
2.76
9.13
13.62
16.39
17.90
18.63
18.89
18.79
18.38
17.74
17.06
16.57
16.43
16.62
16.96
17.16
17.02
16.52
15.86
15.30
15.00
14.93
14.82
14.33
13.17
11.26
8.80
6.16
3.72
1.69
0.08
-1.35
-2.89
-4.81
-7.20
-9.92
-12.63
-14.92
-16.48
-17.25
-17.50
-17.72
-18.47
-20.21
-23.07
-26.79
-30.78
-34.16
-35.96
-35.35
-31.79
-25.32
-16.60
-6.83
2.53
10.19
15.39
18.14
19.06
19.10
19.10
19.48
20.25
21.07
21.57
21.54
21.06
20.33
19.63
19.15
18.96
19.02
19.31
19.74
20.26
20.73
20.92
20.55
19.39
17.32
14.50
11.30
8.26
5.85
4.36
3.71
3.53
3.25
2.39
0.73
-1.61
-4.25
-6.74
-8.74
-10.22
-11.34
-12.44
-13.78
-15.46
-17.39
-19.35
-21.15
-22.74
-24.27
-25.96
-28.01
-30.44
-32.96
-35.02
-35.91
-34.90
-31.46
-25.47
-17.32
-7.90
1.56
9.80
15.87
19.40
20.63
20.29
19.23
18.16
17.45
17.09
16.91
16.68
16.29
15.78
15.23
14.76
14.41
14.12
13.82
13.41
12.86
12.21
11.53
10.87
10.20
9.39
8.30
6.86
5.10
3.16
1.18
-0.72
-2.47
-4.07
-5.41
-6.39
-6.89
-6.92
-6.67
-6.51
-6.91
-8.17
-10.39
-13.34
-16.57
-19.57
-21.95
-23.56
-24.54
-25.24
-26.06
-27.36
-29.23
-31.48
-33.63
-35.02
-34.96
-32.83
-28.32
-21.52
-13.02
-3.80
4.94
12.09
16.96
19.44
19.92
19.12
17.81
16.57
15.73
15.44
15.72
16.52
17.71
19.04
20.20
20.93
21.10
20.79
20.19
19.49
18.70
17.62
15.94
13.46
10.26
6.78
3.68
1.50
0.43
0.22
0.29
0.05
-0.85
-2.33
-4.03
-5.50
-6.48
-6.97
-7.23
-7.56
-8.18
-9.21
-10.62
-12.31
-14.08
-15.68
-16.85
-17.46
-17.58
-17.55
-17.95
-19.34
-22.03
-25.83
-30.00
-33.33
-34.48
-32.39
-26.62
-17.60
-6.59
4.69
14.49
21.55
25.36
26.12
24.53
21.52
17.98
14.66
12.15
10.83
10.77
11.78
13.35
14.83
15.69
15.66
14.87
13.69
12.56
11.81
11.51
11.39
11.04
9.98
7.95
5.02
1.67
-1.30
-3.07
-3.08
-1.32
1.57
4.52
6.30
6.03
3.40
-1.20
-6.80
-12.23
-16.40
-18.55
-18.47
-16.46
-13.28
-9.95
-7.57
-7.01
-8.78
-12.80
-18.53
-25.01
-31.06
-35.45
-37.13
-35.39
-30.06
-21.63
-11.26
-0.58
8.75
15.47
19.07
19.84
18.60
16.36
13.91
11.66
9.72
8.02
6.59
5.55
5.06
5.26
6.13
7.55
9.35
11.34
13.33
15.07
16.22
16.46
15.63
13.85
11.52
9.20
7.31
6.01
5.10
4.17
2.87
1.11
-0.92
-2.81
-4.18
-4.85
-4.90
-4.60
-4.31
-4.36
-4.96
-6.22
-8.10
-10.39
-12.76
-14.83
-16.25
-16.91
-16.99
-16.98
-17.50
-19.02
-21.57
-24.68
-27.37
-28.51
-27.17
-22.96
-16.15
-7.64
1.36
9.66
16.40
21.16
23.94
24.98
24.59
23.05
20.61
17.57
14.28
11.14
8.57
6.89
6.29
6.78
8.15
10.11
12.20
13.92
14.78
14.44
12.82
10.20
7.11
4.20
2.01
0.79
0.44
0.56
0.71
0.53
-0.13
-1.20
-2.48
-3.80
-5.04
-6.17
-7.27
-8.44
-9.78
-11.35
-13.06
-14.67
-15.88
-16.41
-16.26
-15.72
-15.35
-15.70
-17.09
-19.26
-21.44
-22.53
-21.52
-17.90
-11.84
-4.12
4.17
12.00
18.60
23.59
26.76
28.02
27.27
24.56
20.21
14.94
9.79
5.82
3.79
3.89
5.75
8.56
11.48
13.90
15.58
16.64
17.35
17.84
18.06
17.69
16.34
13.78
10.06
5.62
1.14
-2.68
-5.32
-6.63
-6.85
-6.46
-5.98
-5.78
-6.02
-6.63
-7.45
-8.28
-9.00
-9.51
-9.80
-9.90
-9.96
-10.21
-10.94
-12.31
-14.22
-16.20
-17.49
-17.26
-14.93
-10.35
-3.90
3.66
11.39
18.36
23.82
27.24
28.37
27.23
24.19
19.91
15.28
11.17
8.21
6.69
6.49
7.26
8.56
10.06
11.53
12.85
13.89
14.48
14.48
13.79
12.42
10.55
8.39
6.15
3.97
1.85
-0.24
-2.39
-4.66
-7.07
-9.50
-11.79
-13.72
-15.13
-15.93
-16.25
-16.32
-16.51
-17.10
-18.21
-19.80
-21.66
-23.51
-25.04
-25.89
-25.65
-23.77
-19.76
-13.38
-4.89
4.82
14.40
22.38
27.66
29.83
29.14
26.36
22.34
17.78
13.13
8.72
4.90
2.11
0.78
1.17
3.14
6.22
9.66
12.75
15.01
16.24
16.49
15.93
14.79
13.22
11.34
9.28
7.15
5.03
2.89
0.70
-1.61
-3.99
-6.23
-8.05
-9.17
-9.46
-9.10
-8.46
-8.04
-8.30
-9.43
-11.30
-13.42
-15.08
-15.44
-13.75
-9.58
-2.92
5.73
15.38
24.81
32.80
38.46
41.38
41.66
39.71
36.14
31.53
26.39
21.16
16.25
12.08
8.94
7.00
6.15
6.10
6.42
6.68
6.61
6.18
5.54
4.87
4.28
3.64
2.64
0.94
-1.67
-5.05
-8.78
-12.31
-15.14
-17.04
-18.07
-18.48
-18.59
-18.65
-18.80
-19.08
-19.55
-20.25
-21.23
-22.50
-23.96
-25.33
-26.15
-25.80
-23.67
-19.38
-13.00
-5.14
3.11
10.53
16.07
19.19
19.89
18.64
16.07
12.77
9.14
5.48
2.03
-0.85
-2.76
-3.37
-2.54
-0.53
2.09
4.58
6.30
6.91
6.49
5.39
4.02
2.66
1.29
-0.33
-2.51
-5.48
-9.22
-13.47
-17.74
-21.49
-24.25
-25.83
-26.35
-26.24
-26.09
-26.40
-27.41
-29.00
-30.69
-31.84
-31.79
-30.08
-26.48
-21.13
-14.41
-6.97
0.41
6.99
12.14
15.55
17.18
17.28
16.26
14.53
12.46
10.25
8.04
5.93
4.06
2.55
1.50
0.84
0.37
-0.18
-1.00
-2.09
-3.25
-4.19
-4.76
-5.05
-5.45
-6.41
-8.23
-10.91
-14.07
-17.13
-19.57
-21.13
-21.88
-22.18
-22.54
-23.46
-25.28
-28.11
-31.65
-35.24
-37.82
-38.22
-35.47
-29.19
-19.83
-8.64
2.65
12.37
19.39
23.41
24.90
24.73
23.75
22.52
21.26
19.99
18.76
17.79
17.38
17.69
18.60
19.61
20.09
19.49
17.67
14.88
11.71
8.79
6.51
4.90
3.64
2.29
0.47
-1.99
-4.98
-8.20
-11.27
-13.88
-15.85
-17.14
-17.94
-18.59
-19.51
-21.07
-23.39
-26.20
-28.74
-29.94
-28.69
-24.21
-16.48
-6.32
4.76
15.03
23.10
28.28
30.69
31.06
30.28
29.05
27.76
26.44
25.03
23.56
22.16
21.04
20.36
20.09
20.04
19.96
19.57
18.73
17.41
15.72
13.86
11.98
10.22
8.56
6.89
5.04
2.87
0.38
-2.31
-4.94
-7.24
-9.03
-10.34
-11.31
-12.22
-13.32
-14.84
-16.87
-19.42
-22.32
-25.20
-27.45
-28.28
-26.91
-22.81
-15.95
-6.91
3.15
12.78
20.62
25.75
27.93
27.61
25.65
23.01
20.42
18.28
16.66
15.48
14.64
14.08
13.73
13.53
13.37
13.15
12.84
12.44
11.99
11.43
10.61
9.35
7.54
5.21
2.53
-0.19
-2.65
-4.64
-6.08
-7.05
-7.75
-8.49
-9.52
-11.01
-12.94
-15.11
-17.18
-18.82
-19.87
-20.43
-20.83
-21.57
-23.09
-25.53
-28.61
-31.58
-33.35
-32.78
-29.09
-22.14
-12.60
-1.80
8.62
17.21
23.15
26.29
27.09
26.26
24.44
22.07
19.48
16.96
14.93
13.78
13.73
14.69
16.20
17.68
18.64
18.91
18.63
18.13
17.67
17.34
16.99
16.36
15.21
13.43
11.08
8.35
5.55
3.01
1.00
-0.39
-1.26
-1.88
-2.59
-3.67
-5.23
-7.21
-9.39
-11.55
-13.50
-15.16
-16.54
-17.81
-19.20
-21.02
-23.50
-26.64
-30.07
-32.97
-34.26
-32.92
-28.37
-20.78
-11.07
-0.67
8.87
16.34
21.15
23.33
23.39
22.01
19.84
17.35
14.85
12.57
10.70
9.47
9.02
9.33
10.20
11.23
12.02
12.27
11.92
11.17
10.27
9.44
8.66
7.76
6.46
4.60
2.24
-0.32
-2.67
-4.51
-5.74
-6.58
-7.39
-8.49
-10.03
-11.89
-13.77
-15.39
-16.60
-17.53
-18.45
-19.69
-21.48
-23.85
-26.58
-29.21
-31.12
-31.60
-29.98
-25.89
-19.41
-11.13
-2.08
6.52
13.64
18.64
21.38
22.11
21.26
19.31
16.70
13.86
11.24
9.24
8.14
7.98
8.57
9.56
10.60
11.50
12.24
12.83
13.26
13.39
12.94
11.72
9.65
6.90
3.77
0.67
-2.13
-4.49
-6.41
-7.96
-9.26
-10.49
-11.79
-13.27
-14.97
-16.81
-18.64
-20.36
-22.02
-23.86
-26.14
-28.93
-31.93
-34.36
-35.17
-33.37
-28.41
-20.44
-10.36
0.37
10.18
17.76
22.44
24.31
24.07
22.73
21.23
20.19
19.79
19.83
19.91
19.58
18.54
16.67
14.19
11.51
9.20
7.80
7.58
8.42
9.77
10.90
11.09
9.99
7.75
4.95
2.33
0.47
-0.45
-0.73
-0.95
-1.72
-3.39
-5.95
-9.08
-12.30
-15.16
-17.32
-18.71
-19.42
-19.70
-19.91
-20.45
-21.66
-23.70
-26.44
-29.36
-31.55
-31.99
-29.78
-24.61
-16.91
-7.82
1.14
8.56
13.63
16.32
17.27
17.40
17.57
18.23
19.41
20.81
22.05
22.85
23.16
23.11
22.89
22.61
22.26
21.74
20.92
19.82
18.52
17.18
15.85
14.42
12.64
10.25
7.14
3.48
-0.32
-3.76
-6.48
-8.35
-9.54
-10.36
-11.14
-12.10
-13.27
-14.53
-15.73
-16.75
-17.57
-18.27
-19.03
-20.04
-21.52
-23.62
-26.36
-29.63
-33.03
-35.89
-37.37
-36.54
-32.74
-25.77
-16.16
-5.09
5.88
15.28
22.14
26.22
27.93
28.02
27.24
26.07
24.74
23.36
22.05
21.00
20.44
20.46
20.97
21.71
22.38
22.72
22.65
22.19
21.49
20.63
19.64
18.42
16.83
14.76
12.22
9.38
6.57
4.09
2.18
0.84
-0.13
-1.06
-2.25
-3.90
-6.00
-8.38
-10.80
-13.02
-14.87
-16.27
-17.24
-17.91
-18.52
-19.34
-20.71
-22.85
-25.74
-29.08
-32.18
-34.13
-34.01
-31.16
-25.45
-17.39
-8.01
1.40
9.61
15.83
19.79
21.72
22.12
21.50
20.18
18.29
15.94
13.34
10.95
9.30
8.83
9.57
11.19
13.04
14.50
15.23
15.25
14.86
14.33
13.72
12.85
11.38
9.10
6.02
2.51
-0.93
-3.80
-5.80
-6.94
-7.50
-7.83
-8.26
-8.95
-9.97
-11.22
-12.60
-13.99
-15.32
-16.65
-18.07
-19.84
-22.18
-25.19
-28.70
-32.13
-34.54
-34.84
-32.19
-26.25
-17.51
-7.16
3.20
12.05
18.38
21.91
23.01
22.41
20.89
19.00
17.07
15.28
13.77
12.68
12.10
12.01
12.19
12.36
12.25
11.75
10.93
10.03
9.30
8.87
8.67
8.42
7.79
6.51
4.57
2.22
-0.14
-2.08
-3.37
-4.07
-4.46
-5.00
-6.08
-7.93
-10.47
-13.37
-16.16
-18.39
-19.82
-20.52
-20.89
-21.49
-22.84
-25.22
-28.55
-32.25
-35.40
-36.89
-35.71
-31.26
-23.57
-13.42
-2.19
8.41
16.87
22.28
24.52
24.18
22.29
19.89
17.70
16.07
14.97
14.24
13.80
13.65
13.91
14.63
15.66
16.70
17.35
17.33
16.57
15.31
13.92
12.75
11.92
11.29
10.51
9.24
7.36
4.98
2.42
0.02
-1.99
-3.59
-4.86
-5.92
-6.85
-7.67
-8.45
-9.32
-10.51
-12.16
-14.28
-16.62
-18.79
-20.49
-21.68
-22.66
-23.91
-25.75
-28.08
-30.24
-31.14
-29.68
-25.17
-17.67
-8.04
2.24
11.53
18.54
22.59
23.79
22.80
20.57
17.95
15.53
13.63
12.34
11.67
11.58
12.02
12.89
13.99
15.12
16.05
16.62
16.74
16.45
15.83
15.00
14.09
13.18
12.30
11.39
10.40
9.23
7.84
6.23
4.50
2.78
1.18
-0.23
-1.47
-2.64
-3.84
-5.16
-6.61
-8.11
-9.58
-10.94
-12.11
-13.09
-13.98
-15.01
-16.52
-18.86
-22.15
-26.09
-29.86
-32.28
-32.18
-28.78
-22.03
-12.66
-1.98
8.49
17.43
23.94
27.66
28.72
27.57
24.86
21.30
17.61
14.40
12.15
11.10
11.23
12.21
13.58
14.84
15.67
15.96
15.84
15.55
15.26
15.00
14.62
13.91
12.65
10.78
8.39
5.67
2.91
0.33
-1.84
-3.49
-4.54
-5.05
-5.19
-5.22
-5.46
-6.12
-7.25
-8.69
-10.18
-11.43
-12.29
-12.77
-13.08
-13.49
-14.24
-15.48
-17.17
-19.16
-21.15
-22.69
-23.23
-22.14
-18.91
-13.35
-5.78
2.95
11.55
18.69
23.36
25.17
24.43
21.88
18.47
14.97
11.88
9.38
7.50
6.26
5.69
5.81
6.50
7.51
8.41
8.82
8.53
7.59
6.26
4.86
3.58
2.49
1.51
0.53
-0.49
-1.53
-2.59
-3.73
-5.11
-6.88
-9.05
-11.48
-13.90
-16.00
-17.57
-18.52
-18.87
-18.69
-18.08
-17.20
-16.27
-15.56
-15.33
-15.76
-16.90
-18.66
-20.82
-23.01
-24.72
-25.29
-24.05
-20.52
-14.66
-7.00
1.44
9.43
15.83
19.97
21.68
21.21
19.06
15.75
11.79
7.65
3.82
0.79
-1.05
-1.47
-0.51
1.50
4.04
6.54
8.44
9.40
9.31
8.29
6.63
4.70
2.79
1.12
-0.19
-1.11
-1.60
-1.68
-1.41
-0.93
-0.44
-0.18
-0.36
-1.12
-2.42
-4.06
-5.71
-7.02
-7.73
-7.90
-7.91
-8.37
-9.89
-12.75
-16.73
-21.10
-24.84
-26.88
-26.45
-23.22
-17.34
-9.44
-0.47
8.46
16.25
22.02
25.25
25.90
24.35
21.28
17.45
13.64
10.44
8.23
7.16
7.11
7.77
8.74
9.69
10.44
10.98
11.42
11.87
12.31
12.67
12.87
12.93
13.03
13.35
14.00
14.86
15.63
15.88
15.31
13.76
11.34
8.32
5.02
1.76
-1.22
-3.74
-5.70
-7.05
-7.92
-8.59
-9.52
-11.17
-13.86
-17.51
-21.62
-25.26
-27.31
-26.80
-23.25
-16.86
-8.50
0.51
8.78
15.23
19.31
20.99
20.65
18.82
16.01
12.72
9.38
6.38
4.10
2.76
2.41
2.86
3.79
4.88
5.89
6.73
7.34
7.69
7.71
7.32
6.46
5.16
3.49
1.57
-0.50
-2.61
-4.66
-6.58
-8.31
-9.83
-11.20
-12.50
-13.78
-15.05
-16.23
-17.23
-18.04
-18.79
-19.75
-21.19
-23.30
-26.05
-29.14
-32.08
-34.23
-34.88
-33.37
-29.27
-22.58
-13.84
-4.22
4.79
11.77
15.88
17.10
16.19
14.22
12.05
10.01
7.88
5.31
2.29
-0.65
-2.57
-2.61
-0.50
3.21
7.31
10.50
11.86
11.23
9.11
6.29
3.45
0.91
-1.42
-3.76
-6.21
-8.65
-10.78
-12.27
-13.01
-13.14
-13.01
-13.01
-13.41
-14.22
-15.32
-16.49
-17.61
-18.69
-19.89
-21.42
-23.42
-25.83
-28.31
-30.15
-30.42
-28.12
-22.56
-13.60
-1.82
11.51
24.86
36.79
46.32
53.04
57.04
58.66
58.29
56.33
53.24
49.52
45.78
42.53
40.12
38.57
37.67
36.99
36.06
34.47
31.93
28.36
24.00
19.33
15.03
11.69
9.62
8.75
8.66
8.79
8.73
8.26
7.44
6.41
5.22
3.82
2.02
-0.36
-3.45
-7.18
-11.31
-15.50
-19.29
-22.34
-24.45
-25.67
-26.29
-26.60
-26.73
-26.49
-25.34
-22.67
-18.11
-11.83
-4.63
2.33
7.93
11.46
12.80
12.29
10.42
7.60
4.05
-0.06
-4.48
-8.83
-12.61
-15.42
-17.10
-17.65
-17.25
-16.02
-14.06
-11.47
-8.44
-5.32
-2.56
-0.57
0.38
0.27
-0.71
-2.29
-4.16
-6.12
-8.03
-9.83
-11.49
-12.96
-14.17
-15.10
-15.78
-16.32
-16.82
-17.37
-18.03
-18.83
-19.79
-20.94
-22.28
-23.58
-24.40
-24.00
-21.60
-16.65
-9.13
0.32
10.44
19.81
27.20
31.90
33.86
33.48
31.41
28.32
24.83
21.47
18.77
17.11
16.71
17.43
18.85
20.39
21.54
22.03
21.94
21.53
21.09
20.77
20.51
20.12
19.35
18.08
16.25
14.00
11.53
9.13
7.03
5.34
4.00
2.75
1.28
-0.66
-3.12
-5.96
-8.88
-11.66
-14.19
-16.51
-18.80
-21.21
-23.79
-26.45
-28.90
-30.69
-31.23
-29.86
-26.07
-19.74
-11.28
-1.68
7.76
15.74
21.35
24.25
24.69
23.26
20.69
17.61
14.50
11.72
9.53
8.12
7.59
7.89
8.83
10.05
11.17
11.83
11.85
11.19
9.99
8.40
6.54
4.38
1.87
-1.04
-4.23
-7.39
-10.17
-12.32
-13.83
-15.00
-16.22
-17.80
-19.78
-21.93
-23.82
-25.15
-25.88
-26.29
-26.89
-28.16
-30.32
-33.16
-36.08
-38.22
-38.69
-36.78
-32.21
-25.14
-16.20
-6.35
3.34
11.82
18.28
22.27
23.77
23.13
21.04
18.32
15.76
13.94
13.13
13.29
14.21
15.56
17.01
18.24
19.00
19.06
18.32
16.80
14.65
12.11
9.38
6.59
3.81
1.08
-1.48
-3.69
-5.39
-6.50
-7.12
-7.48
-7.90
-8.66
-9.94
-11.72
-13.83
-15.97
-17.90
-19.51
-20.95
-22.59
-24.80
-27.74
-31.11
-34.13
-35.72
-34.77
-30.60
-23.18
-13.23
-2.07
8.78
17.98
24.71
28.78
30.54
30.57
29.46
27.68
25.55
23.41
21.61
20.49
20.22
20.67
21.43
22.00
22.02
21.42
20.44
19.42
18.59
17.92
17.15
15.95
14.09
11.63
8.85
6.16
3.91
2.23
1.00
-0.07
-1.29
-2.89
-4.89
-7.21
-9.65
-11.99
-14.06
-15.76
-17.11
-18.21
-19.35
-20.85
-23.00
-25.82
-28.94
-31.54
-32.56
-31.00
-26.35
-18.79
-9.24
0.91
10.22
17.53
22.27
24.46
24.50
23.01
20.59
17.73
14.86
12.35
10.52
9.59
9.54
10.20
11.21
12.19
12.82
12.93
12.48
11.50
10.00
7.97
5.41
2.39
-0.92
-4.20
-7.09
-9.28
-10.64
-11.28
-11.52
-11.77
-12.36
-13.50
-15.19
-17.23
-19.33
-21.19
-22.61
-23.54
-24.11
-24.66
-25.56
-27.08
-29.17
-31.37
-32.84
-32.54
-29.61
-23.65
-14.97
-4.57
6.13
15.67
22.92
27.37
29.13
28.77
27.02
24.56
21.91
19.44
17.48
16.26
15.94
16.46
17.55
18.70
19.44
19.43
18.65
17.34
15.87
14.54
13.45
12.51
11.48
10.10
8.22
5.89
3.37
1.04
-0.76
-1.90
-2.53
-3.01
-3.80
-5.21
-7.28
-9.76
-12.24
-14.33
-15.87
-16.92
-17.74
-18.68
-20.08
-22.13
-24.79
-27.79
-30.56
-32.33
-32.29
-29.75
-24.39
-16.41
-6.60
3.81
13.45
21.16
26.24
28.58
28.60
27.00
24.53
21.79
19.16
16.80
14.82
13.32
12.40
12.07
12.25
12.68
13.02
12.95
12.29
11.09
9.52
7.80
6.08
4.35
2.51
0.48
-1.71
-3.90
-5.85
-7.37
-8.45
-9.30
-10.22
-11.54
-13.44
-15.84
-18.47
-20.90
-22.77
-23.92
-24.47
-24.82
-25.51
-26.99
-29.41
-32.35
-34.89
-35.75
-33.78
-28.34
-19.63
-8.78
2.54
12.57
20.04
24.45
26.10
25.75
24.30
22.44
20.52
18.68
16.98
15.51
14.46
13.96
14.02
14.46
14.95
15.20
15.00
14.39
13.56
12.74
12.04
11.36
10.39
8.76
6.25
2.97
-0.67
-4.05
-6.68
-8.38
-9.37
-10.14
-11.14
-12.59
-14.39
-16.23
-17.81
-18.99
-19.87
-20.71
-21.82
-23.42
-25.58
-28.23
-31.07
-33.58
-35.06
-34.68
-31.72
-25.86
-17.35
-7.06
3.70
13.54
21.40
26.72
29.53
30.22
29.34
27.39
24.73
21.67
18.52
15.65
13.47
12.30
12.30
13.34
15.00
16.72
17.91
18.19
17.46
15.92
13.91
11.73
9.56
7.40
5.19
2.93
0.67
-1.44
-3.34
-5.05
-6.66
-8.28
-9.88
-11.34
-12.47
-13.19
-13.57
-13.89
-14.47
-15.61
-17.40
-19.78
-22.54
-25.51
-28.48
-31.15
-33.04
-33.45
-31.56
-26.72
-18.81
-8.40
3.27
14.59
24.01
30.50
33.71
33.99
32.08
28.87
25.15
21.53
18.45
16.28
15.23
15.36
16.51
18.24
19.95
21.11
21.37
20.72
19.45
17.91
16.38
14.93
13.42
11.64
9.48
6.97
4.34
1.92
-0.04
-1.38
-2.15
-2.55
-2.85
-3.33
-4.18
-5.42
-6.99
-8.71
-10.46
-12.17
-13.90
-15.77
-17.92
-20.41
-23.22
-26.13
-28.71
-30.31
-30.20
-27.75
-22.70
-15.32
-6.47
2.62
10.62
16.52
19.77
20.39
18.81
15.64
11.52
6.97
2.42
-1.64
-4.68
-6.17
-5.80
-3.61
-0.10
3.92
7.62
10.45
12.23
13.09
13.28
12.93
12.03
10.50
8.40
6.01
3.74
1.97
0.85
0.23
-0.21
-0.80
-1.73
-2.94
-4.26
-5.49
-6.53
-7.40
-8.19
-9.06
-10.15
-11.62
-13.55
-15.98
-18.79
-21.65
-24.03
-25.29
-24.77
-21.99
-16.73
-9.21
-0.06
9.71
18.91
26.38
31.19
32.82
31.12
26.35
19.12
10.38
1.29
-6.84
-12.89
-16.11
-16.35
-14.11
-10.32
-6.07
-2.27
0.61
2.52
3.76
4.67
5.47
6.15
6.51
6.35
5.60
4.41
3.03
1.68
0.41
-0.92
-2.51
-4.46
-6.67
-8.84
-10.64
-11.85
-12.49
-12.73
-12.83
-13.11
-13.81
-15.08
-16.91
-19.00
-20.82
-21.57
-20.42
-16.75
-10.38
-1.74
8.21
18.20
27.00
33.66
37.70
39.05
38.01
35.02
30.63
25.38
19.93
14.92
10.93
8.32
7.06
6.78
6.88
6.84
6.37
5.43
4.17
2.69
0.99
-1.08
-3.63
-6.65
-9.95
-13.24
-16.20
-18.62
-20.37
-21.45
-21.86
-21.69
-21.10
-20.34
-19.66
-19.29
-19.33
-19.72
-20.37
-21.21
-22.31
-23.86
-25.93
-28.36
-30.60
-31.75
-30.78
-26.94
-20.01
-10.45
0.66
11.93
22.02
29.92
35.05
37.29
36.81
34.07
29.75
24.69
19.78
15.79
13.26
12.35
12.86
14.30
16.14
17.86
19.13
19.75
19.67
18.86
17.34
15.20
12.57
9.66
6.71
3.97
1.63
-0.23
-1.64
-2.75
-3.75
-4.82
-6.06
-7.49
-8.99
-10.38
-11.48
-12.21
-12.66
-13.09
-13.87
-15.24
-17.14
-19.07
-20.20
-19.56
-16.36
-10.31
-1.72
8.58
19.38
29.39
37.45
42.75
44.90
44.00
40.53
35.32
29.30
23.38
18.30
14.48
12.08
10.99
10.94
11.55
12.45
13.30
13.82
13.83
13.18
11.79
9.64
6.77
3.37
-0.26
-3.75
-6.72
-8.96
-10.48
-11.51
-12.43
-13.59
-15.12
-16.91
-18.65
-20.02
-20.84
-21.17
-21.33
-21.73
-22.78
-24.62
-27.07
-29.54
-31.15
-30.92
-28.10
-22.34
-13.97
-3.87
6.68
16.31
23.92
28.87
31.05
30.77
28.60
25.20
21.18
17.13
13.55
10.87
9.34
8.98
9.57
10.67
11.83
12.72
13.17
13.20
12.84
12.06
10.76
8.81
6.20
3.05
-0.30
-3.50
-6.28
-8.56
-10.41
-12.03
-13.53
-14.95
-16.26
-17.39
-18.35
-19.23
-20.14
-21.23
-22.62
-24.43
-26.70
-29.34
-32.01
-34.02
-34.42
-32.32
-27.20
-19.26
-9.41
0.96
10.42
17.91
22.97
25.65
26.26
25.19
22.72
19.10
14.64
9.76
5.01
0.96
-1.93
-3.36
-3.25
-1.77
0.69
3.45
5.75
6.88
6.39
4.28
0.98
-2.81
-6.39
-9.24
-11.16
-12.28
-12.90
-13.38
-14.04
-15.03
-16.35
-17.89
-19.52
-21.20
-22.98
-25.03
-27.47
-30.27
-33.15
-35.50
-36.47
-35.17
-30.96
-23.67
-13.78
-2.41
8.98
18.93
26.39
30.89
32.61
32.13
30.15
27.28
24.00
20.64
17.54
14.96
13.12
12.04
11.56
11.33
11.06
10.50
9.59
8.38
7.00
5.59
4.27
3.13
2.20
1.40
0.51
-0.74
-2.59
-5.10
-8.10
-11.20
-14.00
-16.25
-17.96
-19.46
-21.15
-23.37
-26.23
-29.45
-32.46
-34.46
-34.58
-32.18
-26.91
-18.97
-9.05
1.67
11.90
20.44
26.57
30.14
31.51
31.33
30.20
28.58
26.67
24.57
22.34
20.14
18.15
16.51
15.21
14.12
13.06
11.89
10.65
9.48
8.58
8.07
7.86
7.73
7.32
6.31
4.51
1.92
-1.26
-4.76
-8.26
-11.50
-14.27
-16.43
-17.90
-18.71
-19.00
-19.14
-19.64
-21.02
-23.60
-27.26
-31.24
-34.29
-34.99
-32.21
-25.59
-15.74
-4.03
7.70
17.82
25.20
29.48
30.97
30.40
28.62
26.39
24.22
22.42
21.12
20.33
20.00
19.98
20.08
20.06
19.75
19.09
18.17
17.14
16.13
15.15
14.13
12.93
11.47
9.85
8.22
6.79
5.63
4.71
3.88
2.93
1.68
0.05
-1.91
-4.05
-6.18
-8.12
-9.80
-11.29
-12.77
-14.48
-16.61
-19.20
-21.99
-24.48
-25.90
-25.46
-22.53
-16.99
-9.31
-0.58
7.87
14.75
19.28
21.28
21.09
19.33
16.64
13.56
10.47
7.72
5.64
4.48
4.39
5.23
6.68
8.24
9.48
10.18
10.39
10.40
10.51
10.87
11.34
11.58
11.26
10.24
8.74
7.19
6.07
5.63
5.78
6.17
6.34
5.99
5.02
3.63
2.10
0.68
-0.56
-1.71
-3.00
-4.65
-6.79
-9.44
-12.44
-15.47
-18.05
-19.49
-19.05
-16.15
-10.64
-2.98
5.71
14.00
20.53
24.43
25.49
24.13
21.14
17.36
13.52
10.15
7.54
5.83
5.00
4.90
5.34
6.10
6.95
7.72
8.22
8.27
7.75
6.64
5.02
3.08
1.04
-0.95
-2.87
-4.77
-6.71
-8.64
-10.43
-11.88
-12.86
-13.37
-13.57
-13.64
-13.78
-14.06
-14.53
-15.23
-16.29
-17.94
-20.39
-23.66
-27.42
-30.93
-33.15
-33.07
-30.07
-24.19
-16.19
-7.31
1.02
7.64
11.87
13.61
13.16
11.07
7.94
4.36
0.85
-2.10
-4.12
-4.99
-4.72
-3.60
-2.09
-0.69
0.23
0.54
0.34
-0.12
-0.57
-0.87
-1.01
-1.12
-1.39
-2.06
-3.28
-5.15
-7.56
-10.28
-12.96
-15.24
-16.85
-17.69
-17.85
-17.59
-17.35
-17.59
-18.72
-20.86
-23.70
-26.46
-28.08
-27.58
-24.43
-18.77
-11.44
-3.68
3.29
8.64
12.10
13.86
14.41
14.23
13.66
12.89
11.97
10.98
10.08
9.56
9.66
10.48
11.89
13.48
14.78
15.35
15.01
13.80
11.99
9.85
7.60
5.26
2.79
0.14
-2.66
-5.47
-8.08
-10.27
-11.90
-12.93
-13.44
-13.63
-13.77
-14.14
-15.01
-16.53
-18.59
-20.84
-22.63
-23.12
-21.57
-17.58
-11.31
-3.53
4.60
11.85
17.34
20.68
22.00
21.73
20.36
18.33
15.96
13.52
11.29
9.52
8.41
8.06
8.41
9.30
10.45
11.56
12.30
12.43
11.83
10.53
8.76
6.78
4.81
2.96
1.20
-0.58
-2.41
-4.26
-6.04
-7.67
-9.12
-10.39
-11.54
-12.56
-13.43
-14.16
-14.82
-15.59
-16.63
-17.99
-19.44
-20.47
-20.35
-18.32
-13.92
-7.16
1.33
10.47
18.94
25.60
29.74
31.22
30.40
28.00
24.82
21.55
18.72
16.61
15.33
14.87
15.20
16.17
17.59
19.20
20.64
21.59
21.76
21.07
19.57
17.44
14.93
12.25
9.60
7.06
4.66
2.35
0.06
-2.24
-4.52
-6.63
-8.49
-10.04
-11.38
-12.69
-14.19
-16.02
-18.22
-20.74
-23.45
-26.12
-28.42
-29.83
-29.75
-27.65
-23.32
-17.01
-9.50
-1.88
4.71
9.41
11.81
12.01
10.42
7.69
4.44
1.23
-1.48
-3.32
-4.08
-3.68
-2.27
-0.12
2.40
4.89
7.04
8.60
9.44
9.47
8.74
7.40
5.69
3.92
2.32
1.01
-0.03
-0.93
-1.81
-2.71
-3.59
-4.33
-4.82
-5.02
-4.99
-4.85
-4.80
-5.01
-5.66
-6.84
-8.54
-10.54
-12.43
-13.61
-13.42
-11.32
-7.09
-0.95
6.39
13.94
20.62
25.52
28.15
28.45
26.73
23.56
19.56
15.37
11.50
8.38
6.25
5.19
5.09
5.65
6.56
7.50
8.25
8.72
8.82
8.45
7.51
5.93
3.75
1.21
-1.37
-3.64
-5.37
-6.61
-7.58
-8.59
-9.81
-11.25
-12.76
-14.12
-15.23
-16.13
-16.96
-17.89
-19.02
-20.36
-21.85
-23.37
-24.72
-25.55
-25.37
-23.63
-19.91
-14.15
-6.78
1.31
8.97
15.11
19.01
20.49
19.90
17.89
15.18
12.39
9.89
7.89
6.53
5.91
6.11
7.09
8.70
10.57
12.26
13.36
13.61
13.01
11.74
10.08
8.26
6.38
4.43
2.36
0.19
-1.96
-3.94
-5.57
-6.83
-7.80
-8.65
-9.51
-10.44
-11.42
-12.41
-13.47
-14.75
-16.45
-18.75
-21.61
-24.70
-27.37
-28.77
-28.07
-24.72
-18.74
-10.71
-1.72
6.94
14.13
19.09
21.60
21.85
20.32
17.57
14.19
10.68
7.53
5.15
3.84
3.69
4.56
6.11
7.89
9.48
10.56
10.98
10.66
9.64
8.01
5.92
3.57
1.20
-1.03
-3.05
-4.91
-6.72
-8.60
-10.55
-12.49
-14.27
-15.78
-16.97
-17.88
-18.62
-19.34
-20.25
-21.50
-23.24
-25.40
-27.67
-29.43
-29.84
-28.10
-23.72
-16.82
-8.09
1.28
10.00
16.98
21.63
23.82
23.84
22.15
19.34
15.96
12.55
9.59
7.48
6.48
6.59
7.66
9.29
11.02
12.39
13.03
12.80
11.78
10.16
8.22
6.11
3.87
1.42
-1.28
-4.20
-7.17
-9.96
-12.36
-14.24
-15.59
-16.46
-16.98
-17.35
-17.82
-18.68
-20.15
-22.28
-24.77
-27.00
-28.15
-27.35
-24.02
-18.05
-9.90
-0.52
8.86
17.01
23.00
26.38
27.19
25.85
22.99
19.30
15.40
11.80
8.93
7.07
6.34
6.66
7.69
8.94
9.91
10.27
9.93
9.05
7.86
6.49
4.91
2.95
0.39
-2.80
-6.45
-10.19
-13.57
-16.19
-17.92
-18.89
-19.51
-20.32
-21.80
-24.16
-27.18
-30.18
-32.11
-31.91
-28.76
-22.42
-13.39
-2.77
7.99
17.45
24.54
28.76
30.23
29.55
27.56
25.06
22.62
20.54
18.92
17.76
17.07
16.86
17.07
17.49
17.81
17.67
16.78
15.14
12.95
10.59
8.37
6.41
4.57
2.56
0.09
-2.95
-6.42
-9.95
-13.07
-15.34
-16.54
-16.71
-16.24
-15.72
-15.85
-17.21
-20.02
-23.98
-28.25
-31.58
-32.63
-30.44
-24.67
-15.87
-5.27
5.49
14.88
21.84
26.00
27.64
27.38
25.99
24.04
21.92
19.87
18.03
16.58
15.68
15.42
15.70
16.29
16.80
16.89
16.35
15.18
13.53
11.59
9.51
7.33
5.00
2.44
-0.33
-3.24
-6.06
-8.57
-10.55
-11.94
-12.82
-13.42
-14.04
-14.92
-16.27
-18.14
-20.55
-23.35
-26.28
-28.79
-30.07
-29.23
-25.57
-18.99
-10.16
-0.33
8.99
16.62
21.95
25.02
26.21
26.01
24.75
22.69
20.08
17.37
15.13
13.86
13.84
14.89
16.54
18.10
18.98
18.80
17.51
15.32
12.54
9.53
6.56
3.82
1.45
-0.44
-1.80
-2.65
-3.13
-3.49
-3.98
-4.81
-6.02
-7.50
-9.04
-10.45
-11.70
-12.88
-14.25
-16.06
-18.56
-21.72
-25.26
-28.56
-30.73
-30.85
-28.20
-22.58
-14.46
-4.89
4.78
13.23
19.53
23.26
24.45
23.50
20.97
17.55
13.87
10.55
8.04
6.61
6.26
6.81
7.94
9.27
10.46
11.21
11.29
10.54
8.93
6.58
3.77
0.88
-1.75
-3.86
-5.40
-6.47
-7.34
-8.25
-9.38
-10.72
-12.13
-13.35
-14.21
-14.63
-14.80
-15.03
-15.74
-17.19
-19.40
-22.01
-24.34
-25.50
-24.71
-21.44
-15.70
-8.03
0.57
8.87
15.74
20.35
22.41
22.09
19.96
16.80
13.44
10.62
9.00
8.99
10.81
14.38
19.37
25.24
31.31
36.86
41.21
43.74
43.99
41.67
36.75
29.57
20.74
11.08
1.48
-7.28
-14.63
-20.22
-24.00
-26.13
-27.02
-27.20
-27.18
-27.30
-27.59
-27.81
-27.68
-27.07
-26.14
-25.29
-24.81
-24.62
-24.16
-22.60
-19.19
-13.68
-6.56
1.18
8.35
14.03
17.76
19.59
19.83
18.90
17.12
14.76
12.09
9.41
7.14
5.70
5.43
6.41
8.42
10.93
13.31
15.02
15.79
15.72
15.09
14.27
13.48
12.74
11.93
10.93
9.72
8.39
7.09
5.94
4.97
4.17
3.50
2.94
2.51
2.20
1.93
1.60
1.09
0.37
-0.40
-0.82
-0.34
1.56
5.15
10.32
16.60
23.22
29.39
34.41
37.83
39.37
38.94
36.61
32.64
27.50
21.84
16.35
11.63
8.10
5.93
5.02
5.06
5.53
5.87
5.57
4.36
2.28
-0.40
-3.31
-6.16
-8.83
-11.38
-13.86
-16.25
-18.43
-20.27
-21.71
-22.86
-23.93
-25.10
-26.49
-28.12
-29.98
-32.08
-34.40
-36.82
-39.04
-40.54
-40.76
-39.22
-35.79
-30.68
-24.46
-17.90
-11.75
-6.67
-3.08
-1.25
-1.18
-2.66
-5.25
-8.34
-11.25
-13.40
-14.43
-14.26
-13.09
-11.26
-9.18
-7.18
-5.49
-4.21
-3.37
-2.97
-3.01
-3.54
-4.54
-5.92
-7.47
-8.90
-9.95
-10.51
-10.71
-10.80
-11.12
-11.86
-13.07
-14.58
-16.19
-17.59
-18.50
-18.60
-17.55
-15.12
-11.33
-6.47
-1.12
4.05
8.49
11.93
14.42
16.15
17.26
17.73
17.41
16.21
14.31
12.18
10.44
9.61
9.88
11.04
12.58
13.95
14.72
14.69
13.84
12.22
9.89
6.94
3.53
-0.06
-3.46
-6.35
-8.51
-9.94
-10.83
-11.51
-12.35
-13.59
-15.35
-17.50
-19.73
-21.53
-22.36
-21.74
-19.38
-15.33
-9.87
-3.53
3.09
9.32
14.63
18.60
21.01
21.84
21.33
19.88
18.03
16.29
15.09
14.62
14.82
15.43
16.01
16.17
15.69
14.55
12.99
11.37
10.01
9.04
8.43
7.98
7.45
6.67
5.61
4.39
3.24
2.42
2.09
2.28
2.80
3.19
2.82
1.00
-2.72
-8.31
-15.14
-22.12
-28.00
-31.85
-33.38
-32.96
-31.43
-29.59
-27.90
-26.31
-24.39
-21.65
-17.85
-13.04
-7.54
-1.81
3.78
8.97
13.61
17.64
21.00
23.62
25.44
26.43
26.61
26.12
25.17
24.01
22.80
21.60
20.36
19.01
17.55
16.08
14.76
13.69
12.79
11.88
10.67
8.92
6.54
3.53
-0.06
-4.20
-8.93
-14.24
-20.00
-25.84
-31.16
-35.23
-37.41
-37.35
-35.18
-31.46
-27.08
-22.94
-19.67
-17.48
-16.11
-15.10
-13.89
-12.11
-9.57
-6.26
-2.34
1.95
6.23
10.10
13.12
14.96
15.46
14.69
12.96
10.73
8.50
6.67
5.46
4.86
4.66
4.54
4.16
3.37
2.11
0.47
-1.43
-3.47
-5.49
-7.21
-8.20
-7.89
-5.83
-1.89
3.56
9.71
15.55
20.17
23.05
24.17
23.84
22.53
20.61
18.33
15.89
13.50
11.50
10.20
9.84
10.41
11.61
12.99
14.08
14.55
14.30
13.50
12.39
11.20
10.01
8.75
7.24
5.38
3.22
1.03
-0.81
-1.91
-2.11
-1.48
-0.34
0.86
1.71
1.93
1.47
0.57
-0.30
-0.47
0.68
3.56
8.17
14.00
20.11
25.39
28.82
29.70
27.81
23.38
16.94
9.23
1.04
-6.89
-13.93
-19.58
-23.51
-25.57
-25.90
-24.88
-23.18
-21.60
-20.86
-21.36
-23.01
-25.33
-27.59
-29.11
-29.49
-28.70
-27.01
-24.81
-22.43
-20.10
-17.87
-15.69
-13.43
-10.97
-8.26
-5.44
-2.84
-0.98
-0.36
-1.24
-3.38
-6.05
-8.17
-8.66
-6.83
-2.70
3.06
9.33
14.96
19.07
21.25
21.55
20.32
18.04
15.25
12.53
10.49
9.68
10.44
12.81
16.37
20.36
23.90
26.18
26.80
25.79
23.60
20.86
18.20
16.07
14.62
13.84
13.58
13.70
14.16
14.94
16.09
17.58
19.29
20.93
22.16
22.60
21.97
20.20
17.46
14.24
11.18
8.96
8.12
8.86
11.04
14.11
17.36
20.09
21.80
22.32
21.79
20.46
18.54
16.02
12.62
7.88
1.38
-7.08
-17.25
-28.52
-39.97
-50.57
-59.42
-65.82
-69.45
-70.30
-68.67
-65.09
-60.17
-54.55
-48.69
-42.94
-37.41
-32.17
-27.28
-22.88
-19.18
-16.40
-14.76
-14.33
-15.09
-16.83
-19.16
-21.45
-22.91
-22.74
-20.32
-15.50
-8.65
-0.71
7.08
13.49
17.67
19.34
18.79
16.77
14.17
11.80
10.20
9.63
10.05
11.26
12.90
14.55
15.77
16.16
15.49
13.77
11.29
8.55
6.11
4.33
3.32
2.81
2.33
1.43
-0.15
-2.29
-4.58
-6.42
-7.33
-7.13
-6.03
-4.53
-3.26
-2.71
-3.07
-4.10
-5.17
-5.37
-3.83
-0.02
6.00
13.52
21.32
28.09
32.86
35.26
35.61
34.64
33.17
31.79
30.76
30.11
29.75
29.65
29.77
30.07
30.38
30.39
29.71
28.02
25.25
21.61
17.48
13.27
9.17
5.07
0.68
-4.23
-9.60
-15.02
-19.85
-23.60
-26.16
-27.94
-29.69
-32.14
-35.78
-40.61
-46.15
-51.62
-56.06
-58.60
-58.56
-55.62
-49.89
-41.92
-32.58
-22.97
-14.17
-7.09
-2.34
-0.09
-0.08
-1.64
-3.86
-5.85
-6.98
-7.01
-6.13
-4.76
-3.31
-2.01
-0.87
0.20
1.22
2.10
2.64
2.70
2.27
1.52
0.66
-0.12
-0.75
-1.23
-1.51
-1.55
-1.26
-0.66
0.05
0.52
0.34
-0.82
-3.10
-6.43
-10.48
-14.76
-18.57
-21.11
-21.62
-19.58
-15.00
-8.44
-0.97
6.16
11.92
15.79
17.85
18.62
18.80
18.97
19.44
20.26
21.33
22.47
23.56
24.50
25.25
25.80
26.16
26.33
26.33
26.14
25.74
25.11
24.29
23.36
22.45
21.65
21.01
20.50
20.04
19.56
19.05
18.58
18.22
18.08
18.18
18.50
18.86
18.92
18.21
16.19
12.49
7.06
0.45
-6.26
-11.73
-14.81
-15.01
-12.75
-9.20
-5.83
-3.75
-3.38
-4.35
-5.91
-7.30
-8.15
-8.42
-8.27
-7.72
-6.59
-4.64
-1.80
1.63
5.06
7.82
9.50
10.01
9.58
8.46
6.72
4.19
0.63
-4.02
-9.42
-14.81
-19.29
-22.09
-22.91
-21.96
-19.90
-17.48
-15.38
-13.96
-13.35
-13.47
-14.22
-15.51
-17.29
-19.38
-21.49
-23.19
-24.04
-23.69
-22.03
-19.18
-15.42
-11.10
-6.48
-1.78
2.76
6.77
9.70
11.02
10.36
7.84
4.06
0.05
-3.09
-4.60
-4.26
-2.48
-0.05
2.10
3.29
3.23
2.07
0.27
-1.60
-3.04
-3.81
-3.94
-3.70
-3.49
-3.66
-4.42
-5.76
-7.51
-9.40
-11.19
-12.70
-13.94
-15.05
-16.25
-17.73
-19.53
-21.43
-22.89
-23.17
-21.55
-17.62
-11.45
-3.71
4.54
12.07
17.85
21.31
22.47
21.89
20.42
18.90
17.91
17.66
17.96
18.45
18.78
18.73
18.31
17.68
16.97
16.25
15.43
14.28
12.48
9.75
5.82
0.66
-5.46
-11.98
-18.03
-22.69
-25.25
-25.41
-23.41
-19.89
-15.72
-11.80
-8.94
-7.76
-8.71
-11.89
-16.98
-23.12
-28.96
-32.94
-33.66
-30.36
-23.14
-13.05
-1.80
8.69
16.76
21.40
22.49
20.68
17.14
13.17
9.89
7.95
7.45
8.07
9.20
10.24
10.78
10.67
10.06
9.19
8.27
7.44
6.69
5.98
5.29
4.66
4.11
3.66
3.23
2.67
1.84
0.68
-0.72
-2.16
-3.42
-4.38
-5.10
-5.77
-6.64
-7.88
-9.49
-11.32
-13.15
-14.78
-16.06
-16.80
-16.75
-15.54
-12.79
-8.32
-2.36
4.40
10.94
16.18
19.36
20.23
19.07
16.60
13.59
10.70
8.34
6.68
5.74
5.51
5.95
6.93
8.22
9.47
10.28
10.31
9.40
7.61
5.25
2.72
0.42
-1.40
-2.61
-3.23
-3.26
-2.72
-1.62
-0.13
1.39
2.34
2.15
0.47
-2.60
-6.46
-10.34
-13.51
-15.62
-16.68
-16.95
-16.65
-15.80
-14.26
-11.86
-8.64
-4.90
-1.16
2.10
4.56
6.19
7.20
7.83
8.26
8.53
8.64
8.64
8.68
9.00
9.84
11.26
13.12
15.09
16.76
17.85
18.29
18.22
17.90
17.59
17.42
17.30
16.98
16.19
14.76
12.71
10.31
7.92
5.92
4.53
3.77
3.50
3.50
3.56
3.50
3.20
2.52
1.38
-0.23
-2.13
-3.92
-5.02
-4.81
-2.91
0.69
5.52
10.70
15.26
18.37
19.53
18.70
16.17
12.46
8.17
3.82
-0.21
-3.63
-6.33
-8.28
-9.53
-10.21
-10.47
-10.50
-10.45
-10.43
-10.51
-10.73
-11.11
-11.66
-12.38
-13.24
-14.15
-15.02
-15.70
-16.06
-15.94
-15.18
-13.70
-11.54
-8.92
-6.21
-3.85
-2.17
-1.33
-1.25
-1.70
-2.28
-2.54
-1.98
-0.15
3.23
8.19
14.37
21.06
27.37
32.47
35.81
37.25
37.01
35.52
33.26
30.63
27.90
25.19
22.59
20.09
17.71
15.44
13.25
11.17
9.26
7.61
6.27
5.24
4.40
3.57
2.63
1.52
0.30
-0.94
-2.15
-3.42
-4.89
-6.71
-8.93
-11.52
-14.33
-17.21
-20.02
-22.65
-25.00
-26.92
-28.23
-28.70
-28.01
-25.90
-22.12
-16.70
-9.93
-2.49
4.72
10.75
14.90
16.86
16.78
15.12
12.48
9.43
6.42
3.73
1.60
0.18
-0.42
-0.18
0.72
1.95
3.07
3.68
3.57
2.81
1.61
0.24
-1.15
-2.62
-4.33
-6.44
-8.94
-11.69
-14.38
-16.75
-18.61
-19.94
-20.85
-21.51
-22.15
-22.95
-24.03
-25.36
-26.69
-27.50
-27.17
-25.09
-20.98
-15.00
-7.80
-0.35
6.32
11.36
14.29
15.02
13.76
10.99
7.34
3.51
0.17
-2.18
-3.36
-3.47
-2.88
-2.08
-1.51
-1.47
-2.03
-3.09
-4.41
-5.73
-6.84
-7.66
-8.22
-8.63
-9.05
-9.56
-10.11
-10.60
-10.90
-10.97
-10.94
-11.02
-11.43
-12.25
-13.31
-14.19
-14.34
-13.18
-10.36
-5.86
-0.01
6.51
12.89
18.35
22.29
24.43
24.79
23.68
21.54
18.84
16.04
13.49
11.48
10.14
9.50
9.41
9.62
9.82
9.71
9.14
8.12
6.82
5.42
4.01
2.54
0.82
-1.35
-4.00
-6.97
-9.89
-12.40
-14.26
-15.44
-16.16
-16.74
-17.50
-18.65
-20.17
-21.78
-22.96
-23.02
-21.37
-17.63
-11.96
-4.97
2.35
8.96
14.03
17.16
18.38
18.11
16.90
15.32
13.78
12.49
11.53
10.87
10.47
10.27
10.21
10.20
10.13
9.88
9.41
8.74
7.96
7.16
6.34
5.41
4.15
2.42
0.17
-2.43
-5.09
-7.48
-9.35
-10.62
-11.42
-11.97
-12.62
-13.64
-15.19
-17.15
-19.15
-20.55
-20.61
-18.78
-14.88
-9.24
-2.66
3.84
9.32
13.19
15.29
15.79
15.06
13.48
11.42
9.20
7.18
5.67
4.93
5.03
5.75
6.69
7.39
7.49
6.87
5.70
4.29
2.95
1.89
1.08
0.38
-0.48
-1.68
-3.31
-5.31
-7.47
-9.53
-11.23
-12.42
-13.13
-13.58
-14.11
-15.01
-16.42
-18.20
-19.94
-21.06
-20.93
-19.09
-15.39
-10.07
-3.72
2.80
8.60
12.98
15.57
16.38
15.76
14.23
12.32
10.47
8.99
8.02
7.62
7.73
8.20
8.79
9.26
9.40
9.09
8.37
7.37
6.26
5.14
4.03
2.82
1.41
-0.28
-2.15
-4.05
-5.82
-7.41
-8.90
-10.50
-12.38
-14.62
-17.07
-19.45
-21.36
-22.35
-22.03
-20.12
-16.56
-11.53
-5.51
0.76
6.51
11.09
14.16
15.71
16.03
15.51
14.58
13.54
12.59
11.81
11.21
10.75
10.38
10.04
9.73
9.44
9.13
8.75
8.20
7.34
6.09
4.40
2.36
0.12
-2.10
-4.11
-5.86
-7.39
-8.89
-10.52
-12.35
-14.34
-16.31
-18.02
-19.19
-19.50
-18.61
-16.17
-12.01
-6.25
0.59
7.62
13.87
18.57
21.37
22.38
22.05
20.88
19.31
17.60
15.96
14.53
13.50
13.03
13.14
13.66
14.26
14.53
14.16
13.07
11.39
9.49
7.70
6.21
5.03
3.93
2.63
0.94
-1.15
-3.47
-5.75
-7.75
-9.37
-10.70
-11.93
-13.29
-14.95
-16.97
-19.26
-21.57
-23.43
-24.24
-23.40
-20.48
-15.45
-8.77
-1.34
5.75
11.57
15.61
17.87
18.73
18.70
18.19
17.41
16.48
15.47
14.50
13.76
13.39
13.45
13.84
14.35
14.71
14.67
14.06
12.84
11.09
8.99
6.79
4.66
2.66
0.74
-1.21
-3.25
-5.33
-7.31
-9.03
-10.42
-11.58
-12.70
-13.96
-15.46
-17.19
-19.10
-21.16
-23.40
-25.78
-28.03
-29.59
-29.75
-27.81
-23.50
-17.07
-9.33
-1.33
5.90
11.64
15.61
17.88
18.76
18.64
17.91
16.91
15.97
15.30
15.01
15.05
15.22
15.31
15.13
14.61
13.83
12.91
11.99
11.15
10.36
9.51
8.48
7.18
5.65
4.00
2.38
0.92
-0.35
-1.53
-2.78
-4.20
-5.82
-7.56
-9.27
-10.81
-12.15
-13.32
-14.47
-15.72
-17.19
-18.94
-20.90
-22.88
-24.50
-25.20
-24.43
-21.78
-17.23
-11.21
-4.56
1.78
6.97
10.60
12.70
13.62
13.80
13.61
13.24
12.73
12.11
11.46
10.98
10.88
11.31
12.24
13.43
14.53
15.14
15.02
14.16
12.74
11.02
9.22
7.48
5.77
4.05
2.28
0.54
-1.08
-2.55
-3.90
-5.29
-6.87
-8.70
-10.67
-12.56
-14.12
-15.28
-16.14
-16.97
-18.06
-19.56
-21.35
-23.09
-24.26
-24.38
-23.13
-20.40
-16.34
-11.37
-6.09
-1.13
2.96
5.84
7.49
8.10
7.98
7.47
6.83
6.27
5.97
6.09
6.78
8.09
9.97
12.19
14.41
16.25
17.38
17.69
17.28
16.47
15.59
14.86
14.32
13.78
12.97
11.71
9.92
7.71
5.23
2.67
0.16
-2.24
-4.48
-6.54
-8.40
-10.01
-11.32
-12.28
-12.84
-13.01
-12.88
-12.66
-12.59
-12.91
-13.73
-15.01
-16.51
-17.81
-18.42
-17.92
-16.09
-12.98
-8.90
-4.30
0.29
4.40
7.61
9.65
10.37
9.85
8.37
6.41
4.53
3.21
2.71
3.06
4.05
5.37
6.63
7.55
7.96
7.81
7.21
6.34
5.39
4.51
3.75
3.08
2.45
1.81
1.11
0.34
-0.49
-1.34
-2.15
-2.79
-3.19
-3.33
-3.37
-3.49
-3.89
-4.61
-5.55
-6.45
-7.11
-7.47
-7.68
-7.99
-8.62
-9.58
-10.69
-11.60
-11.90
-11.27
-9.59
-7.00
-3.84
-0.61
2.18
4.11
5.02
4.96
4.24
3.20
2.23
1.55
1.28
1.40
1.79
2.29
2.71
2.90
2.82
2.52
2.14
1.84
1.69
1.63
1.50
1.14
0.47
-0.45
-1.41
-2.14
-2.39
-2.03
-1.08
0.27
1.69
2.82
3.30
2.91
1.65
-0.27
-2.42
-4.33
-5.59
-6.06
-5.93
-5.59
-5.54
-6.11
-7.34
-8.98
-10.51
-11.44
-11.40
-10.29
-8.25
-5.58
-2.68
0.09
2.36
3.85
4.41
4.05
3.03
1.72
0.53
-0.24
-0.48
-0.29
0.14
0.63
1.11
1.58
2.14
2.79
3.53
4.25
4.87
5.30
5.50
5.43
5.05
4.32
3.26
1.97
0.61
-0.58
-1.41
-1.80
-1.82
-1.67
-1.62
-1.86
-2.46
-3.37
-4.42
-5.41
-6.22
-6.82
-7.27
-7.68
-8.14
-8.71
-9.28
-9.69
-9.65
-8.88
-7.22
-4.72
-1.66
1.45
4.06
5.75
6.35
5.97
4.92
3.56
2.20
1.02
0.14
-0.37
-0.42
0.09
1.19
2.76
4.58
6.32
7.69
8.52
8.79
8.68
8.37
8.02
7.68
7.28
6.75
6.08
5.36
4.70
4.20
3.83
3.48
3.01
2.34
1.44
0.38
-0.76
-1.91
-3.09
-4.37
-5.84
-7.54
-9.38
-11.11
-12.38
-12.83
-12.22
-10.49
-7.81
-4.47
-0.85
2.70
5.85
8.35
10.00
10.75
10.66
9.88
8.65
7.09
5.26
3.11
0.62
-2.09
-4.70
-6.79
-7.95
-7.94
-6.85
-5.00
-2.88
-1.00
0.25
0.68
0.32
-0.64
-1.83
-2.81
-3.24
-2.92
-1.91
-0.57
0.57
0.96
0.23
-1.71
-4.60
-7.93
-11.04
-13.27
-14.05
-13.01
-10.11
-5.61
-0.17
5.27
9.72
12.37
12.87
11.38
8.50
4.97
1.44
-1.74
-4.40
-6.52
-7.95
-8.47
-7.85
-6.04
-3.28
-0.10
2.84
5.01
6.16
6.36
5.95
5.32
4.76
4.34
3.93
3.33
2.33
0.91
-0.81
-2.59
-4.17
-5.40
-6.28
-6.97
-7.67
-8.58
-9.80
-11.24
-12.66
-13.66
-13.83
-12.78
-10.36
-6.67
-2.10
2.68
7.01
10.29
12.18
12.64
11.84
10.11
7.80
5.33
3.10
1.55
1.02
1.66
3.39
5.81
8.40
10.61
12.07
12.69
12.62
12.12
11.46
10.72
9.87
8.82
7.48
5.82
3.86
1.72
-0.51
-2.66
-4.57
-6.10
-7.23
-8.09
-8.95
-10.09
-11.63
-13.43
-15.10
-16.14
-16.14
-14.91
-12.49
-9.14
-5.19
-0.96
3.20
6.99
10.12
12.33
13.43
13.37
12.21
10.23
7.82
5.53
3.86
3.22
3.75
5.31
7.49
9.75
11.60
12.74
13.10
12.77
11.95
10.78
9.32
7.58
5.54
3.27
0.96
-1.18
-2.97
-4.31
-5.21
-5.79
-6.22
-6.65
-7.25
-8.11
-9.26
-10.57
-11.72
-12.21
-11.52
-9.29
-5.44
-0.32
5.42
11.03
15.85
19.46
21.71
22.60
22.23
20.77
18.50
15.83
13.34
11.63
11.13
11.94
13.74
15.95
17.91
19.09
19.29
18.60
17.31
15.76
14.14
12.52
10.83
8.97
6.82
4.40
1.81
-0.78
-3.16
-5.15
-6.67
-7.77
-8.61
-9.49
-10.67
-12.31
-14.33
-16.38
-17.92
-18.41
-17.43
-14.90
-11.09
-6.55
-1.94
2.11
5.18
7.00
7.50
6.71
4.79
2.01
-1.25
-4.58
-7.59
-9.98
-11.62
-12.44
-12.48
-11.79
-10.47
-8.67
-6.63
-4.66
-3.07
-2.15
-2.05
-2.81
-4.28
-6.22
-8.31
-10.23
-11.73
-12.70
-13.22
-13.49
-13.77
-14.31
-15.25
-16.60
-18.18
-19.66
-20.51
-20.20
-18.28
-14.62
-9.52
-3.66
2.06
6.83
10.12
11.84
12.24
11.73
10.73
9.57
8.49
7.69
7.35
7.52
8.18
9.12
10.05
10.67
10.81
10.47
9.79
8.94
8.04
7.10
6.07
4.83
3.36
1.70
-0.04
-1.72
-3.25
-4.60
-5.75
-6.74
-7.65
-8.60
-9.74
-11.21
-12.97
-14.76
-16.06
-16.24
-14.77
-11.47
-6.62
-0.92
4.73
9.52
12.97
14.99
15.81
15.82
15.41
14.91
14.52
14.38
14.54
15.00
15.71
16.55
17.33
17.89
18.08
17.81
17.10
16.02
14.77
13.51
12.37
11.34
10.37
9.32
8.12
6.78
5.38
4.05
2.86
1.82
0.84
-0.23
-1.57
-3.32
-5.57
-8.28
-11.25
-14.12
-16.38
-17.49
-17.07
-15.03
-11.63
-7.43
-3.11
0.69
3.54
5.24
5.84
5.52
4.55
3.16
1.64
0.26
-0.69
-0.98
-0.54
0.55
1.98
3.37
4.27
4.37
3.52
1.79
-0.53
-3.07
-5.49
-7.54
-9.14
-10.37
-11.39
-12.35
-13.31
-14.22
-14.95
-15.37
-15.43
-15.16
-14.74
-14.40
-14.38
-14.87
-15.93
-17.38
-18.81
-19.63
-19.26
-17.32
-13.79
-9.05
-3.77
1.28
5.46
8.38
10.03
10.65
10.60
10.23
9.79
9.42
9.17
9.11
9.34
9.91
10.82
11.95
13.00
13.67
13.74
13.13
12.00
10.59
9.20
7.96
6.87
5.77
4.47
2.85
0.93
-1.16
-3.20
-5.02
-6.47
-7.54
-8.29
-8.87
-9.51
-10.41
-11.76
-13.63
-15.92
-18.34
-20.43
-21.63
-21.45
-19.54
-15.91
-10.93
-5.24
0.34
5.13
8.69
10.97
12.19
12.71
12.84
12.80
12.63
12.36
11.99
11.62
11.36
11.32
11.55
11.99
12.50
12.90
13.02
12.73
11.96
10.74
9.15
7.33
5.46
3.73
2.29
1.21
0.43
-0.20
-0.84
-1.63
-2.62
-3.73
-4.85
-5.86
-6.68
-7.32
-7.87
-8.53
-9.48
-10.88
-12.67
-14.53
-15.94
-16.29
-15.12
-12.31
-8.17
-3.29
1.57
5.81
9.07
11.25
12.43
12.83
12.66
12.14
11.45
10.71
9.99
9.29
8.60
7.84
6.98
6.00
4.96
3.92
3.01
2.34
1.99
1.97
2.16
2.37
2.32
1.81
0.78
-0.69
-2.32
-3.80
-4.87
-5.40
-5.47
-5.27
-5.06
-5.08
-5.44
-6.14
-7.15
-8.38
-9.84
-11.56
-13.57
-15.78
-17.96
-19.65
-20.25
-19.24
-16.38
-11.84
-6.23
-0.43
4.75
8.70
11.20
12.33
12.38
11.63
10.34
8.74
7.07
5.64
4.78
4.71
5.45
6.77
8.30
9.60
10.39
10.55
10.17
9.47
8.62
7.76
6.93
6.08
5.16
4.15
3.04
1.85
0.61
-0.67
-1.96
-3.24
-4.45
-5.53
-6.42
-7.13
-7.73
-8.35
-9.12
-10.09
-11.26
-12.55
-13.85
-15.01
-15.84
-16.08
-15.45
-13.72
-10.83
-7.00
-2.68
1.54
5.08
7.53
8.75
8.82
7.97
6.48
4.66
2.79
1.17
0.08
-0.26
0.24
1.48
3.23
5.15
6.89
8.20
8.92
9.03
8.64
7.96
7.24
6.72
6.53
6.68
7.06
7.45
7.66
7.48
6.85
5.72
4.17
2.31
0.34
-1.58
-3.29
-4.72
-5.89
-6.89
-7.90
-9.06
-10.47
-12.00
-13.26
-13.67
-12.62
-9.70
-4.95
1.08
7.49
13.29
17.67
20.24
21.04
20.44
18.92
17.04
15.25
13.94
13.40
13.77
15.02
16.95
19.21
21.34
22.91
23.61
23.32
22.06
19.99
17.35
14.40
11.38
8.51
5.94
3.78
2.00
0.56
-0.65
-1.69
-2.59
-3.29
-3.71
-3.79
-3.57
-3.24
-3.12
-3.63
-5.16
-7.98
-12.12
-17.35
-23.14
-28.81
-33.60
-36.85
-38.12
-37.33
-34.70
-30.74
-26.02
-21.13
-16.49
-12.42
-9.09
-6.57
-4.81
-3.67
-2.93
-2.39
-1.87
-1.31
-0.72
-0.13
0.40
0.85
1.18
1.33
1.25
0.88
0.24
-0.62
-1.63
-2.70
-3.77
-4.78
-5.67
-6.40
-6.96
-7.38
-7.70
-7.96
-8.18
-8.38
-8.59
-8.88
-9.37
-10.17
-11.30
-12.58
-13.66
-14.06
-13.33
-11.24
-7.86
-3.60
0.92
5.09
8.44
10.76
12.06
12.48
12.21
11.47
10.50
9.55
8.91
8.77
9.20
10.06
11.05
11.85
12.16
11.89
11.09
9.98
8.79
7.74
6.92
6.28
5.67
4.91
3.87
2.54
1.07
-0.35
-1.47
-2.17
-2.46
-2.49
-2.49
-2.70
-3.32
-4.46
-6.08
-7.97
-9.73
-10.83
-10.75
-9.15
-5.99
-1.63
3.27
7.96
11.79
14.38
15.72
16.03
15.65
14.88
13.89
12.70
11.29
9.67
7.93
6.23
4.70
3.38
2.19
0.99
-0.37
-1.91
-3.56
-5.15
-6.56
-7.68
-8.51
-9.09
-9.52
-9.89
-10.30
-10.79
-11.35
-11.91
-12.34
-12.56
-12.56
-12.40
-12.23
-12.27
-12.70
-13.64
-15.01
-16.48
-17.49
-17.40
-15.73
-12.44
-7.95
-3.08
1.34
4.72
6.92
8.11
8.59
8.55
8.04
7.07
5.80
4.63
4.01
4.29
5.52
7.38
9.32
10.79
11.41
11.08
9.96
8.38
6.74
5.39
4.60
4.41
4.65
4.92
4.71
3.60
1.39
-1.80
-5.49
-9.05
-11.90
-13.64
-14.22
-13.82
-12.78
-11.43
-10.06
-8.86
-7.89
-7.15
-6.50
-5.70
-4.50
-2.71
-0.38
2.17
4.46
6.02
6.64
6.40
5.63
4.72
4.01
3.68
3.80
4.37
5.34
6.61
8.00
9.33
10.39
11.08
11.38
11.32
10.96
10.32
9.41
8.26
6.96
5.59
4.21
2.83
1.44
0.04
-1.31
-2.48
-3.35
-3.89
-4.16
-4.31
-4.55
-5.02
-5.84
-7.00
-8.45
-10.04
-11.49
-12.42
-12.36
-10.91
-7.86
-3.29
2.35
8.34
13.88
18.24
20.99
22.02
21.58
20.19
18.42
16.86
15.89
15.68
16.21
17.33
18.82
20.47
22.08
23.46
24.47
25.00
25.01
24.48
23.46
22.00
20.15
17.99
15.62
13.13
10.68
8.37
6.29
4.50
2.99
1.69
0.48
-0.80
-2.33
-4.24
-6.54
-9.17
-11.92
-14.57
-16.86
-18.58
-19.61
-19.87
-19.29
-17.86
-15.57
-12.52
-8.95
-5.31
-2.13
0.10
1.09
0.83
-0.45
-2.41
-4.74
-7.17
-9.47
-11.34
-12.48
-12.65
-11.81
-10.24
-8.47
-7.10
-6.59
-7.07
-8.33
-9.96
-11.55
-12.86
-13.87
-14.68
-15.42
-16.11
-16.65
-16.94
-16.91
-16.66
-16.38
-16.28
-16.50
-17.04
-17.81
-18.65
-19.42
-19.99
-20.22
-20.02
-19.19
-17.57
-14.97
-11.35
-6.88
-1.97
2.79
6.82
9.68
11.20
11.53
10.97
9.91
8.68
7.52
6.58
6.00
5.90
6.36
7.39
8.89
10.61
12.20
13.33
13.76
13.45
12.51
11.16
9.60
7.94
6.17
4.25
2.18
0.06
-1.93
-3.61
-4.88
-5.71
-6.17
-6.38
-6.55
-6.92
-7.71
-9.08
-11.01
-13.29
-15.57
-17.43
-18.45
-18.29
-16.70
-13.65
-9.30
-4.09
1.39
6.55
10.91
14.24
16.51
17.75
18.01
17.30
15.74
13.63
11.44
9.72
8.88
9.02
9.94
11.23
12.50
13.45
14.00
14.25
14.32
14.35
14.39
14.48
14.53
14.44
14.05
13.18
11.70
9.57
6.93
4.03
1.23
-1.14
-2.78
-3.58
-3.58
-2.98
-2.06
-1.06
-0.17
0.58
1.30
2.24
3.72
6.00
9.21
13.18
17.46
21.34
24.05
24.95
23.73
20.46
15.59
9.80
3.77
-1.93
-6.90
-10.91
-13.91
-15.91
-17.01
-17.40
-17.32
-17.06
-16.86
-16.83
-16.87
-16.74
-16.19
-15.12
-13.76
-12.58
-12.17
-12.96
-14.98
-17.86
-20.87
-23.23
-24.35
-23.97
-22.22
-19.53
-16.46
-13.62
-11.52
-10.46
-10.47
-11.25
-12.20
-12.52
-11.48
-8.68
-4.23
1.23
6.70
11.16
13.88
14.63
13.67
11.56
8.98
6.50
4.53
3.33
3.07
3.82
5.52
7.93
10.59
12.95
14.43
14.66
13.57
11.38
8.51
5.43
2.50
-0.09
-2.29
-4.13
-5.59
-6.68
-7.42
-7.93
-8.36
-8.90
-9.65
-10.62
-11.80
-13.18
-14.84
-16.80
-18.93
-20.79
-21.73
-21.03
-18.24
-13.43
-7.23
-0.66
5.22
9.60
12.17
13.05
12.67
11.55
10.14
8.74
7.52
6.60
6.10
6.13
6.76
7.93
9.46
10.96
12.03
12.33
11.76
10.48
8.87
7.33
6.15
5.32
4.60
3.65
2.17
0.08
-2.44
-5.07
-7.43
-9.32
-10.67
-11.62
-12.44
-13.39
-14.73
-16.51
-18.57
-20.49
-21.68
-21.47
-19.42
-15.43
-9.90
-3.55
2.68
8.02
11.95
14.30
15.23
15.03
14.04
12.60
11.01
9.50
8.33
7.65
7.57
8.06
8.96
10.03
10.94
11.43
11.39
10.84
9.94
8.90
7.86
6.81
5.66
4.24
2.48
0.41
-1.80
-3.92
-5.78
-7.25
-8.33
-9.09
-9.66
-10.19
-10.89
-11.93
-13.48
-15.52
-17.77
-19.66
-20.41
-19.28
-15.91
-10.47
-3.72
3.27
9.42
13.95
16.56
17.36
16.71
15.07
12.85
10.44
8.24
6.57
5.68
5.64
6.33
7.45
8.67
9.68
10.29
10.45
10.15
9.41
8.23
6.65
4.69
2.45
0.03
-2.41
-4.72
-6.70
-8.22
-9.15
-9.50
-9.38
-9.00
-8.68
-8.73
-9.41
-10.83
-12.91
-15.33
-17.63
-19.23
-19.59
-18.27
-15.13
-10.32
-4.39
1.89
7.69
12.35
15.51
17.14
17.46
16.78
15.39
13.52
11.40
9.29
7.51
6.33
5.92
6.26
7.19
8.41
9.59
10.41
10.64
10.18
9.01
7.26
5.14
2.94
0.93
-0.69
-1.82
-2.54
-3.02
-3.44
-3.91
-4.46
-4.98
-5.39
-5.67
-5.94
-6.36
-7.07
-8.11
-9.41
-10.72
-11.73
-12.01
-11.12
-8.69
-4.61
0.90
7.27
13.67
19.28
23.46
25.91
26.66
26.01
24.43
22.41
20.38
18.70
17.59
17.17
17.48
18.45
19.95
21.69
23.30
24.35
24.51
23.60
21.70
19.08
16.05
12.88
9.70
6.53
3.31
0.01
-3.39
-6.85
-10.24
-13.41
-16.11
-18.13
-19.37
-19.93
-20.12
-20.43
-21.36
-23.21
-25.95
-29.15
-32.05
-33.71
-33.28
-30.24
-24.58
-16.85
-7.97
0.94
8.88
15.13
19.36
21.60
22.12
21.37
19.87
18.14
16.70
15.95
16.15
17.29
19.09
21.08
22.67
23.39
23.03
21.73
19.87
17.87
15.99
14.23
12.41
10.28
7.71
4.74
1.56
-1.60
-4.55
-7.14
-9.27
-10.88
-11.98
-12.69
-13.24
-13.97
-15.14
-16.81
-18.79
-20.66
-21.86
-21.87
-20.35
-17.25
-12.83
-7.65
-2.42
2.20
5.65
7.66
8.23
7.53
5.86
3.55
0.96
-1.54
-3.60
-4.91
-5.35
-4.98
-4.14
-3.24
-2.68
-2.64
-3.05
-3.71
-4.37
-4.96
-5.57
-6.45
-7.80
-9.72
-12.07
-14.61
-17.00
-18.99
-20.45
-21.39
-21.92
-22.21
-22.49
-23.02
-23.99
-25.51
-27.45
-29.42
-30.75
-30.72
-28.71
-24.54
-18.56
-11.60
-4.71
1.19
5.54
8.27
9.63
10.01
9.76
9.09
8.19
7.25
6.59
6.48
7.07
8.24
9.60
10.64
10.94
10.35
9.02
7.34
5.68
4.27
3.00
1.61
-0.23
-2.65
-5.53
-8.48
-10.98
-12.58
-13.06
-12.53
-11.40
-10.27
-9.79
-10.43
-12.27
-14.95
-17.68
-19.43
-19.24
-16.52
-11.34
-4.34
3.39
10.66
16.51
20.43
22.34
22.54
21.49
19.71
17.67
15.78
14.33
13.49
13.26
13.45
13.80
13.98
13.77
13.07
11.99
10.75
9.65
8.89
8.51
8.35
8.08
7.35
5.92
3.82
1.35
-1.02
-2.86
-3.90
-4.19
-4.03
-3.89
-4.24
-5.38
-7.28
-9.61
-11.75
-12.94
-12.54
-10.15
-5.83
-0.09
6.23
12.22
17.14
20.61
22.61
23.36
23.15
22.15
20.43
18.03
15.02
11.69
8.48
5.86
4.23
3.70
4.08
4.91
5.67
5.91
5.39
4.15
2.35
0.23
-2.04
-4.38
-6.76
-9.09
-11.28
-13.17
-14.66
-15.70
-16.37
-16.86
-17.38
-18.20
-19.47
-21.26
-23.49
-25.90
-28.11
-29.61
-29.91
-28.61
-25.57
-20.93
-15.15
-8.87
-2.79
2.52
6.71
9.70
11.58
12.56
12.87
12.73
12.31
11.81
11.43
11.35
11.69
12.44
13.44
14.35
14.81
14.51
13.40
11.64
9.60
7.62
5.91
4.44
3.05
1.56
-0.10
-1.81
-3.42
-4.75
-5.76
-6.47
-7.04
-7.65
-8.50
-9.77
-11.57
-13.86
-16.46
-18.97
-20.86
-21.55
-20.55
-17.59
-12.74
-6.41
0.63
7.43
13.13
17.13
19.29
19.86
19.35
18.28
17.00
15.69
14.40
13.24
12.30
11.71
11.48
11.50
11.54
11.32
10.61
9.33
7.58
5.53
3.38
1.32
-0.59
-2.35
-4.07
-5.84
-7.74
-9.77
-11.81
-13.68
-15.22
-16.30
-16.90
-17.10
-17.12
-17.25
-17.79
-18.94
-20.66
-22.58
-24.07
-24.35
-22.75
-18.91
-12.99
-5.61
2.23
9.51
15.42
19.53
21.86
22.70
22.49
21.64
20.47
19.18
17.95
16.91
16.14
15.71
15.56
15.58
15.63
15.56
15.26
14.73
14.02
13.15
12.12
10.77
8.89
6.25
2.78
-1.33
-5.60
-9.42
-12.27
-13.90
-14.52
-14.62
-14.82
-15.61
-17.16
-19.27
-21.50
-23.30
-24.11
-23.51
-21.27
-17.38
-12.13
-6.10
-0.05
5.21
9.09
11.33
12.09
11.76
10.84
9.76
8.77
8.06
7.72
7.81
8.34
9.17
10.04
10.63
10.69
10.15
9.18
8.08
7.16
6.59
6.32
6.16
5.86
5.24
4.24
2.96
1.59
0.38
-0.49
-0.97
-1.20
-1.51
-2.32
-3.99
-6.64
-10.10
-13.81
-16.97
-18.65
-18.14
-15.07
-9.63
-2.53
5.12
12.17
17.71
21.31
23.08
23.44
22.90
21.89
20.67
19.43
18.33
17.56
17.21
17.21
17.26
16.96
16.00
14.30
12.08
9.70
7.49
5.63
4.11
2.80
1.51
0.14
-1.45
-3.28
-5.35
-7.57
-9.75
-11.65
-13.05
-13.90
-14.30
-14.53
-14.92
-15.78
-17.24
-19.23
-21.47
-23.47
-24.63
-24.35
-22.21
-18.11
-12.41
-5.85
0.60
5.99
9.70
11.55
11.79
10.93
9.53
8.05
6.75
5.80
5.24
5.12
5.41
6.02
6.78
7.50
8.00
8.18
7.98
7.42
6.51
5.30
3.89
2.43
1.03
-0.22
-1.37
-2.53
-3.84
-5.32
-6.89
-8.38
-9.59
-10.46
-11.04
-11.54
-12.21
-13.23
-14.71
-16.60
-18.76
-20.93
-22.72
-23.69
-23.34
-21.28
-17.40
-11.97
-5.62
0.77
6.33
10.46
12.91
13.82
13.57
12.62
11.36
10.12
9.12
8.50
8.36
8.67
9.26
9.87
10.23
10.18
9.70
8.95
8.09
7.28
6.52
5.69
4.65
3.29
1.61
-0.27
-2.20
-4.03
-5.64
-6.99
-8.08
-8.95
-9.70
-10.48
-11.46
-12.77
-14.49
-16.59
-18.98
-21.49
-23.84
-25.70
-26.64
-26.23
-24.14
-20.29
-14.91
-8.50
-1.77
4.54
9.81
13.63
15.86
16.60
16.10
14.70
12.80
10.78
8.98
7.70
7.16
7.44
8.44
9.87
11.34
12.45
12.91
12.61
11.63
10.15
8.38
6.49
4.58
2.67
0.74
-1.28
-3.44
-5.73
-8.08
-10.33
-12.27
-13.77
-14.72
-15.15
-15.21
-15.11
-15.14
-15.54
-16.51
-18.08
-20.04
-21.91
-23.01
-22.61
-20.15
-15.47
-8.87
-1.08
6.94
14.27
20.20
24.40
26.89
27.89
27.69
26.62
24.98
23.14
21.53
20.52
20.36
20.99
22.06
22.99
23.26
22.54
20.78
18.20
15.07
11.64
8.07
4.50
1.15
-1.71
-3.80
-4.99
-5.37
-5.26
-5.10
-5.31
-6.13
-7.59
-9.53
-11.69
-13.74
-15.42
-16.53
-17.04
-17.06
-16.87
-16.85
-17.32
-18.40
-19.85
-21.06
-21.26
-19.74
-16.21
-10.93
-4.60
1.79
7.35
11.47
13.91
14.76
14.32
13.02
11.29
9.55
8.15
7.33
7.17
7.63
8.48
9.45
10.19
10.43
9.98
8.80
6.95
4.59
1.90
-0.92
-3.63
-5.98
-7.74
-8.76
-9.06
-8.84
-8.45
-8.20
-8.31
-8.81
-9.60
-10.48
-11.30
-11.97
-12.49
-12.96
-13.48
-14.18
-15.08
-16.14
-17.17
-17.83
-17.69
-16.30
-13.35
-8.84
-3.11
3.18
9.23
14.32
17.98
20.07
20.67
20.00
18.34
16.00
13.39
10.93
9.04
8.01
7.87
8.41
9.23
9.93
10.20
9.94
9.21
8.20
7.04
5.81
4.49
3.02
1.36
-0.41
-2.11
-3.55
-4.57
-5.17
-5.52
-5.87
-6.48
-7.48
-8.82
-10.31
-11.72
-12.90
-13.85
-14.68
-15.62
-16.86
-18.48
-20.37
-22.24
-23.59
-23.82
-22.40
-18.98
-13.62
-6.79
0.68
7.82
13.82
18.22
20.96
22.27
22.43
21.72
20.30
18.39
16.29
14.44
13.27
13.03
13.70
14.98
16.44
17.67
18.40
18.57
18.25
17.53
16.52
15.23
13.68
11.85
9.77
7.53
5.29
3.29
1.76
0.82
0.39
0.24
-0.01
-0.65
-1.82
-3.40
-5.15
-6.77
-8.12
-9.20
-10.20
-11.37
-12.95
-15.04
-17.58
-20.26
-22.51
-23.56
-22.67
-19.37
-13.69
-6.26
1.84
9.40
15.44
19.43
21.32
21.42
20.15
17.97
15.29
12.54
10.14
8.49
7.81
8.12
9.14
10.41
11.46
11.96
11.84
11.25
10.45
9.63
8.76
7.69
6.18
4.12
1.60
-1.10
-3.62
-5.68
-7.15
-8.06
-8.56
-8.86
-9.17
-9.68
-10.50
-11.63
-12.96
-14.29
-15.42
-16.28
-16.97
-17.79
-19.02
-20.79
-22.91
-24.90
-26.10
-25.85
-23.75
-19.69
-14.00
-7.33
-0.54
5.47
10.05
12.86
13.94
13.63
12.32
10.40
8.16
5.86
3.77
2.21
1.40
1.41
2.07
3.05
4.01
4.68
4.96
4.83
4.32
3.43
2.09
0.26
-2.00
-4.50
-6.88
-8.73
-9.76
-9.94
-9.55
-9.05
-8.97
-9.62
-10.94
-12.60
-14.13
-15.12
-15.41
-15.13
-14.63
-14.37
-14.79
-16.09
-18.15
-20.48
-22.21
-22.37
-20.11
-15.06
-7.51
1.66
11.15
19.61
25.99
29.68
30.59
29.03
25.58
20.98
16.04
11.57
8.30
6.79
7.25
9.53
13.03
16.85
19.93
21.41
20.79
18.16
14.12
9.54
5.29
1.93
-0.41
-1.89
-2.81
-3.44
-3.91
-4.30
-4.71
-5.30
-6.27
-7.73
-9.68
-11.90
-14.12
-16.07
-17.57
-18.61
-19.30
-19.80
-20.31
-20.96
-21.79
-22.75
-23.69
-24.34
-24.30
-23.17
-20.57
-16.33
-10.52
-3.55
3.89
10.99
16.93
21.07
23.10
23.04
21.27
18.43
15.27
12.47
10.56
9.78
10.08
11.19
12.68
14.15
15.24
15.72
15.51
14.64
13.25
11.49
9.56
7.58
5.68
3.91
2.30
0.86
-0.50
-1.85
-3.32
-5.01
-6.95
-9.01
-10.95
-12.50
-13.39
-13.55
-13.07
-12.28
-11.58
-11.43
-12.16
-13.89
-16.51
-19.54
-22.28
-23.84
-23.45
-20.66
-15.54
-8.74
-1.29
5.71
11.41
15.39
17.69
18.66
18.67
18.04
16.98
15.70
14.43
13.49
13.17
13.57
14.58
15.81
16.82
17.23
16.88
15.85
14.46
13.00
11.71
10.63
9.64
8.54
7.22
5.68
4.11
2.79
1.94
1.56
1.48
1.34
0.83
-0.20
-1.68
-3.34
-4.90
-6.15
-7.07
-7.80
-8.57
-9.61
-11.01
-12.71
-14.34
-15.33
-15.00
-12.76
-8.36
-2.05
5.46
13.14
19.91
24.95
27.83
28.53
27.41
24.99
21.87
18.60
15.60
13.18
11.51
10.66
10.53
10.97
11.70
12.45
12.99
13.21
13.05
12.50
11.50
9.99
7.93
5.36
2.48
-0.40
-2.98
-5.06
-6.63
-7.87
-9.10
-10.59
-12.52
-14.89
-17.53
-20.18
-22.54
-24.40
-25.71
-26.57
-27.25
-27.98
-28.89
-29.78
-30.22
-29.62
-27.45
-23.44
-17.76
-11.00
-4.10
1.89
6.04
7.80
7.14
4.60
1.12
-2.21
-4.46
-5.11
-4.06
-1.62
1.69
5.34
8.89
12.04
14.49
16.04
16.53
15.89
14.23
11.86
9.12
6.38
3.85
1.58
-0.49
-2.41
-4.17
-5.68
-6.81
-7.50
-7.81
-7.89
-7.95
-8.16
-8.65
-9.45
-10.55
-11.92
-13.54
-15.38
-17.33
-19.15
-20.41
-20.61
-19.29
-16.23
-11.54
-5.76
0.35
5.97
10.50
13.64
15.46
16.24
16.38
16.19
15.86
15.48
15.07
14.66
14.32
14.13
14.14
14.26
14.35
14.18
13.62
12.66
11.42
10.12
8.93
7.97
7.27
6.78
6.44
6.19
5.95
5.66
5.26
4.68
3.92
2.98
1.92
0.82
-0.30
-1.41
-2.56
-3.79
-5.13
-6.55
-7.87
-8.72
-8.57
-6.93
-3.50
1.59
7.77
14.09
19.58
23.51
25.59
25.93
24.91
22.95
20.37
17.42
14.27
11.19
8.47
6.38
5.10
4.59
4.65
4.96
5.17
5.02
4.32
2.99
1.07
-1.32
-3.91
-6.39
-8.43
-9.85
-10.67
-11.15
-11.65
-12.53
-13.97
-15.93
-18.21
-20.53
-22.67
-24.52
-26.04
-27.23
-28.12
-28.73
-29.09
-29.17
-28.84
-27.81
-25.67
-22.11
-17.04
-10.78
-4.02
2.36
7.57
11.04
12.62
12.51
11.11
8.95
6.58
4.48
3.00
2.38
2.63
3.61
5.08
6.74
8.31
9.56
10.32
10.50
10.05
9.03
7.52
5.61
3.42
1.06
-1.36
-3.68
-5.69
-7.19
-8.02
-8.18
-7.88
-7.46
-7.32
-7.73
-8.79
-10.38
-12.26
-14.18
-15.94
-17.41
-18.44
-18.82
-18.24
-16.39
-13.13
-8.59
-3.29
2.05
6.63
9.90
11.63
12.00
11.47
10.55
9.68
9.10
8.88
8.99
9.39
10.07
11.02
12.17
13.37
14.37
14.85
14.56
13.38
11.38
8.78
5.89
3.02
0.45
-1.64
-3.18
-4.22
-4.92
-5.53
-6.27
-7.27
-8.48
-9.71
-10.69
-11.28
-11.47
-11.49
-11.63
-12.20
-13.35
-14.98
-16.77
-18.21
-18.68
-17.65
-14.83
-10.31
-4.60
1.50
7.10
11.54
14.46
15.91
16.18
15.65
14.61
13.27
11.79
10.40
9.38
9.01
9.50
10.85
12.82
15.02
16.96
18.25
18.66
18.14
16.83
14.95
12.75
10.47
8.31
6.47
5.07
4.21
3.86
3.92
4.24
4.60
4.83
4.82
4.59
4.18
3.69
3.12
2.38
1.28
-0.35
-2.45
-4.67
-6.33
-6.67
-5.09
-1.44
3.85
9.96
15.84
20.63
23.81
25.25
25.16
23.88
21.79
19.25
16.57
14.02
11.84
10.15
8.95
8.10
7.37
6.54
5.48
4.18
2.74
1.31
-0.02
-1.29
-2.57
-3.95
-5.48
-7.15
-8.92
-10.76
-12.65
-14.61
-16.61
-18.60
-20.50
-22.22
-23.71
-25.03
-26.29
-27.65
-29.25
-31.11
-33.11
-34.94
-36.11
-36.10
-34.45
-30.91
-25.57
-18.83
-11.42
-4.22
1.92
6.37
8.89
9.64
9.05
7.67
5.98
4.32
2.89
1.81
1.19
1.13
1.65
2.64
3.83
4.87
5.43
5.32
4.57
3.37
2.02
0.73
-0.43
-1.54
-2.74
-4.10
-5.59
-7.02
-8.22
-9.11
-9.75
-10.36
-11.17
-12.34
-13.86
-15.55
-17.11
-18.16
-18.40
-17.55
-15.45
-12.11
-7.72
-2.71
2.34
6.86
10.39
12.72
13.91
14.19
13.85
13.14
12.22
11.24
10.34
9.67
9.31
9.25
9.29
9.24
8.94
8.40
7.74
7.16
6.75
6.48
6.18
5.63
4.66
3.20
1.30
-0.95
-3.39
-5.87
-8.19
-10.18
-11.72
-12.77
-13.45
-13.97
-14.56
-15.40
-16.52
-17.69
-18.52
-18.50
-17.17
-14.34
-10.14
-5.04
0.34
5.37
9.62
12.89
15.14
16.42
16.81
16.34
15.17
13.57
11.96
10.79
10.34
10.68
11.60
12.71
13.50
13.55
12.64
10.80
8.35
5.76
3.51
1.95
1.19
1.08
1.32
1.53
1.39
0.71
-0.56
-2.35
-4.50
-6.80
-9.02
-10.98
-12.61
-13.94
-15.03
-15.93
-16.54
-16.55
-15.60
-13.34
-9.64
-4.69
1.06
6.96
12.40
16.91
20.22
22.28
23.14
22.97
21.98
20.47
18.75
17.18
16.05
15.57
15.87
16.93
18.59
20.55
22.41
23.79
24.40
24.21
23.35
22.10
20.68
19.21
17.65
15.87
13.80
11.48
9.10
6.91
5.14
3.89
3.14
2.70
2.30
1.64
0.46
-1.44
-4.11
-7.41
-11.01
-14.42
-17.04
-18.34
-17.96
-15.87
-12.39
-8.13
-3.86
-0.28
2.09
3.03
2.56
0.93
-1.53
-4.48
-7.51
-10.23
-12.17
-12.97
-12.40
-10.60
-8.03
-5.42
-3.54
-2.96
-3.86
-6.06
-9.02
-12.18
-15.01
-17.23
-18.78
-19.75
-20.30
-20.56
-20.63
-20.60
-20.55
-20.56
-20.66
-20.85
-21.09
-21.37
-21.66
-21.85
-21.79
-21.16
-19.57
-16.68
-12.37
-6.87
-0.73
5.30
10.49
14.29
16.48
17.10
16.40
14.70
12.38
9.85
7.53
5.83
5.06
5.29
6.29
7.57
8.57
8.81
8.11
6.55
4.47
2.20
0.04
-1.93
-3.73
-5.43
-7.08
-8.67
-10.09
-11.17
-11.71
-11.59
-10.85
-9.79
-8.89
-8.73
-9.75
-12.02
-15.10
-18.16
-20.14
-20.12
-17.62
-12.74
-6.15
1.08
7.86
13.27
16.79
18.37
18.29
17.04
15.18
13.20
11.45
10.16
9.45
9.31
9.66
10.29
10.94
11.35
11.34
10.84
9.93
8.72
7.36
5.91
4.38
2.72
0.91
-1.01
-2.94
-4.75
-6.28
-7.47
-8.32
-8.91
-9.39
-9.93
-10.62
-11.55
-12.77
-14.27
-15.99
-17.67
-18.92
-19.15
-17.84
-14.65
-9.67
-3.40
3.29
9.41
14.18
17.13
18.24
17.81
16.34
14.34
12.25
10.40
9.00
8.17
7.95
8.33
9.22
10.45
11.80
12.98
13.73
13.83
13.18
11.85
10.05
8.05
6.11
4.37
2.81
1.32
-0.25
-1.91
-3.54
-4.93
-5.83
-6.12
-5.85
-5.28
-4.72
-4.57
-5.06
-6.27
-8.04
-10.01
-11.60
-12.15
-11.07
-7.96
-2.83
3.91
11.42
18.73
24.87
29.20
31.43
31.68
30.40
28.18
25.64
23.29
21.53
20.54
20.31
20.69
21.39
22.08
22.43
22.18
21.15
19.28
16.60
13.26
9.52
5.67
1.96
-1.38
-4.29
-6.81
-9.03
-11.07
-12.97
-14.73
-16.32
-17.72
-18.98
-20.17
-21.40
-22.73
-24.22
-25.87
-27.71
-29.70
-31.69
-33.36
-34.22
-33.68
-31.26
-26.75
-20.44
-13.08
-5.70
0.61
5.04
7.16
7.05
5.15
2.13
-1.26
-4.29
-6.33
-6.90
-5.79
-3.13
0.65
4.83
8.64
11.43
12.88
12.99
12.08
10.55
8.81
7.13
5.60
4.23
2.91
1.60
0.29
-0.89
-1.80
-2.32
-2.42
-2.19
-1.83
-1.55
-1.51
-1.78
-2.37
-3.22
-4.21
-5.12
-5.62
-5.26
-3.65
-0.56
3.95
9.50
15.48
21.22
26.12
29.76
31.91
32.50
31.63
29.54
26.62
23.33
20.14
17.44
15.44
14.13
13.36
12.88
12.44
11.85
10.98
9.79
8.29
6.56
4.65
2.67
0.63
-1.46
-3.65
-5.93
-8.24
-10.43
-12.34
-13.85
-14.91
-15.57
-15.96
-16.23
-16.52
-16.95
-17.64
-18.70
-20.17
-22.00
-23.90
-25.39
-25.85
-24.72
-21.66
-16.75
-10.50
-3.79
2.41
7.29
10.39
11.66
11.33
9.86
7.70
5.24
2.84
0.81
-0.54
-1.02
-0.58
0.57
2.01
3.26
3.91
3.81
3.06
1.90
0.58
-0.78
-2.21
-3.84
-5.75
-7.89
-10.05
-11.97
-13.43
-14.38
-14.94
-15.32
-15.79
-16.51
-17.55
-18.81
-20.06
-20.99
-21.21
-20.32
-18.05
-14.33
-9.38
-3.71
1.98
6.98
10.73
12.91
13.53
12.81
11.15
8.98
6.73
4.76
3.36
2.71
2.82
3.52
4.53
5.48
6.08
6.19
5.79
4.98
3.82
2.32
0.45
-1.78
-4.28
-6.85
-9.19
-11.05
-12.31
-13.03
-13.47
-13.97
-14.90
-16.46
-18.65
-21.17
-23.46
-24.77
-24.41
-21.91
-17.25
-10.94
-3.87
2.90
8.46
12.29
14.37
15.03
14.75
13.94
12.82
11.50
10.07
8.73
7.77
7.41
7.67
8.27
8.77
8.74
8.03
6.77
5.36
4.16
3.28
2.56
1.57
-0.05
-2.46
-5.43
-8.49
-11.12
-13.00
-14.14
-14.78
-15.34
-16.18
-17.53
-19.38
-21.53
-23.55
-24.81
-24.62
-22.35
-17.77
-11.19
-3.47
4.22
10.74
15.34
17.89
18.76
18.58
17.97
17.38
16.96
16.73
16.61
16.55
16.55
16.64
16.84
17.09
17.28
17.21
16.70
15.67
14.15
12.32
10.41
8.57
