1565892957.00
64.000000
-0.00
-0.00
-0.00
-0.00
-0.00
-0.00
-0.00
-0.00
-0.00
-0.00
0.00
0.01
0.01
-0.00
-0.03
-0.05
-0.05
0.00
0.13
0.36
0.66
1.01
1.37
1.72
2.06
2.40
2.79
3.24
3.80
4.43
5.09
5.73
6.31
6.86
7.44
8.13
8.98
10.11
11.43
12.81
14.10
15.22
16.20
17.20
18.47
20.21
22.68
25.70
28.97
32.15
35.01
37.61
40.28
43.53
47.79
53.52
60.36
67.74
74.96
81.55
87.53
93.46
100.21
108.55
119.16
131.55
144.79
157.67
169.36
179.75
189.60
200.63
212.06
226.54
244.69
266.25
289.36
310.43
324.80
328.06
317.60
293.56
259.07
218.05
174.15
129.35
83.94
37.53
-9.68
-56.24
-99.88
-138.23
-170.87
-198.99
-224.95
-251.19
-279.19
-309.10
-339.79
-369.28
-394.92
-414.11
-424.31
-423.50
-411.24
-389.25
-361.24
-331.78
-304.62
-280.94
-259.35
-236.78
-210.71
-181.01
-150.34
-122.92
-102.33
-89.63
-82.77
-77.80
-70.90
-60.25
-46.77
-33.11
-22.06
-14.81
-10.60
-7.16
-2.23
5.03
13.65
21.31
25.85
26.57
24.81
23.25
24.38
29.01
35.68
41.36
43.12
39.90
33.20
26.45
23.10
24.83
30.62
37.33
41.42
40.87
36.05
29.37
23.78
21.08
21.03
21.93
21.80
20.03
17.64
16.80
19.24
24.83
31.21
34.71
32.28
23.29
10.30
-1.97
-8.69
-7.28
1.23
12.75
22.14
25.83
23.54
18.04
13.22
11.57
12.69
13.73
11.63
5.44
-2.62
-8.42
-8.39
-2.02
7.61
15.59
18.02
14.38
7.75
2.79
2.91
8.23
15.48
19.98
18.30
10.32
-0.60
-9.30
-11.47
-5.91
4.76
15.36
20.79
18.60
10.32
0.45
-5.94
-5.96
-0.26
7.32
12.28
11.85
6.52
-0.68
-6.02
-7.45
-5.49
-2.76
-2.04
-4.34
-8.22
-10.67
-9.09
-3.06
4.85
10.27
9.25
0.56
-13.21
-26.57
-33.82
-31.80
-21.66
-8.34
1.85
4.49
-0.89
-10.74
-19.66
-23.41
-20.93
-14.56
-8.24
-5.03
-5.43
-7.55
-8.58
-6.90
-2.97
1.02
2.79
1.64
-0.97
-2.28
-0.11
5.53
12.04
15.52
13.12
4.95
-5.55
-13.29
-14.35
-8.26
1.52
9.44
10.88
4.95
-5.09
-13.51
-15.29
-8.87
3.11
15.41
22.98
23.57
18.66
12.32
8.80
10.20
15.53
21.45
24.36
22.54
17.13
11.30
8.24
9.07
12.08
13.79
11.16
3.85
-5.23
-11.22
-10.24
-1.79
10.52
20.71
23.54
17.37
5.16
-7.20
-14.00
-12.78
-5.34
3.45
8.62
7.76
2.26
-3.91
-6.69
-4.36
1.59
7.45
9.71
7.32
2.25
-1.72
-1.51
3.21
9.63
13.42
11.43
3.79
-5.86
-12.41
-12.22
-5.39
4.14
10.72
10.22
2.46
-8.57
-16.82
-17.51
-9.64
3.57
16.38
23.71
23.40
17.18
9.16
3.50
2.19
4.37
7.34
8.40
6.66
3.43
1.21
1.91
5.46
9.59
11.05
7.60
-0.49
-10.12
-16.84
-17.14
-10.48
0.17
9.74
13.55
9.87
0.82
-8.87
-14.43
-13.74
-8.33
-2.26
0.49
-1.55
-6.45
-10.21
-9.31
-3.09
5.68
12.20
12.51
5.74
-5.08
-14.68
-18.35
-14.37
-4.81
5.71
12.55
13.38
9.08
2.87
-1.62
-2.33
0.41
4.40
7.23
7.61
6.08
4.43
4.33
6.19
8.66
9.41
6.59
0.29
-7.04
-11.68
-10.65
-3.70
6.08
13.64
14.63
7.88
-3.66
-14.36
-18.87
-15.03
-4.88
6.55
14.12
15.41
11.62
6.35
3.13
3.18
4.97
5.45
2.39
-4.06
-11.21
-15.32
-13.74
-6.60
3.14
10.97
13.10
8.40
-1.00
-10.67
-16.03
-14.68
-7.57
1.53
8.17
9.69
6.56
2.03
-0.07
2.24
7.78
12.83
13.44
7.99
-1.75
-11.51
-16.90
-15.87
-9.73
-2.15
3.09
4.37
3.05
2.41
5.45
12.71
21.70
28.02
27.90
20.40
8.01
-4.59
-12.98
-15.30
-12.89
-9.31
-8.07
-10.59
-15.50
-19.63
-19.99
-15.54
-7.79
0.00
4.62
4.65
1.16
-3.00
-4.77
-2.66
2.45
7.80
10.49
9.21
5.14
1.41
1.16
5.66
13.32
20.39
23.04
19.29
10.26
-0.58
-9.19
-13.10
-12.41
-9.40
-6.85
-6.31
-7.26
-7.58
-5.16
0.64
8.24
14.52
16.48
12.87
5.05
-3.73
-10.02
-12.04
-10.54
-8.15
-7.56
-9.62
-12.72
-13.63
-9.65
-0.51
11.00
20.26
23.39
19.20
9.96
-0.01
-6.62
-8.05
-5.37
-1.54
0.55
-0.12
-2.31
-3.38
-1.08
4.86
12.40
18.12
19.07
14.38
5.76
-3.33
-9.51
-11.15
-9.13
-6.03
-4.47
-5.38
-7.39
-7.66
-3.71
4.71
15.09
23.03
24.50
18.07
5.97
-6.68
-14.40
-14.05
-6.50
3.85
11.38
12.36
6.74
-2.01
-9.18
-11.70
-9.82
-6.65
-5.83
-8.96
-14.25
-17.69
-15.54
-6.98
5.06
15.25
18.76
14.05
3.56
-7.57
-14.36
-14.58
-9.50
-2.82
1.67
2.29
0.07
-2.23
-2.13
0.90
5.05
7.23
5.02
-1.74
-10.59
-17.64
-19.53
-15.20
-6.53
2.63
8.43
9.13
6.00
2.47
2.03
6.06
13.03
19.22
20.96
16.78
8.17
-1.15
-7.38
-8.72
-6.11
-2.63
-1.44
-3.93
-8.75
-12.67
-12.48
-7.06
1.72
9.71
12.73
8.81
-0.48
-10.75
-17.07
-16.59
-10.04
-1.13
5.49
6.95
3.48
-1.90
-5.42
-4.89
-1.09
2.74
3.02
-1.78
-9.88
-16.92
-18.40
-12.40
-0.89
11.13
18.34
17.98
11.16
1.99
-4.97
-7.31
-5.84
-3.65
-3.71
-6.85
-11.11
-13.02
-9.93
-1.92
7.83
14.46
14.03
5.71
-7.72
-21.08
-29.56
-31.09
-27.36
-22.71
-21.61
-26.07
-34.56
-42.95
-46.94
-44.54
-37.17
-28.85
-24.00
-25.07
-31.58
-40.58
-48.47
-52.71
-52.67
-49.24
-43.87
-37.83
-32.09
-27.74
-26.18
-28.61
-35.20
-44.20
-52.33
-55.75
-51.91
-40.44
-23.48
-4.79
11.36
20.96
20.76
10.11
-7.74
-25.56
-34.05
-25.64
1.56
42.09
85.09
119.14
137.20
139.40
132.07
123.94
121.68
127.59
140.03
155.69
171.71
186.42
198.49
206.22
207.47
200.69
186.11
166.38
145.68
128.31
116.70
110.72
108.22
106.54
104.07
100.93
98.61
98.45
100.03
100.33
94.43
76.78
43.03
-8.49
-75.80
-152.97
-230.53
-296.63
-339.72
-352.17
-333.43
-291.51
-241.33
-199.71
-178.94
-182.15
-203.00
-229.82
-251.78
-263.51
-265.57
-261.28
-252.30
-236.17
-207.31
-160.56
-95.05
-16.08
66.36
141.32
200.62
240.88
263.60
272.78
272.51
265.24
251.26
229.53
199.30
162.44
124.40
92.80
74.41
71.56
79.70
87.97
83.15
55.36
2.84
-66.48
-138.13
-197.31
-235.21
-252.20
-255.30
-254.80
-259.35
-272.10
-290.34
-308.19
-319.93
-321.76
-311.59
-289.89
-256.08
-210.05
-154.02
-93.67
-37.10
8.07
38.10
55.50
67.18
81.62
105.02
139.22
181.90
228.44
273.85
314.44
348.03
373.09
388.21
391.85
382.98
361.79
330.75
291.80
245.71
191.81
128.95
57.19
-20.42
-97.05
-163.20
-208.57
-226.90
-218.05
-188.76
-147.09
-99.56
-49.88
0.20
48.95
92.96
127.18
147.02
150.72
140.28
120.38
95.78
68.90
39.30
5.39
-32.40
-69.04
-95.49
-102.11
-83.96
-44.28
5.96
52.15
81.66
87.90
71.53
38.34
-4.12
-49.21
-91.83
-127.59
-152.19
-161.68
-153.83
-129.27
-91.74
-47.27
-3.08
34.05
59.29
71.22
72.39
68.53
66.05
68.73
75.50
80.66
76.89
59.51
29.25
-7.75
-43.08
-70.09
-86.39
-93.63
-95.08
-93.12
-88.09
-78.99
-65.14
-47.45
-28.48
-11.54
0.56
6.63
7.51
5.72
4.53
6.51
12.25
19.81
25.60
25.98
19.41
7.39
-6.18
-16.94
-22.15
-21.71
-17.65
-12.54
-8.16
-5.00
-2.84
-1.69
-2.45
-6.50
-14.71
-26.16
-37.81
-45.34
-45.17
-36.53
-22.44
-8.72
-1.43
-3.86
-14.71
-28.70
-39.10
-41.15
-34.22
-21.96
-10.14
-3.73
-4.64
-11.27
-19.84
-26.64
-29.89
-30.44
-30.74
-32.86
-37.01
-41.46
-44.18
-44.72
-45.19
-49.15
-59.05
-74.04
-89.53
-99.27
-98.65
-87.39
-69.69
-52.14
-40.55
-37.39
-41.35
-48.47
-53.96
-53.64
-44.78
-26.62
-0.67
29.44
58.65
82.11
96.88
103.14
104.10
104.50
108.57
118.35
133.22
150.39
166.00
176.18
177.82
169.05
149.69
121.54
88.18
54.39
25.02
3.99
-6.16
-4.35
9.22
32.93
63.46
95.60
122.76
138.39
137.92
120.13
87.53
45.60
1.51
-37.16
-63.56
-72.78
-63.16
-37.48
-3.09
29.86
51.81
57.38
47.47
28.30
8.06
-6.95
-14.59
-16.34
-14.90
-11.57
-5.80
3.37
14.80
24.23
25.62
14.60
-8.70
-38.55
-66.05
-83.02
-85.30
-73.90
-53.65
-30.38
-8.60
9.46
23.47
33.99
41.76
47.61
52.40
56.87
61.04
63.77
63.22
58.05
48.65
37.31
27.65
22.77
23.83
29.53
37.02
43.64
48.32
52.12
56.65
63.78
74.62
89.94
110.45
136.51
167.14
198.83
225.49
238.59
230.44
196.65
138.25
62.04
-21.13
-99.67
-164.92
-211.83
-241.54
-259.01
-270.65
-280.81
-289.37
-291.29
-278.89
-248.19
-195.83
-127.82
-54.09
13.79
66.05
97.37
107.83
102.26
88.12
73.59
63.88
60.59
60.73
57.87
44.68
16.11
-27.83
-81.37
-134.39
-177.05
-202.93
-211.41
-206.97
-195.72
-182.45
-169.08
-155.37
-140.72
-126.26
-114.33
-107.15
-105.27
-106.46
-106.74
-102.31
-91.54
-75.90
-59.69
-48.14
-45.34
-52.54
-67.59
-85.73
-101.37
-110.17
-110.37
-103.30
-92.39
-81.54
-73.43
-68.36
-64.23
-57.54
-44.70
-23.25
7.50
46.07
88.61
128.97
159.56
173.52
167.29
142.64
106.88
70.89
45.83
39.64
54.96
88.84
134.06
181.38
221.66
247.79
255.83
245.57
219.98
184.02
143.05
101.84
64.46
34.74
16.33
11.64
20.00
36.46
52.67
60.03
53.67
35.14
11.89
-6.24
-12.07
-4.55
10.77
24.76
29.23
20.66
1.25
-22.98
-45.56
-62.44
-72.85
-78.16
-79.78
-77.60
-69.73
-53.84
-29.15
1.97
33.91
59.81
74.40
76.43
69.01
57.74
47.54
39.99
33.10
23.09
7.42
-13.22
-35.15
-54.07
-67.84
-77.59
-86.71
-97.92
-110.99
-122.28
-126.46
-119.01
-98.23
-65.64
-25.23
17.89
58.50
91.81
114.06
122.99
118.49
102.61
79.12
52.50
26.88
5.58
-9.15
-16.06
-15.16
-8.17
1.41
9.26
11.88
8.61
2.48
-0.75
4.87
22.35
50.04
82.06
110.55
128.68
132.71
122.51
100.86
72.42
43.12
19.81
9.21
16.10
40.95
78.71
119.77
153.05
169.94
167.30
147.71
117.59
83.97
51.91
23.30
-2.80
-28.57
-55.85
-84.94
-114.54
-142.38
-165.96
-182.73
-189.76
-183.82
-162.19
-124.96
-77.28
-30.14
1.84
5.45
-25.56
-87.20
-166.21
-245.01
-308.31
-347.92
-363.65
-360.88
-346.37
-325.13
-299.16
-268.32
-231.68
-188.40
-137.83
-79.63
-14.33
55.79
125.57
187.06
231.45
252.55
249.62
228.05
196.79
164.09
134.21
107.28
82.28
60.31
45.33
41.15
46.82
54.30
50.95
26.10
-22.39
-85.89
-148.64
-195.82
-220.57
-226.12
-222.18
-218.28
-218.68
-221.38
-220.95
-212.70
-195.52
-171.81
-145.34
-118.78
-92.28
-63.43
-28.65
14.97
67.85
127.20
187.60
242.74
287.51
319.54
339.39
349.54
352.69
350.54
343.55
331.66
315.26
295.54
274.22
252.66
231.27
209.49
186.48
161.90
136.27
110.84
86.94
65.52
46.88
30.86
17.45
7.06
0.61
-1.00
2.49
10.08
19.47
27.63
31.54
28.91
18.49
0.16
-25.02
-54.67
-85.07
-111.71
-130.46
-138.97
-137.60
-129.19
-117.64
-105.91
-94.78
-82.83
-68.11
-50.14
-31.41
-16.91
-12.02
-19.60
-38.17
-62.13
-83.85
-96.77
-97.70
-87.57
-70.18
-50.25
-31.60
-16.30
-5.16
1.48
3.13
-0.71
-9.64
-21.70
-33.31
-40.12
-38.77
-28.75
-13.42
0.44
5.07
-4.78
-28.88
-60.63
-89.02
-102.63
-94.12
-62.89
-15.26
37.90
84.80
115.86
125.66
113.34
82.07
38.13
-10.18
-54.03
-85.79
-100.86
-98.71
-82.77
-59.01
-34.12
-13.67
-1.36
0.94
-7.13
-24.40
-47.91
-72.78
-92.79
-102.00
-96.81
-77.27
-46.91
-10.75
26.83
63.61
99.35
134.27
167.21
194.87
212.82
217.49
208.21
187.72
161.18
133.79
108.75
86.33
64.46
40.42
12.35
-19.91
-55.27
-92.30
-130.01
-167.93
-205.57
-241.44
-272.20
-293.35
-300.53
-291.67
-268.30
-235.43
-199.54
-165.73
-135.77
-108.25
-81.19
-54.91
-33.29
-22.16
-25.07
-39.48
-56.10
-62.80
-51.21
-22.42
12.69
38.56
43.27
25.42
-4.50
-28.78
-30.98
-3.58
48.72
111.87
168.91
206.67
219.54
208.96
180.66
141.40
97.47
54.90
20.22
0.26
0.95
25.39
72.11
134.45
201.80
261.90
303.98
321.47
313.75
286.43
250.27
218.31
202.18
208.43
235.98
276.40
316.29
341.66
342.27
314.36
260.43
186.97
101.36
10.31
-79.81
-161.89
-228.29
-273.39
-297.09
-306.62
-314.19
-331.39
-363.00
-404.42
-444.41
-471.53
-480.12
-472.61
-456.97
-441.51
-430.67
-423.87
-417.58
-408.30
-394.48
-376.52
-355.73
-332.98
-308.27
-281.00
-250.68
-217.31
-181.61
-144.21
-104.76
-61.16
-9.87
52.52
126.74
209.10
291.45
363.56
417.03
448.48
460.70
460.81
456.70
453.56
452.34
450.43
444.04
430.56
409.80
383.74
355.43
327.70
302.44
280.37
261.32
244.67
230.10
217.78
208.37
202.62
200.67
201.44
202.36
199.58
188.51
164.63
124.61
67.62
-3.42
-81.18
-154.67
-211.41
-241.13
-239.43
-210.04
-164.37
-118.01
-85.54
-75.71
-89.08
-118.82
-154.13
-184.51
-203.00
-207.43
-199.61
-183.49
-163.30
-142.34
-122.61
-105.18
-90.44
-78.36
-68.68
-60.92
-54.51
-48.80
-43.22
-37.41
-31.30
-25.26
-20.05
-16.58
-15.31
-15.83
-16.72
-16.02
-12.24
-5.39
2.69
8.96
10.53
6.27
-2.48
-12.36
-19.57
-21.56
-18.21
-11.71
-5.47
-2.47
-3.86
-8.51
-13.50
-15.47
-12.20
-3.90
6.65
15.00
16.94
10.39
-3.47
-20.43
-34.88
-42.05
-39.82
-29.42
-14.67
-0.18
10.47
15.74
16.12
13.07
7.97
1.54
-5.84
-13.49
-19.96
-23.46
-22.80
-18.44
-12.59
-8.40
-8.33
-12.85
-20.24
-27.50
-31.89
-32.10
-28.43
-22.28
-15.20
-8.24
-1.87
3.75
8.49
12.07
14.19
14.66
13.58
11.30
8.53
6.05
4.55
4.19
4.42
4.19
2.57
-0.49
-3.84
-5.59
-4.26
0.16
5.94
10.39
11.39
8.62
3.88
0.06
-0.40
3.08
9.08
14.95
18.28
18.02
14.80
10.17
5.62
1.69
-2.14
-6.85
-12.80
-19.15
-23.86
-24.58
-19.97
-10.56
1.24
12.06
18.98
20.72
17.94
12.68
7.22
2.95
0.03
-2.35
-5.15
-8.69
-12.26
-14.58
-14.51
-11.87
-7.80
-4.20
-2.82
-4.13
-6.96
-9.02
-8.22
-3.96
2.38
8.08
10.57
8.84
3.86
-1.95
-6.17
-7.65
-6.93
-5.65
-5.47
-6.94
-9.26
-10.84
-10.25
-7.27
-3.03
0.49
1.63
0.03
-2.95
-4.90
-3.71
1.18
8.24
14.53
17.21
15.12
9.30
2.39
-2.79
-4.76
-3.85
-1.73
-0.19
-0.05
-0.82
-1.19
-0.03
2.85
6.50
9.37
10.19
8.58
5.33
1.88
-0.39
-0.90
-0.11
0.79
0.66
-0.87
-3.09
-4.59
-4.07
-1.22
3.02
6.83
8.51
7.45
4.50
1.54
0.36
1.65
4.50
6.89
6.84
3.49
-2.37
-8.64
-13.12
-14.67
-13.82
-12.46
-12.78
-15.95
-21.54
-27.71
-32.38
-34.62
-35.50
-37.87
-45.03
-58.89
-78.70
-100.87
-120.15
-131.52
-131.77
-120.13
-97.91
-67.69
-32.68
3.24
35.29
58.08
66.79
59.19
37.39
7.95
-20.11
-38.75
-44.07
-37.43
-23.84
-8.62
5.60
19.62
35.62
53.88
70.83
80.32
77.28
61.75
40.31
23.46
20.72
36.21
66.79
104.00
138.08
161.94
172.75
171.00
158.19
135.62
104.75
68.49
31.83
0.35
-22.61
-38.67
-54.42
-78.32
-115.35
-162.75
-209.91
-242.84
-251.71
-236.62
-208.14
-182.14
-171.31
-177.91
-192.40
-198.35
-180.87
-134.65
-66.85
6.35
67.19
103.99
114.89
106.52
88.81
69.72
52.28
35.62
18.59
2.96
-5.64
-0.25
24.18
67.69
124.89
186.73
243.96
290.46
324.32
347.33
362.69
372.89
378.32
377.37
367.60
347.27
316.90
279.22
238.13
197.19
158.36
121.54
85.14
48.19
8.80
-33.61
-78.08
-122.46
-164.23
-201.29
-232.28
-256.46
-273.61
-283.69
-286.22
-280.65
-266.65
-244.41
-214.84
-179.35
-138.49
-93.93
-47.67
-1.37
43.64
86.33
125.90
161.50
192.46
218.25
238.31
252.18
259.83
261.29
256.60
245.74
229.42
207.39
179.18
144.65
104.23
59.18
11.04
-38.87
-88.05
-134.80
-177.78
-216.18
-249.27
-276.27
-295.69
-306.26
-307.41
-299.63
-287.71
-273.28
-256.95
-238.43
-217.14
-191.68
-161.24
-126.26
-88.78
-52.13
-19.76
4.43
16.72
13.76
-4.84
-36.55
-75.58
-114.16
-144.69
-162.08
-166.08
-157.09
-143.39
-130.61
-121.03
-111.97
-99.67
-80.90
-53.94
-19.23
21.60
66.12
113.24
161.59
208.78
250.98
283.72
302.75
305.00
289.27
255.33
205.94
145.27
78.15
9.22
-57.17
-117.22
-167.65
-205.87
-232.18
-246.77
-250.80
-246.48
-237.16
-226.34
-217.18
-211.78
-211.13
-214.76
-221.22
-228.83
-235.75
-239.98
-239.14
-230.70
-212.47
-183.50
-144.83
-99.52
-52.55
-9.57
24.27
46.02
55.09
53.20
43.26
28.45
12.10
-2.43
-11.53
-11.43
0.96
27.38
68.19
123.32
193.42
279.84
382.89
499.63
620.02
729.78
814.73
865.46
880.38
865.30
829.68
781.79
725.93
662.96
592.84
517.85
442.77
372.84
311.24
257.83
209.35
161.64
114.17
66.13
19.18
-23.48
-59.08
-86.76
-108.34
-127.64
-148.84
-174.49
-204.76
-236.61
-265.31
-286.70
-299.18
-304.68
-308.30
-317.01
-335.78
-368.18
-413.70
-467.19
-519.54
-559.80
-578.10
-568.78
-532.42
-475.74
-410.07
-347.29
-296.99
-264.03
-248.01
-244.03
-244.76
-243.08
-234.30
-217.69
-195.74
-172.21
-149.51
-127.20
-102.20
-71.44
-34.23
6.65
46.31
80.84
109.74
137.51
169.79
210.16
257.44
305.19
343.83
365.55
368.08
355.81
337.71
323.50
319.54
325.93
337.14
344.41
339.17
316.08
274.65
219.03
156.14
93.46
37.20
-8.80
-43.43
-66.36
-79.69
-87.62
-94.98
-105.38
-120.04
-138.01
-157.57
-177.02
-195.08
-210.67
-222.64
-229.84
-231.87
-229.67
-225.51
-222.16
-221.99
-225.87
-232.86
-241.00
-247.98
-251.88
-251.69
-247.34
-239.33
-228.21
-215.65
-201.52
-185.11
-165.84
-143.80
-120.15
-97.01
-77.12
-63.25
-57.70
-61.74
-75.87
-99.80
-132.58
-172.79
-218.75
-268.60
-320.30
-371.62
-420.05
-463.16
-498.65
-524.50
-539.13
-541.39
-530.59
-506.45
-468.93
-418.54
-356.41
-284.24
-204.13
-118.59
-30.36
57.61
142.33
221.03
291.35
351.45
400.14
436.88
461.67
474.92
477.36
469.92
453.78
430.45
401.82
370.15
337.85
307.13
279.64
256.29
237.18
221.84
209.58
199.85
192.43
187.44
185.08
185.33
187.78
191.55
195.43
198.21
199.06
198.00
196.36
197.12
204.55
222.88
254.27
296.74
343.50
384.31
408.52
408.46
381.70
331.40
265.00
192.14
122.56
64.63
24.02
2.92
-0.24
9.77
26.44
43.82
58.35
69.70
80.38
94.09
113.94
141.12
174.04
208.20
237.52
256.12
260.38
250.75
231.59
209.77
192.35
184.61
188.44
202.72
224.12
247.89
268.77
280.85
278.22
256.62
215.42
158.30
93.36
30.59
-24.45
-69.62
-107.30
-142.84
-181.22
-221.18
-259.58
-291.77
-313.44
-322.16
-318.07
-302.62
-278.18
-247.78
-214.91
-183.67
-157.48
-138.15
-126.05
-119.97
-118.08
-118.78
-120.75
-122.60
-122.89
-119.71
-111.55
-98.53
-82.87
-68.50
-59.35
-57.14
-60.08
-63.85
-63.58
-56.83
-45.17
-33.34
-26.69
-28.32
-37.74
-51.92
-67.89
-84.81
-104.18
-127.93
-155.63
-183.07
-203.50
-210.56
-201.84
-180.69
-155.03
-133.85
-123.26
-123.81
-130.76
-136.87
-135.89
-125.04
-105.54
-81.50
-58.01
-39.88
-30.72
-32.66
-46.01
-68.79
-96.12
-120.85
-135.20
-132.68
-109.66
-65.90
-4.70
67.58
142.02
208.97
260.17
291.07
302.60
300.20
292.75
288.97
294.18
308.41
327.66
346.17
358.59
361.31
352.51
331.60
298.48
255.89
205.69
149.89
90.97
31.68
-25.33
-77.94
-124.58
-164.25
-196.25
-220.30
-236.31
-243.53
-241.37
-229.92
-210.38
-184.85
-156.14
-127.13
-100.51
-78.02
-60.21
-46.88
-37.39
-31.00
-27.06
-25.02
-24.45
-25.12
-26.67
-28.65
-30.61
-32.23
-33.32
-33.86
-33.92
-33.62
-33.15
-32.62
-32.02
-31.32
-30.54
-29.67
-28.74
-27.76
-26.73
-25.69
-24.64
-23.59
-22.53
-21.51
-20.52
-19.62
-18.79
-18.04
-17.36
-16.72
-16.12
-15.55
-14.98
-14.44
-13.92
-13.42
-12.94
-12.46
-11.99
-11.52
-11.04
-10.55
-10.04
-9.54
-9.03
-8.54
-8.07
-7.55
-7.03
-6.54
-6.08
-5.65
-5.25
-4.88
-4.54
-4.23
-3.93
-3.67
-3.44
-3.23
-3.03
-2.85
-2.67
-2.51
-2.36
-2.23
-2.10
-1.99
-1.89
-1.80
-1.71
-1.63
-1.55
-1.47
-1.40
-1.34
-1.29
-1.23
-1.19
-1.14
-1.10
-1.06
-1.02
-0.98
-0.95
-0.92
-0.89
-0.87
-0.84
-0.81
-0.79
-0.77
-0.75
-0.73
-0.71
-0.69
-0.68
-0.66
-0.64
-0.62
-0.59
-0.55
-0.51
-0.46
-0.39
-0.31
-0.23
-0.13
-0.03
0.07
0.18
0.29
0.40
0.50
0.62
0.73
0.85
0.97
1.10
1.24
1.38
1.54
1.72
1.93
2.17
2.46
2.74
3.00
3.24
3.44
3.67
3.96
4.34
4.85
5.49
6.21
7.00
7.83
8.73
9.70
10.77
11.96
13.24
14.56
15.88
17.13
18.31
19.50
20.80
22.32
24.16
26.27
28.56
30.87
32.98
34.85
36.56
38.29
40.19
42.30
44.41
46.04
46.52
45.16
41.49
35.48
27.43
17.90
7.40
-3.71
-15.27
-26.88
-38.56
-49.84
-59.96
-68.05
-73.49
-76.32
-77.12
-77.00
-76.48
-75.94
-75.33
-74.80
-75.05
-76.99
-80.56
-84.07
-83.96
-76.02
-57.97
-30.66
1.85
33.88
60.49
78.62
86.87
84.69
71.52
47.04
12.41
-28.35
-68.29
-99.02
-113.31
-107.84
-84.40
-49.19
-10.84
22.29
44.68
54.96
55.23
49.65
42.37
35.93
31.27
28.46
27.92
30.35
35.67
41.66
43.92
37.64
20.12
-6.87
-37.12
-62.28
-75.25
-72.93
-57.14
-32.99
-5.85
19.24
40.44
57.83
72.05
83.32
91.46
96.27
97.90
96.59
92.32
85.16
74.80
61.07
44.25
25.20
4.99
-15.02
-33.43
-50.04
-64.66
-77.63
-89.66
-101.76
-114.45
-126.99
-137.07
-140.25
-132.74
-112.96
-83.34
-49.85
-19.85
0.90
10.41
10.66
5.92
0.06
-4.87
-9.00
-13.35
-18.51
-23.96
-28.55
-31.37
-32.53
-33.18
-34.60
-37.86
-42.97
-48.82
-53.81
-56.44
-55.72
-51.46
-44.24
-34.48
-22.65
-8.82
7.32
25.98
46.98
69.60
92.53
113.41
130.92
143.94
151.91
154.87
154.19
149.82
142.05
131.14
117.30
100.97
82.48
62.36
41.34
19.74
-1.19
-20.55
-37.74
-52.23
-63.41
-70.86
-74.19
-73.21
-67.74
-58.01
-44.60
-28.47
-10.92
6.74
22.91
36.19
45.54
50.15
49.61
43.92
33.44
18.41
0.52
-18.68
-37.61
-54.89
-69.55
-81.16
-89.79
-96.10
-100.82
-104.32
-106.72
-107.63
-106.27
-101.83
-94.13
-82.94
-68.86
-52.66
-34.85
-15.73
4.94
27.37
51.42
75.44
97.90
116.78
130.54
138.76
142.11
142.42
141.61
141.15
141.78
143.84
147.16
150.97
154.01
153.03
144.79
127.11
100.37
68.07
35.80
8.90
-9.38
-18.81
-21.67
-20.86
-19.11
-18.09
-18.79
-22.31
-29.92
-42.67
-60.98
-84.14
-109.16
-131.97
-147.30
-150.71
-141.01
-121.84
-100.95
-87.02
-86.03
-96.66
-112.32
-123.80
-123.93
-110.78
-87.94
-61.80
-37.38
-17.61
-1.38
13.68
29.28
44.99
59.00
69.25
74.46
74.81
71.59
66.15
58.77
49.05
36.64
22.77
10.56
4.08
6.20
16.63
31.78
45.45
52.30
50.05
40.13
26.40
12.81
1.72
-6.56
-12.69
-17.41
-20.70
-22.09
-21.43
-19.32
-17.03
-15.89
-16.82
-19.72
-23.64
-27.29
-29.62
-30.28
-29.68
-28.81
-28.79
-30.27
-33.27
-37.20
-41.09
-44.10
-45.90
-46.62
-46.80
-47.12
-47.99
-49.47
-51.39
-53.36
-55.17
-56.80
-58.37
-60.01
-61.85
-63.58
-64.62
-64.29
-61.61
-55.87
-46.67
-33.91
-17.88
0.69
20.99
41.95
61.83
79.45
93.69
103.69
108.97
110.30
107.36
100.51
90.36
77.67
63.48
48.67
34.21
21.18
10.63
3.45
0.42
1.68
6.60
14.15
22.71
30.73
37.16
41.36
43.31
43.44
42.11
39.53
35.77
30.74
24.77
19.00
14.95
14.46
18.90
28.40
40.42
53.04
64.03
71.57
76.53
78.63
78.59
77.52
76.59
77.11
79.75
83.76
86.68
84.53
72.64
48.41
12.91
-29.93
-70.44
-99.94
-114.24
-114.48
-105.47
-93.09
-81.22
-71.13
-62.33
-53.99
-46.42
-40.71
-37.69
-36.99
-37.46
-37.50
-35.87
-32.35
-27.56
-22.88
-19.48
-17.80
-17.39
-17.31
-16.50
-14.32
-10.85
-6.90
-3.87
-3.08
-5.00
-8.70
-12.09
-12.55
-8.32
0.47
11.58
21.54
27.14
26.86
21.38
13.06
4.61
-2.03
-6.22
-8.29
-8.87
-8.21
-6.06
-2.02
4.03
11.69
20.18
28.49
35.65
41.01
44.22
45.10
43.68
39.92
33.84
25.45
15.32
4.03
-7.81
-19.47
-30.25
-39.44
-46.47
-51.07
-53.22
-53.29
-52.07
-50.41
-49.05
-48.22
-47.77
-47.14
-45.72
-43.19
-39.74
-36.05
-32.76
-30.16
-27.85
-25.33
-22.28
-19.07
-16.61
-15.01
-13.99
-12.92
-11.63
-10.85
-12.31
-17.49
-26.21
-35.78
-41.56
-39.16
-26.16
-4.77
20.16
43.04
60.03
70.37
74.89
75.13
71.88
65.08
54.29
39.78
22.76
5.26
-10.56
-23.19
-32.08
-37.81
-41.30
-43.56
-44.94
-45.16
-43.44
-39.05
-31.77
-22.04
-11.05
-0.36
8.79
16.06
21.90
27.15
32.43
37.82
42.83
46.70
49.29
50.95
51.58
50.35
45.72
36.73
24.45
12.41
5.09
5.75
14.15
26.65
38.19
45.14
46.98
45.63
43.84
41.43
36.71
27.82
14.86
0.73
-10.02
-13.77
-10.30
-2.38
5.17
8.60
6.44
-0.05
-8.20
-15.64
-21.14
-24.55
-26.38
-27.05
-26.39
-24.32
-21.14
-17.82
-15.63
-15.41
-17.21
-19.88
-21.84
-21.60
-18.73
-14.11
-9.51
-6.94
-7.63
-11.56
-17.29
-22.55
-24.78
-21.99
-13.62
-1.33
10.83
17.49
13.48
-3.69
-32.30
-65.97
-95.36
-111.18
-107.44
-83.63
-44.67
0.63
42.87
74.93
93.50
99.07
94.53
83.49
68.27
51.66
35.16
19.90
7.20
-1.82
-6.71
-8.33
-8.37
-8.77
-10.68
-14.39
-18.96
-22.98
-25.12
-24.68
-21.88
-17.43
-12.24
-7.03
-2.19
2.40
7.19
12.47
18.24
23.82
28.23
30.63
31.26
31.54
33.50
37.97
43.57
46.16
40.26
22.06
-8.27
-45.97
-83.84
-114.39
-133.19
-139.35
-133.14
-115.25
-86.74
-50.08
-10.14
26.17
52.10
62.75
58.64
44.42
26.24
9.75
-2.45
-9.64
-11.80
-8.94
-1.08
11.36
26.87
43.40
58.90
72.19
83.05
92.13
100.31
108.02
114.63
118.47
117.90
110.16
96.46
79.16
61.13
45.17
33.70
29.05
31.04
38.06
46.61
51.69
47.75
31.17
1.71
-34.80
-69.64
-95.04
-107.01
-106.68
-98.51
-87.82
-78.05
-69.84
-62.11
-54.00
-46.04
-39.61
-35.97
-35.14
-35.97
-36.63
-35.34
-31.41
-25.50
-19.26
-14.34
-11.74
-11.32
-12.13
-12.82
-12.22
-9.84
-6.10
-2.07
1.23
3.15
3.74
3.54
3.34
3.81
5.23
7.39
9.77
11.83
13.17
13.85
14.14
14.43
15.03
16.12
17.68
19.57
21.61
23.61
25.53
27.31
28.91
30.15
30.72
30.34
28.62
25.24
20.06
13.16
4.92
-3.98
-12.72
-20.28
-25.72
-28.33
-27.80
-24.12
-17.64
-8.99
1.02
11.37
21.05
29.08
34.48
36.46
34.61
28.99
20.27
10.05
-0.52
-10.25
-18.33
-24.59
-29.46
-33.62
-37.58
-41.36
-44.56
-46.51
-46.62
-44.90
-42.19
-39.87
-39.33
-41.27
-45.25
-49.87
-53.44
-54.75
-53.63
-51.19
-49.23
-49.29
-52.44
-58.22
-65.92
-74.62
-82.84
-88.31
-88.04
-79.19
-60.64
-34.04
-3.75
24.49
45.87
58.51
63.62
64.11
62.43
58.87
51.69
38.84
19.80
-2.86
-23.79
-37.15
-39.40
-31.22
-17.54
-5.56
-0.76
-4.86
-14.93
-24.96
-29.16
-24.65
-12.58
3.05
17.65
28.46
34.87
37.41
36.65
32.71
25.75
17.05
8.91
4.22
5.09
11.35
20.79
30.20
37.07
40.80
42.61
44.46
48.25
54.90
63.57
72.56
80.14
85.38
88.36
90.15
91.95
93.84
97.36
103.17
111.05
119.75
126.73
128.28
121.90
104.18
74.88
37.34
-3.16
-41.07
-72.45
-95.69
-110.94
-118.82
-119.80
-113.15
-99.80
-82.24
-64.17
-49.40
-40.60
-38.33
-40.95
-45.21
-46.96
-41.38
-25.13
2.44
37.99
74.09
100.99
110.00
97.11
64.54
20.39
-25.42
-64.72
-93.73
-113.18
-126.12
-134.79
-136.67
-131.04
-113.99
-84.36
-45.16
-3.16
34.29
62.11
78.66
87.32
92.56
96.34
95.09
81.63
49.70
-0.95
-62.26
-119.62
-157.29
-165.61
-144.21
-102.43
-54.92
-15.13
9.83
20.44
22.25
21.36
20.26
17.44
9.53
-5.14
-24.15
-41.07
-48.88
-43.38
-25.51
-0.56
24.08
42.01
50.31
49.92
44.87
40.28
40.28
47.13
60.79
79.36
99.54
116.98
126.49
122.99
103.49
69.18
26.88
-11.86
-34.31
-31.95
-4.88
36.81
76.99
100.00
97.06
69.27
26.12
-19.43
-56.53
-78.51
-85.98
-83.76
-76.64
-66.78
-54.24
-39.02
-22.81
-9.10
-1.86
-3.38
-12.52
-25.13
-35.85
-40.41
-37.43
-28.53
-17.23
-7.39
-1.58
-0.04
-0.86
-1.25
1.01
6.60
14.50
22.63
28.76
31.44
30.65
27.67
24.35
22.23
21.93
22.88
23.77
23.07
19.81
13.97
6.53
-1.13
-7.69
-12.65
-16.31
-19.43
-22.74
-26.67
-31.04
-35.49
-40.38
-46.90
-56.27
-68.19
-80.03
-85.97
-81.62
-64.95
-37.72
-5.36
25.71
50.87
68.05
77.25
78.08
68.86
47.81
15.74
-22.14
-56.94
-79.33
-84.07
-72.47
-51.52
-29.03
-11.78
-0.96
6.43
13.92
22.57
30.29
33.75
31.00
23.06
13.34
6.15
3.87
6.17
10.48
13.69
13.87
10.60
5.12
-0.24
-3.30
-2.94
0.47
5.13
8.68
9.42
6.90
2.18
-2.64
-5.30
-4.03
2.09
13.29
29.05
47.77
66.29
80.14
84.91
78.22
61.05
38.82
18.56
5.93
2.89
7.25
14.52
20.69
24.10
25.58
26.71
28.05
28.20
24.71
15.36
-0.33
-20.84
-43.34
-64.56
-81.85
-94.70
-104.05
-111.78
-119.87
-129.83
-142.19
-156.75
-169.73
-176.17
-171.01
-151.42
-118.34
-76.82
-34.11
3.50
32.72
53.47
66.74
72.76
71.13
62.35
48.94
36.14
28.25
25.81
25.98
25.11
22.63
22.63
31.32
52.20
82.41
113.76
136.14
143.73
137.45
123.38
108.36
95.69
84.26
69.78
50.45
26.71
2.27
-17.89
-30.18
-33.33
-28.78
-19.00
-6.11
8.32
22.33
33.34
38.23
33.86
20.26
0.33
-20.91
-38.33
-48.67
-51.54
-48.79
-42.75
-35.25
-27.23
-19.46
-13.27
-10.74
-14.04
-24.08
-39.21
-54.95
-65.37
-65.07
-52.20
-29.60
-3.92
16.64
26.27
23.83
12.75
-1.26
-13.24
-21.09
-25.75
-29.43
-33.80
-38.89
-43.49
-46.25
-46.72
-45.67
-44.66
-45.25
-48.03
-52.41
-56.84
-59.52
-59.05
-54.90
-47.45
-37.71
-26.78
-15.37
-3.62
8.74
22.03
35.70
49.26
61.74
71.89
78.70
81.75
81.42
78.75
75.13
72.26
70.70
70.39
70.68
70.55
69.24
66.47
62.80
59.24
57.03
56.97
59.03
62.29
65.32
67.03
66.84
65.17
63.08
61.81
62.40
65.52
71.48
80.01
89.65
97.16
98.40
88.92
66.82
34.19
-3.31
-38.38
-65.06
-80.76
-86.87
-86.89
-84.26
-80.58
-75.65
-68.50
-58.85
-47.76
-36.98
-28.34
-22.49
-19.05
-17.16
-15.98
-15.45
-16.30
-19.54
-25.22
-33.56
-43.63
-53.88
-62.79
-69.13
-72.57
-73.41
-73.28
-72.24
-70.49
-67.76
-63.44
-57.10
-48.49
-37.85
-25.91
-13.62
-1.60
9.50
19.51
29.14
38.00
46.18
53.85
61.02
67.45
72.58
76.02
77.31
76.05
71.97
65.29
56.62
46.91
37.31
29.12
23.41
21.07
22.37
27.24
35.29
45.90
58.05
70.40
81.61
90.23
95.19
95.12
89.93
80.28
67.96
55.01
43.20
34.19
28.66
27.12
28.12
30.98
35.45
42.03
50.69
60.11
68.37
72.02
67.66
49.27
17.70
-25.36
-76.25
-131.35
-188.54
-246.09
-304.30
-362.81
-423.77
-485.75
-544.95
-595.49
-632.52
-654.14
-659.86
-652.95
-612.53
-533.46
-425.71
-310.27
-204.78
-115.40
-46.83
14.06
75.40
138.88
197.70
247.29
284.52
309.27
324.05
332.16
337.81
342.10
345.31
344.91
342.25
340.47
343.06
351.32
363.45
376.61
386.00
388.15
368.36
321.72
254.18
179.40
110.48
54.12
11.11
-22.22
-49.81
-74.80
-95.84
-109.97
-115.31
-112.50
-104.60
-95.40
-88.39
-85.28
-85.74
-85.73
-80.49
-66.94
-44.53
-14.85
19.39
54.54
86.14
109.10
117.31
108.76
85.27
52.23
17.06
-13.49
-36.05
-52.03
-66.34
-83.33
-103.62
-124.11
-139.23
-143.50
-134.28
-113.29
-85.05
-58.42
-40.33
-32.99
-34.16
-39.42
-44.93
-49.24
-53.14
-58.45
-66.10
-74.46
-80.24
-80.62
-74.78
-64.06
-51.10
-38.34
-27.16
-17.49
-7.72
4.20
19.41
37.57
57.01
73.84
86.30
93.60
96.01
94.92
92.09
88.91
85.99
83.27
80.26
76.65
72.16
66.74
60.81
54.95
49.63
45.17
41.70
39.06
37.15
35.56
33.73
31.38
28.45
25.26
22.41
20.61
20.27
21.41
23.41
25.13
25.65
24.48
21.89
18.80
16.55
16.03
17.41
20.47
23.29
24.57
23.62
20.90
17.73
15.86
16.69
21.16
29.59
41.19
53.87
63.87
66.46
56.91
34.73
3.20
-31.01
-60.36
-79.67
-87.97
-88.36
-85.62
-83.42
-82.56
-81.71
-79.11
-74.23
-68.60
-64.93
-65.38
-70.40
-79.11
-89.93
-101.06
-110.69
-116.49
-115.81
-105.87
-86.47
-59.89
-30.66
-3.92
16.40
29.08
35.39
37.91
38.56
38.25
36.86
34.49
32.01
30.82
31.95
35.24
39.16
41.29
40.41
36.48
31.01
26.32
24.46
26.24
30.94
36.97
42.11
44.98
45.42
44.57
44.02
45.32
49.39
56.28
64.79
72.54
76.36
73.12
60.65
38.71
9.38
-22.96
-52.73
-74.75
-85.95
-86.30
-78.59
-66.71
-53.67
-40.03
-24.22
-4.34
19.41
43.78
63.09
71.62
66.38
48.26
21.26
-9.88
-41.24
-69.87
-92.31
-103.62
-98.15
-72.33
-27.77
27.75
81.91
122.05
139.52
132.33
104.98
66.22
25.97
-7.88
-30.52
-41.02
-41.71
-36.96
-31.49
-28.92
-30.78
-34.53
-38.29
-40.10
-39.47
-37.17
-34.02
-29.88
-23.89
-15.41
-4.97
4.92
11.79
13.90
11.36
6.08
1.06
-1.21
0.12
3.83
6.04
4.24
-3.10
-15.57
-30.78
-45.49
-56.89
-63.92
-65.64
-65.42
-66.51
-71.47
-81.39
-95.44
-110.64
-122.21
-124.61
-113.53
-88.28
-52.16
-12.29
23.25
48.46
61.85
66.34
66.93
67.85
70.48
73.86
75.45
72.60
63.78
49.04
30.34
11.27
-3.75
-11.05
-9.20
0.10
12.42
22.55
27.04
25.59
20.82
16.46
14.95
16.28
18.45
18.89
16.21
11.00
5.60
2.59
3.86
9.40
17.23
24.20
27.07
23.85
14.83
2.67
-8.47
-14.53
-13.40
-6.12
3.42
9.85
8.69
-1.44
-17.82
-34.39
-44.10
-42.20
-28.30
-6.66
15.54
31.28
36.76
32.53
22.36
12.47
7.52
8.90
15.14
23.70
32.39
39.87
44.97
46.15
41.72
30.66
13.75
-5.99
-24.25
-37.06
-42.24
-40.16
-32.85
-23.23
-14.10
-7.38
-3.74
-2.81
-3.59
-4.82
-5.38
-4.61
-2.51
0.29
3.05
5.39
7.20
8.60
9.66
10.39
10.68
10.18
8.25
3.91
-3.39
-13.90
-27.11
-41.66
-55.35
-65.81
-71.51
-72.70
-71.31
-69.10
-67.58
-66.99
-66.35
-63.91
-58.24
-49.44
-39.63
-31.91
-27.43
-25.88
-25.23
-22.68
-15.38
-1.21
20.64
49.54
82.56
118.29
154.87
190.21
221.18
244.91
259.89
266.21
264.76
248.98
218.91
179.44
138.58
101.67
70.16
42.74
17.13
-7.82
-34.63
-62.28
-89.25
-114.05
-137.88
-162.82
-190.33
-213.03
-224.35
-220.70
-202.19
-180.73
-161.67
-148.74
-143.82
-143.76
-145.69
-147.73
-149.05
-148.75
-146.75
-142.23
-135.59
-127.16
-116.68
-103.75
-88.33
-70.12
-47.67
-18.81
19.47
68.19
126.02
189.31
252.57
310.12
358.57
398.12
431.70
463.29
494.14
521.89
541.43
546.86
533.83
501.18
451.32
389.38
321.98
255.24
193.64
139.45
92.56
51.00
12.09
-26.44
-65.98
-107.20
-150.75
-197.04
-245.20
-291.80
-330.48
-353.69
-355.87
-336.74
-302.34
-262.83
-228.15
-203.66
-188.61
-177.68
-164.98
-147.67
-127.12
-107.33
-91.99
-82.37
-77.45
-75.58
-76.32
-80.91
-91.05
-107.15
-126.83
-145.41
-157.49
-159.07
-149.07
-129.53
-104.58
-78.63
-54.72
-33.68
-14.75
2.88
18.23
27.96
27.67
14.68
-9.50
-38.82
-65.08
-81.88
-87.59
-85.67
-82.23
-82.69
-89.58
-102.28
-118.24
-134.36
-147.67
-155.81
-157.39
-152.51
-142.77
-130.32
-116.44
-100.60
-80.94
-55.97
-26.21
5.48
35.36
60.69
80.93
97.14
110.16
119.37
122.99
120.00
112.02
103.53
99.84
104.10
115.05
127.06
132.60
125.82
105.35
74.91
41.57
12.54
-7.74
-18.78
-23.25
-24.83
-26.19
-28.22
-30.67
-33.41
-37.51
-44.74
-56.86
-74.29
-95.23
-115.63
-130.48
-135.51
-128.81
-111.57
-87.46
-61.77
-39.83
-25.33
-19.30
-20.12
-24.70
-30.22
-35.58
-41.18
-49.01
-61.30
-79.27
-102.16
-127.43
-151.81
-172.18
-186.24
-191.16
-186.22
-173.65
-157.89
-143.29
-132.22
-124.42
-117.60
-108.74
-91.81
-63.79
-26.54
14.07
51.73
82.53
105.61
122.51
136.33
156.45
189.49
235.77
289.91
345.44
398.54
448.43
495.97
541.99
593.93
655.36
722.77
786.76
837.43
868.29
876.51
862.04
780.23
615.02
389.05
152.71
-50.03
-200.30
-298.81
-354.68
-379.47
-385.24
-376.34
-357.79
-336.17
-317.71
-304.50
-294.44
-284.30
-272.94
-261.88
-249.00
-234.41
-221.18
-213.82
-214.41
-220.87
-228.67
-232.20
-226.87
-209.15
-181.10
-149.19
-120.14
-96.94
-78.22
-60.95
-43.58
-26.04
-9.64
2.78
9.44
11.68
14.15
22.94
42.80
75.20
119.70
171.49
222.03
262.15
285.50
289.88
276.46
248.32
196.20
123.87
46.02
-21.34
-70.39
-101.32
-117.70
-123.60
-122.35
-116.84
-107.46
-95.92
-85.28
-78.38
-75.99
-76.74
-78.51
-79.39
-78.47
-74.18
-67.24
-60.21
-55.91
-56.67
-62.19
-71.86
-84.60
-98.39
-108.59
-110.20
-99.40
-75.29
-40.85
-2.72
30.62
52.29
59.38
54.16
41.52
26.37
11.70
-1.58
-13.58
-24.06
-31.32
-33.55
-29.14
-19.03
-6.14
6.00
14.67
19.09
20.85
23.42
29.65
40.63
55.39
71.51
85.78
94.84
95.52
86.08
67.17
40.75
10.12
-20.26
-45.58
-61.66
-64.35
-55.24
-43.02
-32.19
-23.32
-15.15
-6.06
5.43
19.59
34.99
48.61
57.44
60.02
55.77
45.26
30.44
14.14
-0.97
-13.50
-23.99
-34.08
-45.29
-58.96
-75.46
-93.65
-111.18
-125.14
-132.69
-131.57
-120.06
-97.29
-64.61
-25.96
12.92
46.03
68.99
80.38
81.74
76.63
68.98
61.48
55.23
50.44
47.19
45.86
46.94
50.62
56.51
63.85
71.70
79.37
86.65
93.76
101.06
108.67
116.27
122.99
127.61
128.80
125.72
118.34
107.57
94.92
81.93
69.58
58.07
47.01
35.92
24.66
13.66
3.70
-4.50
-10.68
-15.26
-19.23
-23.69
-29.47
-36.79
-45.21
-53.83
-61.56
-67.36
-70.51
-70.72
-68.16
-63.33
-57.02
-50.10
-43.44
-37.79
-33.70
-31.47
-31.15
-32.55
-35.23
-38.67
-42.33
-45.73
-48.56
-50.67
-52.07
-52.86
-53.15
-52.99
-52.36
-51.20
-49.54
-47.48
-45.20
-42.97
-41.01
-39.43
-38.22
-37.22
-36.22
-35.03
-33.54
-31.80
-29.99
-28.42
-27.43
-27.29
-28.06
-29.45
-30.93
-31.72
-31.08
-28.45
-23.75
-17.34
-9.94
-2.44
4.40
10.06
14.33
17.13
18.51
18.50
17.22
14.98
12.29
9.81
8.09
7.40
7.61
8.33
9.10
9.61
9.76
9.68
9.46
9.12
8.54
7.60
6.30
4.66
2.70
0.34
-2.50
-5.89
-9.80
-14.01
-18.16
-21.94
-25.40
-28.89
-32.86
-37.27
-41.55
-44.74
-45.89
-44.18
-39.54
-32.88
-25.80
-20.16
-17.04
-16.75
-18.96
-22.99
-27.62
-31.69
-34.55
-36.14
-37.02
-37.36
-37.24
-36.80
-35.99
-33.93
-29.44
-21.57
-9.89
5.18
23.42
44.19
65.65
82.92
91.65
91.09
84.26
77.94
73.83
72.01
71.93
72.87
72.43
70.08
66.19
61.41
56.27
50.83
45.71
41.63
39.08
38.25
39.49
42.58
46.43
49.34
49.36
45.69
38.64
29.35
19.42
10.96
5.55
3.86
5.49
9.11
13.34
16.95
19.06
19.29
18.01
15.88
13.59
11.58
9.98
8.84
8.10
7.58
7.09
6.62
6.19
5.87
5.66
5.54
5.50
5.58
5.79
6.08
6.24
5.86
4.38
1.20
-4.11
-11.51
-20.32
-29.37
-37.28
-42.89
-45.70
-45.90
-44.29
-41.83
-39.29
-37.06
-35.27
-33.93
-33.29
-33.86
-36.27
-41.04
-48.32
-57.78
-68.74
-80.30
-91.58
-101.79
-110.43
-117.18
-121.90
-124.57
-125.28
-124.25
-121.80
-118.26
-113.83
-108.39
-101.48
-92.47
-80.87
-66.59
-49.98
-31.56
-11.65
9.74
32.64
56.53
79.89
100.49
116.14
125.65
129.26
128.50
125.33
121.23
116.80
111.97
106.58
100.99
96.15
92.83
91.37
91.38
91.90
91.77
90.04
86.65
82.77
80.39
81.15
85.75
93.30
101.37
106.87
106.91
100.42
88.68
74.50
60.28
47.70
37.51
29.70
24.12
19.77
15.87
12.07
8.01
2.37
-5.60
-15.47
-25.90
-34.77
-41.76
-47.33
-52.29
-57.82
-66.27
-78.96
-95.39
-113.32
-129.25
-141.68
-150.05
-154.45
-146.44
-122.95
-88.66
-53.43
-30.19
-17.38
-11.99
-12.02
-14.15
-17.16
-21.92
-28.93
-37.88
-46.99
-53.48
-56.78
-57.45
-56.58
-55.64
-56.70
-60.54
-66.77
-73.28
-76.95
-76.35
-71.14
-61.61
-48.57
-33.53
-13.98
9.39
33.62
55.65
73.40
86.59
95.71
101.21
103.05
101.84
98.16
93.50
89.57
87.06
85.58
83.82
81.58
77.70
72.24
65.51
58.35
51.50
45.12
39.01
32.67
25.84
18.42
10.68
2.44
-6.39
-16.10
-27.31
-38.43
-47.98
-54.41
-56.47
-53.26
-45.07
-33.53
-22.09
-14.80
-14.88
-23.05
-37.26
-53.76
-68.55
-80.51
-88.19
-90.98
-88.76
-81.89
-70.95
-57.39
-43.36
-30.95
-21.43
-14.25
-7.37
2.22
17.16
39.57
67.69
95.59
115.44
121.28
112.41
93.44
74.56
59.84
50.78
46.46
44.43
42.37
38.83
32.75
24.62
15.26
4.19
-8.81
-23.67
-39.67
-55.45
-69.80
-81.47
-89.48
-93.39
-94.26
-92.70
-88.68
-81.62
-68.12
-48.04
-24.71
-3.30
15.08
29.79
39.63
44.45
45.75
46.29
48.45
53.83
62.83
74.51
85.95
94.32
98.05
97.06
92.31
84.52
74.59
63.63
53.12
43.32
34.03
25.00
16.15
7.51
-1.50
-11.35
-22.07
-32.77
-43.07
-52.55
-60.83
-67.70
-71.11
-70.53
-67.37
-66.86
-69.91
-76.10
-82.86
-88.35
-91.13
-90.26
-85.70
-77.77
-66.94
-53.51
-38.97
-25.48
-15.40
-10.17
-9.80
-13.00
-17.37
-20.05
-18.49
-11.96
-1.44
10.85
22.60
32.27
39.35
44.55
49.30
55.27
63.10
72.24
81.22
88.34
92.13
91.67
86.77
78.17
67.75
58.15
52.32
52.50
59.27
70.92
83.75
93.31
96.16
91.10
79.33
63.60
46.89
31.44
18.35
7.94
0.24
-4.78
-7.34
-8.18
-8.47
-9.48
-11.96
-15.66
-19.51
-22.22
-23.08
-22.42
-21.55
-21.98
-24.69
-29.55
-35.52
-41.22
-45.68
-48.67
-50.63
-52.10
-53.38
-54.28
-54.38
-53.12
-50.05
-44.89
-37.52
-28.06
-17.00
-5.20
6.34
16.93
26.61
36.17
46.71
58.79
71.52
82.25
87.26
83.34
69.52
48.12
24.22
3.92
-8.10
-10.43
-5.18
3.25
10.33
13.30
11.82
7.32
1.62
-4.29
-10.58
-18.11
-27.41
-38.12
-48.87
-57.90
-63.88
-66.57
-66.86
-66.34
-66.36
-67.45
-69.05
-69.96
-68.99
-65.54
-59.86
-52.79
-45.34
-38.17
-31.45
-24.90
-18.05
-10.58
-2.46
6.00
14.20
21.49
27.39
31.67
34.44
36.01
36.75
36.98
36.85
36.38
35.48
34.08
32.22
29.95
27.32
24.27
20.75
16.72
12.27
7.61
3.12
-0.77
-3.80
-6.03
-7.81
-9.69
-12.21
-15.70
-20.34
-25.88
-31.66
-36.81
-40.55
-42.31
-41.86
-39.35
-35.14
-29.98
-24.26
-17.97
-11.12
-4.12
2.18
6.84
9.23
9.34
7.12
3.41
-0.43
-3.46
-5.76
-8.14
-11.53
-16.38
-22.49
-30.34
-39.45
-48.69
-57.25
-65.41
-74.01
-83.80
-94.94
-106.91
-119.95
-132.68
-142.14
-145.14
-139.93
-126.32
-105.78
-81.04
-46.58
-5.39
34.03
64.53
85.41
100.00
111.67
121.51
128.78
132.37
130.67
124.44
116.28
109.73
104.50
99.03
91.78
82.22
71.24
59.57
48.88
40.82
35.82
32.41
28.48
22.39
14.24
5.43
-2.49
-7.18
-5.92
3.39
21.14
45.75
73.60
99.67
118.92
127.55
124.76
112.70
95.13
75.39
55.59
36.54
18.63
2.68
-9.90
-17.53
-19.42
-16.21
-9.91
-2.96
2.69
6.17
7.62
7.76
7.32
6.62
5.54
3.63
0.43
-4.31
-10.49
-17.76
-25.50
-33.07
-39.94
-45.73
-50.24
-53.32
-54.86
-54.84
-53.31
-50.44
-46.51
-41.90
-37.00
-32.26
-28.05
-24.64
-22.09
-20.29
-18.92
-17.67
-16.34
-14.91
-13.56
-12.52
-11.89
-11.63
-11.52
-11.30
-10.81
-10.06
-9.24
-8.60
-8.35
-8.59
-9.31
-10.41
-11.68
-12.88
-13.70
-13.81
-12.94
-11.07
-8.43
-5.51
-2.86
-0.93
0.08
0.26
-0.11
-0.73
-1.38
-1.93
-2.36
-2.61
-2.60
-2.21
-1.34
-0.01
1.62
3.29
4.78
5.93
6.74
7.27
7.59
7.73
7.63
7.26
6.61
5.77
4.86
3.99
3.21
2.48
1.70
0.79
-0.33
-1.74
-3.53
-5.85
-8.83
-12.64
-17.32
-22.75
-28.54
-34.03
-38.44
-41.09
-41.69
-40.40
-37.91
-35.15
-33.01
-32.10
-32.54
-34.01
-35.91
-37.49
-38.01
-36.90
-33.76
-28.54
-21.54
-13.33
-4.60
4.09
12.48
20.72
29.16
38.10
47.43
56.57
64.55
70.32
73.19
73.00
70.15
65.30
59.09
51.90
43.82
34.84
25.14
15.18
5.72
-2.41
-8.60
-12.60
-14.61
-15.16
-14.90
-14.46
-14.25
-14.40
-14.76
-14.94
-14.50
-13.07
-10.52
-6.93
-2.62
2.07
6.73
10.98
14.41
16.60
17.23
16.14
13.41
9.35
4.47
-0.61
-5.24
-8.76
-10.69
-10.74
-9.05
-6.13
-2.76
0.28
2.50
3.73
4.06
3.68
2.57
0.60
-2.39
-6.34
-10.88
-15.36
-19.12
-21.69
-22.82
-22.39
-20.14
-15.66
-8.64
0.75
11.66
22.64
32.30
39.80
44.91
47.58
47.40
43.38
34.41
20.12
1.44
-19.49
-40.17
-58.73
-74.54
-87.90
-99.28
-108.61
-115.11
-117.78
-116.06
-110.21
-101.12
-89.85
-77.15
-63.35
-48.50
-32.63
-15.91
1.22
18.18
34.25
48.71
60.91
70.29
76.55
79.65
79.87
77.71
73.85
68.97
63.67
58.19
52.40
45.83
37.85
28.06
16.54
3.94
-8.79
-20.81
-31.77
-41.86
-51.51
-60.97
-69.91
-77.40
-82.29
-83.58
-80.76
-73.92
-63.56
-50.36
-35.07
-18.47
-1.42
15.26
30.72
44.25
55.28
63.28
67.71
68.01
63.79
55.31
44.04
32.91
25.87
26.80
37.94
58.91
86.57
116.09
142.48
161.89
172.19
172.68
163.66
146.27
122.64
96.11
70.81
50.49
37.19
30.26
26.76
22.93
16.01
5.60
-6.49
-17.35
-24.56
-27.29
-26.34
-23.38
-19.84
-16.24
-12.30
-7.69
-2.89
0.62
0.80
-3.88
-13.55
-26.64
-40.48
-52.21
-59.80
-62.42
-60.34
-54.39
-45.59
-35.06
-24.09
-14.27
-7.20
-4.03
-4.94
-9.00
-14.51
-19.69
-23.28
-24.87
-24.73
-23.42
-21.47
-19.29
-17.41
-16.54
-17.66
-21.69
-29.08
-39.67
-52.63
-66.75
-80.75
-93.54
-104.36
-112.78
-118.55
-121.61
-121.96
-119.73
-115.14
-108.62
-100.83
-92.66
-85.09
-78.89
-74.45
-71.69
-70.05
-68.88
-67.57
-65.76
-63.33
-60.31
-56.76
-52.74
-48.21
-43.12
-37.47
-31.29
-24.72
-18.00
-11.51
-5.71
-1.07
2.06
3.47
3.17
1.39
-1.47
-4.80
-7.89
-10.02
-10.58
-9.15
-5.50
0.33
8.16
17.63
28.27
39.51
50.78
61.49
71.14
79.37
86.08
91.46
95.98
100.22
104.67
109.43
114.15
118.09
120.43
120.67
118.79
115.23
110.70
105.83
100.93
95.96
90.53
84.18
76.51
67.42
57.05
45.85
34.47
23.61
13.91
5.79
-0.53
-5.09
-8.07
-9.72
-10.34
-10.20
-9.67
-9.09
-8.79
-8.97
-9.62
-10.55
-11.46
-12.04
-12.03
-11.21
-9.35
-6.24
-1.67
4.26
11.12
18.05
24.03
28.23
30.30
30.48
29.42
27.84
26.24
24.72
23.10
20.98
17.98
13.71
7.86
0.21
-9.21
-19.95
-31.10
-41.37
-49.42
-54.30
-55.73
-54.17
-50.69
-46.63
-43.14
-40.94
-40.15
-40.33
-40.75
-40.65
-39.56
-37.42
-34.48
-31.16
-27.76
-24.31
-20.51
-15.80
-9.64
-1.67
8.00
18.79
29.72
39.65
47.62
53.11
56.14
57.18
56.87
55.75
54.08
51.87
49.01
45.40
41.08
36.04
30.15
23.11
14.60
4.59
-6.49
-17.65
-27.66
-35.42
-40.37
-42.62
-42.80
-41.76
-40.27
-38.87
-37.82
-37.20
-36.91
-36.75
-36.47
-35.76
-34.35
-32.05
-28.78
-24.53
-19.43
-13.74
-7.83
-2.13
2.92
7.09
10.30
12.69
14.49
15.95
17.26
18.54
19.82
21.04
22.07
22.76
22.90
22.35
20.99
18.80
15.82
12.18
8.03
3.58
-0.87
-5.00
-8.44
-10.87
-12.06
-11.95
-10.73
-8.79
-6.66
-4.91
-4.00
-4.23
-5.67
-8.12
-11.17
-14.18
-16.47
-17.44
-16.70
-14.22
-10.35
-5.69
-0.94
3.28
6.63
9.08
10.82
12.15
13.30
14.42
15.57
16.75
17.97
19.23
20.42
21.34
21.75
21.51
20.65
19.41
18.13
17.07
16.29
15.63
14.77
13.33
11.00
7.56
2.94
-2.75
-9.24
-16.08
-22.77
-28.89
-34.20
-38.73
-42.70
-46.37
-49.88
-53.02
-55.30
-56.08
-54.76
-51.18
-45.62
-38.74
-31.35
-24.13
-17.45
-11.40
-5.90
-0.89
3.61
7.50
10.67
13.07
14.70
15.64
16.02
16.02
15.87
15.76
15.89
16.36
17.21
18.41
19.90
21.61
23.36
24.88
25.81
25.79
24.65
22.44
19.51
16.37
13.49
11.13
9.33
7.95
6.79
5.69
4.62
3.56
2.47
1.18
-0.51
-2.74
-5.41
-8.14
-10.28
-11.16
-10.33
-7.76
-3.77
0.97
5.78
10.14
13.80
16.80
19.28
21.39
23.20
24.67
25.73
26.33
26.49
26.37
26.16
26.07
26.26
26.77
27.53
28.39
29.12
29.45
29.11
27.85
25.56
22.27
18.28
14.06
10.24
7.42
5.96
5.84
6.69
7.79
8.37
7.71
5.39
1.28
-4.45
-11.33
-18.74
-25.87
-31.87
-35.92
-37.39
-36.04
-32.06
-26.14
-19.33
-12.73
-7.29
-3.54
-1.57
-1.10
-1.67
-2.77
-4.00
-5.05
-5.75
-5.99
-5.75
-5.06
-4.05
-2.89
-1.82
-1.10
-0.91
-1.33
-2.28
-3.56
-4.90
-6.12
-7.13
-8.00
-8.85
-9.85
-11.08
-12.57
-14.28
-16.11
-17.97
-19.73
-21.30
-22.69
-23.94
-25.19
-26.54
-28.08
-29.78
-31.48
-32.92
-33.73
-33.55
-32.13
-29.42
-25.62
-21.12
-16.34
-11.62
-7.11
-2.87
1.12
4.78
7.99
10.66
12.80
14.57
16.25
18.07
20.20
22.59
25.08
27.43
29.44
30.99
32.08
32.72
32.91
32.59
31.63
29.88
27.30
23.91
19.86
15.31
10.48
5.52
0.57
-4.23
-8.79
-13.03
-16.96
-20.60
-24.03
-27.31
-30.47
-33.47
-36.19
-38.34
-39.56
-39.43
-37.61
-34.02
-28.89
-22.77
-16.36
-10.23
-4.76
-0.05
3.96
7.31
9.94
11.67
12.39
12.14
11.15
9.70
8.08
6.40
4.65
2.78
0.83
-1.07
-2.77
-4.13
-5.15
-5.90
-6.53
-7.10
-7.65
-8.19
-8.69
-9.16
-9.59
-9.96
-10.19
-10.20
-9.91
-9.27
-8.37
-7.40
-6.68
-6.56
-7.27
-8.81
-10.84
-12.89
-14.43
-15.08
-14.56
-12.79
-9.88
-6.10
-1.80
2.64
6.82
10.38
13.07
14.84
15.77
16.09
16.03
16.01
16.44
17.51
19.08
20.70
21.87
22.18
21.48
19.97
18.54
18.32
19.88
22.80
25.85
27.67
27.29
24.42
19.55
14.71
12.30
13.70
18.32
24.01
28.29
29.35
26.60
20.71
14.76
12.31
15.26
22.51
30.99
37.80
41.31
41.23
37.81
33.25
30.19
30.96
37.15
50.56
73.70
107.93
151.45
186.26
192.13
159.47
98.01
27.89
-33.75
-77.98
-103.41
-113.40
-113.37
-105.13
-89.20
-67.09
-43.00
-22.50
-9.54
-6.69
-12.86
-24.31
-34.18
-34.93
-21.13
7.66
44.45
76.67
90.85
80.52
49.28
8.85
-27.60
-51.12
-60.03
-60.27
-58.15
-57.16
-57.31
-56.80
-53.59
-47.20
-39.03
-31.98
-27.10
-24.51
-22.83
-19.76
-13.81
-4.96
5.14
14.09
19.74
21.05
18.64
14.35
10.44
8.39
8.39
9.51
10.39
9.99
7.98
4.86
1.58
-0.86
-2.02
-2.15
-1.98
-2.25
-3.37
-5.30
-7.62
-9.81
-11.48
-12.55
-13.23
-13.83
-14.60
-15.55
-16.56
-17.45
-18.09
-18.42
-18.47
-18.37
-18.28
-18.40
-18.88
-19.83
-21.22
-22.88
-24.63
-26.30
-27.84
-29.24
-30.42
-31.10
-30.82
-29.07
-25.58
-20.40
-14.02
-7.16
-0.59
5.06
9.45
12.59
14.83
16.74
18.96
21.96
25.84
30.22
34.37
37.45
38.86
38.59
37.38
36.66
38.19
43.32
52.26
63.69
74.84
82.32
83.31
76.56
62.77
44.16
23.52
3.27
-15.08
-30.83
-43.75
-53.74
-60.80
-65.20
-67.62
-68.97
-70.11
-71.48
-72.95
-73.95
-73.77
-71.87
-68.05
-62.47
-55.41
-47.17
-37.98
-27.96
-17.27
-6.16
4.93
15.45
24.86
32.67
38.57
42.45
44.33
44.37
42.80
39.98
36.33
32.30
28.32
24.71
21.63
19.16
17.24
15.80
14.68
13.70
12.62
11.15
9.04
6.09
2.21
-2.53
-8.01
-14.06
-20.49
-27.15
-33.84
-40.31
-46.23
-51.24
-55.08
-57.65
-59.02
-59.39
-58.95
-57.84
-55.99
-53.17
-49.01
-43.17
-35.50
-26.11
-15.47
-4.22
6.91
17.33
26.70
35.01
42.57
49.76
56.86
63.66
69.29
72.34
71.19
64.68
52.70
36.43
18.08
0.21
-15.07
-26.73
-34.86
-40.29
-44.02
-46.60
-48.04
-47.96
-45.97
-41.92
-35.97
-28.40
-19.51
-9.49
1.36
12.47
22.92
31.60
37.51
40.15
39.67
36.80
32.61
28.18
24.31
21.35
19.13
17.03
14.25
10.08
4.25
-3.00
-10.99
-18.88
-26.03
-32.06
-36.90
-40.48
-42.70
-43.33
-42.26
-39.61
-35.77
-31.25
-26.56
-21.99
-17.66
-13.57
-9.64
-5.77
-1.77
2.60
7.54
13.12
19.17
25.30
31.04
35.98
39.83
42.47
43.88
44.05
43.03
40.88
37.79
34.05
29.96
25.76
21.56
17.27
12.74
7.82
2.48
-3.07
-8.45
-13.22
-17.08
-19.92
-21.93
-23.44
-24.80
-26.22
-27.75
-29.28
-30.65
-31.72
-32.37
-32.45
-31.76
-30.14
-27.52
-24.09
-20.23
-16.48
-13.26
-10.80
-9.11
-7.96
-7.13
-6.44
-5.85
-5.39
-5.14
-5.12
-5.34
-5.70
-6.04
-6.21
-6.08
-5.70
-5.32
-5.31
-6.03
-7.73
-10.40
-13.80
-17.59
-21.46
-25.24
-28.97
-32.86
-37.23
-42.40
-48.56
-55.72
-63.63
-71.81
-79.66
-86.54
-91.93
-95.41
-96.72
-95.82
-92.83
-88.03
-81.58
-73.19
-61.86
-46.13
-24.72
2.55
34.31
67.85
100.06
128.54
152.16
170.82
184.77
193.92
197.72
195.72
188.41
177.45
165.31
154.21
145.20
137.84
130.70
122.27
111.74
99.26
85.67
71.94
58.69
46.00
33.59
21.13
8.49
-4.14
-16.36
-27.68
-37.66
-45.93
-52.29
-56.67
-59.26
-60.38
-60.50
-60.02
-59.21
-58.04
-56.38
-54.11
-51.27
-48.09
-44.85
-41.78
-38.92
-36.17
-33.41
-30.64
-27.99
-25.69
-23.94
-22.80
-22.23
-22.01
-21.91
-21.65
-21.01
-19.85
-18.07
-15.68
-12.72
-9.27
-5.55
-1.87
1.31
3.53
4.46
4.03
2.46
0.09
-2.70
-5.60
-8.37
-10.72
-12.27
-12.56
-11.24
-8.21
-3.64
1.97
8.05
14.07
19.62
24.41
28.27
31.04
32.55
32.68
31.43
28.94
25.56
21.75
17.98
14.62
11.81
9.50
7.48
5.51
3.34
0.83
-2.05
-5.23
-8.54
-11.77
-14.69
-17.14
-19.00
-20.20
-20.82
-20.97
-20.84
-20.71
-20.92
-21.78
-23.47
-25.96
-28.96
-31.95
-34.42
-35.97
-36.48
-36.06
-34.94
-33.33
-31.26
-28.62
-25.21
-20.90
-15.75
-9.95
-3.79
2.45
8.58
14.50
20.12
25.36
30.04
33.98
37.02
39.13
40.39
40.94
40.92
40.40
39.37
37.73
35.37
32.33
28.76
24.97
21.38
18.34
16.06
14.47
13.32
12.27
11.04
9.52
7.75
5.87
4.01
2.29
0.84
-0.14
-0.41
0.24
1.87
4.33
7.29
10.37
13.23
15.71
17.80
19.47
20.68
21.26
21.01
19.82
17.72
14.95
11.86
8.84
6.15
3.89
1.96
0.16
-1.72
-3.86
-6.29
-8.93
-11.67
-14.41
-17.15
-19.97
-22.97
-26.23
-29.74
-33.32
-36.78
-39.91
-42.62
-44.93
-46.88
-48.52
-49.92
-51.12
-52.24
-53.38
-54.57
-55.65
-56.23
-55.76
-53.82
-50.22
-45.17
-39.19
-32.95
-27.00
-21.66
-16.95
-12.79
-9.01
-5.55
-2.36
0.63
3.72
7.45
12.48
19.35
28.10
38.15
48.36
57.43
64.44
69.21
72.41
75.27
79.04
84.51
91.71
99.94
107.90
114.00
116.71
114.87
107.95
96.31
81.13
64.15
47.21
31.77
18.55
7.47
-2.06
-10.73
-19.03
-27.06
-34.55
-40.97
-45.74
-48.36
-48.56
-46.41
-42.32
-37.03
-31.46
-26.52
-22.94
-21.13
-21.17
-22.79
-25.57
-28.96
-32.42
-35.55
-38.09
-39.94
-41.16
-41.86
-42.16
-42.12
-41.77
-41.14
-40.26
-39.24
-38.19
-37.22
-36.37
-35.62
-34.93
-34.27
-33.65
-33.17
-32.88
-32.81
-32.90
-33.05
-33.15
-33.16
-33.14
-33.21
-33.49
-34.09
-35.07
-36.42
-38.10
-39.94
-41.67
-42.85
-42.96
-41.53
-38.36
-33.62
-27.88
-21.91
-16.46
-12.00
-8.58
-5.99
-3.92
-2.22
-0.94
-0.25
-0.23
-0.76
-1.40
-1.58
-0.77
1.32
4.68
9.01
13.92
18.96
23.76
28.02
31.56
34.26
36.09
37.03
37.11
36.39
34.97
33.04
30.79
28.33
25.68
22.75
19.43
15.68
11.64
7.57
3.72
0.24
-2.92
-5.98
-9.18
-12.69
-16.53
-20.53
-24.29
-27.22
-28.58
-27.63
-23.78
-16.83
-6.95
5.33
19.29
34.30
49.87
65.74
81.77
97.89
113.98
129.82
145.08
159.32
171.94
182.35
190.07
194.81
196.55
195.41
191.58
185.20
176.41
165.36
152.16
136.86
119.40
99.63
77.54
53.45
28.17
2.88
-21.11
-42.75
-61.42
-76.98
-89.63
-99.71
-107.57
-113.53
-117.83
-120.59
-121.85
-121.56
-119.77
-116.67
-112.66
-108.27
-104.03
-100.40
-97.65
-95.94
-95.20
-95.15
-95.18
-94.50
-92.29
-88.02
-81.68
-73.83
-65.36
-57.17
-49.79
-43.32
-37.52
-32.05
-26.70
-21.52
-16.67
-12.33
-8.51
-5.09
-1.89
1.21
4.12
6.66
8.63
9.93
10.67
11.08
11.41
11.78
12.17
12.47
12.51
12.25
11.75
11.10
10.42
9.74
8.99
8.07
6.86
5.29
3.40
1.27
-0.91
-3.00
-4.84
-6.41
-7.75
-8.99
-10.31
-11.83
-13.64
-15.80
-18.40
-21.52
-25.21
-29.34
-33.50
-37.02
-39.06
-38.89
-36.10
-30.67
-22.97
-13.66
-3.54
6.45
15.31
22.15
26.37
27.87
27.12
25.04
22.63
20.64
19.37
18.63
18.00
17.04
15.47
13.20
10.23
6.66
2.65
-1.63
-5.93
-9.99
-13.56
-16.42
-18.35
-19.12
-18.53
-16.45
-12.92
-8.20
-2.64
3.35
9.48
15.57
21.45
26.82
31.29
34.39
35.84
35.78
34.70
33.31
32.24
31.77
31.84
32.23
32.81
33.73
35.30
37.88
41.59
46.24
51.46
56.88
62.32
67.77
73.36
79.10
84.75
89.77
93.39
94.79
93.42
89.32
83.38
77.19
72.74
71.65
74.52
80.57
87.78
93.59
95.75
93.04
85.49
74.17
60.68
46.77
33.95
23.39
15.71
10.85
7.93
5.38
1.37
-5.57
-16.00
-29.38
-44.35
-59.21
-72.58
-83.63
-92.15
-98.39
-102.78
-105.90
-108.24
-110.18
-111.82
-112.90
-112.78
-110.59
-105.41
-96.55
-83.86
-67.92
-50.17
-32.68
-17.75
-7.25
-2.13
-2.15
-6.06
-12.16
-18.85
-25.04
-30.27
-34.40
-37.46
-39.43
-40.35
-40.35
-39.72
-38.74
-37.66
-36.56
-35.40
-34.16
-32.90
-31.81
-31.17
-31.29
-32.40
-34.61
-37.78
-41.57
-45.34
-48.32
-49.75
-49.07
-46.07
-40.99
-34.43
-27.21
-20.18
-14.05
-9.18
-5.54
-2.71
0.02
3.38
7.89
13.65
20.29
27.10
33.30
38.26
41.67
43.59
44.23
43.87
42.62
40.47
37.28
32.97
27.51
21.07
13.91
6.35
-1.25
-8.57
-15.33
-21.30
-26.30
-30.26
-33.11
-34.85
-35.43
-34.72
-32.48
-28.53
-22.86
-15.75
-7.85
0.02
7.05
12.73
16.93
19.82
21.70
22.90
23.57
23.84
23.78
23.44
22.89
22.11
21.04
19.60
17.75
15.62
13.50
11.81
11.05
11.63
13.78
17.39
22.02
27.02
31.67
35.35
37.65
38.38
37.51
35.09
31.27
26.51
21.63
17.70
15.81
16.56
19.78
24.52
29.29
32.68
33.71
32.17
28.43
23.16
16.98
10.26
3.25
-3.86
-10.72
-16.92
-22.06
-25.98
-28.76
-30.69
-32.13
-33.28
-34.17
-34.68
-34.66
-34.13
-33.30
-32.54
-32.31
-32.97
-34.71
-37.48
-40.95
-44.60
-47.72
-49.55
-49.36
-46.67
-41.41
-33.96
-25.12
-15.87
-7.08
0.68
7.28
12.87
17.68
21.83
25.29
27.88
29.52
30.28
30.34
30.00
29.47
28.80
27.97
26.88
25.44
23.66
21.62
19.40
17.13
14.87
12.62
10.35
8.02
5.63
3.30
1.17
-0.57
-1.86
-2.77
-3.54
-4.46
-5.79
-7.64
-9.96
-12.54
-15.14
-17.52
-19.57
-21.28
-22.76
-24.27
-26.09
-28.42
-31.29
-34.39
-37.10
-38.69
-38.49
-36.20
-31.97
-26.46
-20.51
-14.96
-10.38
-6.98
-4.67
-3.20
-2.32
-1.88
-1.76
-1.91
-2.17
-2.36
-2.23
-1.54
-0.17
1.99
5.12
9.51
15.55
23.44
32.92
43.04
52.24
58.82
61.51
59.94
54.80
47.52
39.75
32.83
27.55
24.16
22.66
22.93
24.77
27.83
31.47
34.74
36.61
36.21
33.18
27.66
20.27
11.76
2.72
-6.52
-15.89
-25.34
-34.58
-43.08
-50.10
-54.96
-57.25
-56.99
-54.55
-50.54
-45.59
-40.24
-34.87
-29.69
-24.80
-20.16
-15.67
-11.24
-6.79
-2.30
2.17
6.55
10.76
14.70
18.27
21.25
23.48
24.91
25.89
27.12
29.54
33.87
40.23
47.89
55.51
61.52
64.77
64.86
62.24
57.89
52.90
48.15
44.09
40.78
38.07
35.62
33.03
29.85
25.63
20.01
12.79
4.02
-6.00
-16.70
-27.46
-37.74
-47.15
-55.58
-63.04
-69.52
-74.84
-78.55
-80.00
-78.58
-73.98
-66.40
-56.49
-45.23
-33.62
-22.44
-12.18
-3.05
4.88
11.59
17.05
21.28
24.39
26.56
28.03
28.97
29.49
29.54
29.02
27.80
25.77
22.92
19.34
15.20
10.68
5.98
1.26
-3.34
-7.70
-11.69
-15.22
-18.26
-20.79
-22.83
-24.24
-24.78
-24.10
-21.89
-17.92
-12.22
-5.05
3.11
11.63
19.81
26.95
32.60
36.56
39.04
40.44
41.20
41.57
41.54
40.95
39.72
37.95
35.92
33.89
31.98
30.02
27.67
24.60
20.66
15.91
10.63
5.11
-0.38
-5.66
-10.66
-15.30
-19.50
-23.14
-26.06
-28.13
-29.30
-29.68
-29.46
-28.94
-28.37
-27.94
-27.71
-27.71
-27.90
-28.28
-28.82
-29.50
-30.24
-30.97
-31.54
-31.80
-31.58
-30.73
-29.20
-27.06
-24.55
-21.96
-19.54
-17.45
-15.75
-14.43
-13.45
-12.79
-12.41
-12.25
-12.22
-12.26
-12.28
-12.12
-11.50
-10.03
-7.31
-3.12
2.40
8.75
15.19
21.03
25.77
29.25
31.52
32.75
33.05
32.55
31.39
29.75
27.84
25.82
23.71
21.47
19.04
16.41
13.68
10.94
8.30
5.80
3.46
1.27
-0.73
-2.53
-4.13
-5.60
-7.03
-8.46
-9.84
-11.01
-11.82
-12.19
-12.20
-12.05
-11.93
-11.98
-12.17
-12.39
-12.50
-12.43
-12.29
-12.24
-12.51
-13.23
-14.39
-15.89
-17.48
-18.90
-19.78
-19.78
-18.57
-16.03
-12.25
-7.59
-2.53
2.40
6.81
10.49
13.37
15.45
16.80
17.49
17.62
17.35
16.88
16.37
15.93
15.56
15.24
14.93
14.64
14.36
14.09
13.79
13.38
12.84
12.20
11.50
10.82
10.18
9.54
8.84
8.02
7.09
6.11
5.13
4.16
3.18
2.10
0.86
-0.55
-2.06
-3.58
-4.99
-6.25
-7.39
-8.53
-9.85
-11.49
-13.50
-15.81
-18.16
-20.16
-21.33
-21.29
-19.79
-16.85
-12.75
-7.93
-2.93
1.78
5.89
9.22
11.76
13.54
14.56
14.84
14.44
13.49
12.23
10.95
9.86
9.07
8.51
8.00
7.35
6.43
5.24
3.87
2.43
1.07
-0.14
-1.10
-1.75
-2.07
-2.09
-1.86
-1.46
-0.92
-0.23
0.57
1.40
2.07
2.37
2.09
1.21
-0.17
-1.78
-3.37
-4.76
-5.92
-6.89
-7.82
-8.85
-10.09
-11.63
-13.48
-15.43
-17.14
-18.11
-17.88
-16.19
-13.10
-9.01
-4.47
-0.02
3.95
7.33
10.18
12.63
14.81
16.74
18.38
19.62
20.30
20.33
19.67
18.33
16.46
14.20
11.77
9.31
6.92
4.64
2.43
0.25
-1.97
-4.20
-6.37
-8.31
-9.84
-10.79
-11.07
-10.67
-9.65
-8.13
-6.28
-4.32
-2.50
-1.08
-0.24
-0.06
-0.45
-1.21
-2.10
-2.93
-3.57
-4.07
-4.53
-5.15
-6.13
-7.65
-9.74
-12.22
-14.69
-16.60
-17.40
-16.76
-14.67
-11.40
-7.42
-3.21
0.82
4.38
7.27
9.34
10.52
10.89
10.63
10.02
9.36
8.86
8.63
8.70
9.00
9.44
9.91
10.27
10.38
10.15
9.57
8.73
7.81
6.91
6.05
5.16
4.09
2.76
1.16
-0.56
-2.16
-3.43
-4.32
-4.92
-5.46
-6.18
-7.27
-8.84
-10.73
-12.53
-13.73
-13.93
-13.02
-11.26
-9.21
-7.71
-7.63
-9.34
-12.59
-16.50
-19.95
-21.95
-21.85
-19.50
-15.30
-10.05
-4.43
1.20
6.88
12.84
19.40
27.18
37.18
50.42
65.23
78.45
86.41
87.01
80.47
68.39
53.05
36.89
22.09
10.25
2.58
-0.53
0.52
4.81
10.60
15.98
19.43
20.26
18.63
15.45
11.83
8.57
6.60
6.28
7.57
10.12
13.19
15.64
16.41
15.07
12.13
8.93
6.91
7.01
9.21
12.54
15.58
17.14
16.75
14.74
11.85
8.81
6.20
4.42
3.69
4.01
5.04
6.14
6.45
5.17
1.79
-3.67
-10.74
-18.70
-26.85
-34.76
-42.24
-49.34
-56.20
-62.97
-69.75
-76.53
-83.18
-89.47
-95.01
-99.36
-102.05
-102.74
-101.32
-98.01
-93.31
-87.86
-82.29
-77.01
-72.18
-67.68
-63.28
-58.73
-53.92
-48.83
-43.57
-38.23
-32.92
-27.79
-23.08
-19.11
-16.23
-14.61
-14.10
-14.08
-13.69
-11.98
-8.28
-2.35
5.51
14.70
24.48
34.31
43.86
52.97
61.47
69.03
75.14
79.21
80.80
79.74
76.17
70.45
63.13
55.02
47.18
40.91
37.51
37.72
41.32
46.91
52.32
55.36
54.68
50.20
43.02
34.75
26.77
19.77
13.81
8.74
4.61
1.87
1.02
2.20
4.74
7.29
8.26
6.59
2.18
-4.04
-10.60
-16.19
-20.14
-22.62
-24.29
-25.84
-27.59
-29.42
-30.98
-31.94
-32.24
-31.93
-31.06
-29.46
-26.81
-22.72
-17.08
-10.16
-2.56
4.87
11.36
16.37
19.70
21.39
21.69
20.89
19.32
17.30
15.14
13.10
11.40
10.17
9.47
9.28
9.54
10.19
11.17
12.46
13.99
15.75
17.62
19.49
21.25
22.77
23.97
24.82
25.32
25.49
25.34
24.82
23.90
22.54
20.77
18.65
16.27
13.64
10.68
7.21
3.03
-2.02
-7.95
-14.66
-21.85
-29.19
-36.27
-42.66
-47.90
-51.59
-53.41
-53.21
-51.11
-47.47
-42.88
-37.99
-33.38
-29.36
-25.99
-23.07
-20.39
-17.81
-15.32
-13.04
-11.03
-9.30
-7.73
-6.22
-4.69
-3.20
-1.80
-0.46
1.02
2.98
5.75
9.48
14.05
19.15
24.37
29.42
34.21
38.85
43.42
47.81
51.63
54.23
54.90
53.14
48.81
42.13
33.56
23.58
12.57
0.85
-11.22
-23.19
-34.46
-44.41
-52.50
-58.37
-61.80
-62.73
-61.13
-57.10
-50.92
-43.09
-34.34
-25.54
-17.48
-10.82
-5.98
-3.12
-2.19
-2.91
-4.88
-7.64
-10.72
-13.74
-16.42
-18.59
-20.13
-20.99
-21.12
-20.56
-19.39
-17.82
-16.09
-14.42
-12.92
-11.52
-10.00
-8.01
-5.26
-1.54
3.13
8.60
14.58
20.79
26.98
32.93
38.43
43.26
47.20
50.07
51.76
52.30
51.84
50.57
48.71
46.41
43.67
40.39
36.34
31.27
25.02
17.64
9.47
1.14
-6.60
-13.13
-18.10
-21.58
-24.01
-25.94
-27.80
-29.73
-31.51
-32.71
-32.84
-31.54
-28.64
-24.26
-18.70
-12.41
-5.90
0.37
6.06
11.01
15.18
18.64
21.48
23.75
25.40
26.36
26.52
25.79
24.13
21.56
18.19
14.20
9.82
5.30
0.89
-3.23
-6.93
-10.11
-12.72
-14.73
-16.20
-17.20
-17.85
-18.24
-18.43
-18.43
-18.27
-18.04
-17.91
-18.03
-18.39
-18.75
-18.68
-17.70
-15.59
-12.46
-8.76
-5.13
-2.07
0.12
1.44
1.99
1.91
1.25
0.07
-1.53
-3.31
-4.98
-6.24
-6.91
-7.02
-6.73
-6.28
-5.85
-5.52
-5.26
-4.99
-4.61
-4.08
-3.45
-2.84
-2.45
-2.40
-2.75
-3.42
-4.23
-4.98
-5.53
-5.89
-6.21
-6.68
-7.48
-8.65
-10.07
-11.53
-12.83
-13.85
-14.60
-15.26
-16.00
-16.97
-18.19
-19.52
-20.66
-21.22
-20.82
-19.17
-16.21
-12.10
-7.21
-2.08
2.78
6.98
10.33
12.81
14.56
15.73
16.45
16.84
17.05
17.19
17.38
17.69
18.13
18.65
19.20
19.67
19.98
20.01
19.72
19.07
18.12
16.98
15.79
14.65
13.63
12.78
12.12
11.72
11.58
11.70
12.02
12.39
12.71
12.90
12.95
12.94
13.01
13.30
13.92
14.85
15.90
16.71
16.86
16.00
13.99
11.08
7.80
4.85
2.88
2.33
3.30
5.57
8.70
12.16
15.43
18.10
19.94
20.85
20.87
20.12
18.77
16.96
14.87
12.66
10.48
8.46
6.69
5.20
4.01
3.10
2.47
2.04
1.72
1.36
0.78
-0.17
-1.57
-3.43
-5.69
-8.28
-11.12
-14.13
-17.16
-20.06
-22.66
-24.82
-26.51
-27.79
-28.78
-29.59
-30.26
-30.78
-31.12
-31.29
-31.36
-31.42
-31.58
-31.89
-32.35
-32.85
-33.23
-33.23
-32.56
-30.93
-28.15
-24.24
-19.47
-14.32
-9.35
-5.04
-1.67
0.75
2.37
3.43
4.12
4.58
4.90
5.19
5.60
6.25
7.25
8.54
9.98
11.36
12.48
13.28
13.78
14.10
14.34
14.54
14.66
14.61
14.26
13.57
12.53
11.22
9.78
8.37
7.11
6.08
5.28
4.62
3.99
3.20
2.07
0.48
-1.60
-4.08
-6.75
-9.30
-11.32
-12.42
-12.31
-10.89
-8.28
-4.80
-0.91
2.91
6.28
8.98
10.95
12.26
13.00
13.29
13.24
12.97
12.65
12.42
12.39
12.56
12.86
13.11
13.18
12.99
12.57
12.01
11.39
10.68
9.84
8.74
7.39
5.84
4.27
2.88
1.79
1.02
0.46
-0.02
-0.54
-1.11
-1.66
-2.07
-2.28
-2.35
-2.41
-2.72
-3.52
-4.98
-7.13
-9.81
-12.70
-15.33
-17.22
-17.97
-17.43
-15.69
-13.08
-10.03
-6.92
-3.97
-1.22
1.36
3.73
5.77
7.31
8.22
8.57
8.59
8.56
8.72
9.11
9.64
10.10
10.33
10.28
10.01
9.71
9.56
9.67
10.01
10.38
10.51
10.13
9.12
7.55
5.70
3.90
2.40
1.25
0.32
-0.60
-1.67
-2.92
-4.25
-5.47
-6.48
-7.25
-7.85
-8.42
-9.06
-9.90
-11.05
-12.61
-14.64
-17.01
-19.37
-21.18
-21.88
-21.05
-18.58
-14.75
-10.07
-5.16
-0.53
3.51
6.86
9.56
11.67
13.18
14.08
14.35
14.07
13.43
12.69
12.09
11.71
11.54
11.47
11.43
11.40
11.43
11.55
11.72
11.79
11.59
11.00
10.01
8.70
7.17
5.52
3.86
2.28
0.89
-0.16
-0.85
-1.24
-1.53
-1.97
-2.68
-3.59
-4.45
-4.97
-5.00
-4.61
-4.10
-3.80
-4.01
-4.84
-6.24
-7.99
-9.78
-11.24
-11.98
-11.67
-10.13
-7.39
-3.73
0.40
4.53
8.23
11.24
13.47
14.91
15.68
15.90
15.74
15.32
14.77
14.21
13.74
13.40
13.18
12.94
12.49
11.63
10.27
8.50
6.53
4.64
3.05
1.82
0.81
-0.20
-1.41
-2.90
-4.58
-6.26
-7.72
-8.86
-9.69
-10.34
-10.97
-11.66
-12.42
-13.20
-13.93
-14.60
-15.30
-16.16
-17.26
-18.57
-19.94
-21.13
-21.96
-22.41
-22.60
-22.80
-23.18
-23.67
-23.92
-23.39
-21.60
-18.39
-13.97
-8.88
-3.76
0.86
4.73
7.80
10.17
11.87
12.92
13.30
13.12
12.61
12.08
11.81
11.92
12.36
12.95
13.50
13.86
14.01
14.00
13.94
13.86
13.75
13.58
13.29
12.91
12.52
12.29
12.34
12.73
13.35
13.99
14.37
14.23
13.46
12.06
10.15
7.86
5.29
2.50
-0.52
-3.81
-7.45
-11.46
-15.85
-20.43
-24.87
-28.69
-31.34
-32.44
-31.90
-29.94
-27.03
-23.72
-20.47
-17.56
-15.10
-13.11
-11.53
-10.30
-9.31
-8.41
-7.45
-6.31
-4.90
-3.22
-1.30
0.80
3.03
5.22
7.22
8.79
9.81
10.28
10.37
10.31
10.29
10.29
10.18
9.79
9.09
8.23
7.44
6.97
6.80
6.77
6.61
6.13
5.31
4.25
3.10
1.90
0.62
-0.82
-2.42
-4.15
-5.95
-7.78
-9.70
-11.71
-13.70
-15.38
-16.36
-16.25
-14.87
-12.35
-9.11
-5.69
-2.55
0.04
2.05
3.60
4.86
5.95
6.88
7.62
8.15
8.56
8.92
9.37
9.93
10.59
11.26
11.82
12.22
12.41
12.43
12.30
12.05
11.69
11.21
10.58
9.73
8.61
7.19
5.55
3.84
2.22
0.80
-0.40
-1.52
-2.74
-4.18
-5.87
-7.70
-9.48
-11.00
-12.11
-12.81
-13.17
-13.43
-13.83
-14.62
-15.87
-17.46
-19.00
-19.99
-19.94
-18.59
-15.90
-12.18
-7.87
-3.49
0.52
3.89
6.48
8.34
9.55
10.24
10.52
10.48
10.23
9.90
9.65
9.63
9.95
10.59
11.43
12.33
13.11
13.69
14.05
14.20
14.18
14.01
13.68
13.17
12.47
11.63
10.70
9.71
8.69
7.64
6.52
5.32
4.06
2.73
1.36
-0.07
-1.55
-3.06
-4.53
-5.90
-7.17
-8.42
-9.84
-11.62
-13.87
-16.56
-19.41
-22.06
-24.02
-24.87
-24.30
-22.24
-18.87
-14.63
-10.07
-5.75
-2.08
0.82
3.01
4.68
6.01
7.05
7.79
8.21
8.39
8.51
8.77
9.22
9.81
10.32
10.58
10.55
10.36
10.23
10.28
10.46
10.56
10.29
9.49
8.17
6.53
4.83
3.30
2.07
1.12
0.39
-0.25
-0.98
-1.92
-3.15
-4.62
-6.22
-7.74
-9.04
-10.05
-10.81
-11.51
-12.33
-13.45
-14.98
-16.89
-18.97
-20.85
-22.05
-22.10
-20.76
-18.06
-14.36
-10.24
-6.31
-3.01
-0.54
1.12
2.19
2.84
3.23
3.39
3.37
3.23
3.08
3.07
3.37
4.07
5.16
6.53
8.05
9.53
10.84
11.90
12.72
13.33
13.72
13.87
13.70
13.18
12.29
11.15
9.87
8.62
7.46
6.43
5.47
4.52
3.54
2.48
1.34
0.12
-1.13
-2.37
-3.55
-4.67
-5.78
-7.00
-8.43
-10.15
-12.17
-14.40
-16.67
-18.70
-20.15
-20.66
-19.97
-17.97
-14.80
-10.84
-6.58
-2.54
0.93
3.69
5.77
7.28
8.30
8.90
9.09
8.93
8.53
8.12
7.91
8.06
8.58
9.37
10.20
10.87
11.25
11.33
11.20
10.98
10.76
10.57
10.33
9.90
9.15
8.01
6.56
4.98
3.52
2.41
1.70
1.28
0.91
0.31
-0.64
-1.95
-3.44
-4.93
-6.30
-7.52
-8.66
-9.77
-10.89
-12.05
-13.27
-14.59
-16.02
-17.48
-18.76
-19.53
-19.44
-18.24
-15.91
-12.65
-8.86
-4.95
-1.30
1.87
4.46
6.43
7.77
8.53
8.82
8.83
8.80
8.97
9.45
10.24
11.20
12.13
12.82
13.16
13.12
12.79
12.30
11.78
11.30
10.85
10.35
9.69
8.78
7.63
6.31
4.96
3.73
2.72
1.97
1.44
1.01
0.56
-0.03
-0.83
-1.88
-3.12
-4.48
-5.89
-7.31
-8.74
-10.24
-11.84
-13.59
-15.51
-17.58
-19.67
-21.54
-22.84
-23.13
-22.08
-19.60
-15.89
-11.45
-6.92
-2.83
0.49
2.96
4.67
5.74
6.29
6.40
6.19
5.87
5.67
5.82
6.43
7.43
8.62
9.71
10.50
10.89
10.92
10.71
10.38
10.00
9.54
8.95
8.18
7.23
6.17
5.06
3.97
2.94
1.98
1.11
0.34
-0.33
-0.94
-1.51
-2.07
-2.60
-3.07
-3.47
-3.87
-4.40
-5.22
-6.44
-8.00
-9.79
-11.63
-13.38
-14.98
-16.32
-17.19
-17.25
-16.13
-13.60
-9.71
-4.77
0.69
6.15
11.13
15.19
17.98
19.25
18.90
17.16
14.48
11.51
8.84
6.86
5.72
5.37
5.65
6.43
7.51
8.70
9.74
10.39
10.52
10.15
9.42
8.47
7.44
6.39
5.31
4.19
3.06
2.00
1.05
0.23
-0.57
-1.49
-2.65
-4.07
-5.69
-7.33
-8.86
-10.20
-11.33
-12.32
-13.29
-14.34
-15.58
-17.10
-18.92
-20.93
-22.87
-24.32
-24.79
-23.91
-21.52
-17.76
-13.01
-7.80
-2.62
2.12
6.20
9.49
11.98
13.68
14.64
14.94
14.74
14.26
13.77
13.49
13.50
13.74
13.98
13.94
13.42
12.35
10.77
8.86
6.79
4.67
2.54
0.40
-1.76
-3.95
-6.10
-8.13
-9.90
-11.31
-12.29
-12.86
-13.11
-13.20
-13.30
-13.56
-14.04
-14.71
-15.46
-16.17
-16.71
-17.06
-17.26
-17.49
-17.96
-18.87
-20.29
-22.01
-23.62
-24.51
-24.15
-22.29
-19.17
-15.43
-11.86
-9.11
-7.49
-6.96
-7.24
-7.98
-8.93
-10.03
-11.35
-13.01
-15.08
-17.48
-19.99
-22.26
-23.66
-23.58
-21.62
-17.77
-12.34
-5.90
0.89
7.38
13.01
17.74
21.63
24.59
26.39
26.85
26.01
24.12
21.47
18.33
15.65
14.26
14.31
15.29
16.52
17.62
18.54
19.44
20.58
23.33
28.68
36.35
44.68
51.60
55.66
56.47
54.64
51.61
50.81
55.11
65.53
80.74
98.40
116.49
133.66
148.97
151.91
135.83
102.49
61.83
24.18
-4.83
-24.08
-34.93
-39.77
-41.06
-38.84
-33.35
-25.44
-17.21
-10.69
-6.82
-5.41
-5.71
-6.91
-7.31
-6.34
-4.33
-3.12
-4.24
-7.79
-12.66
-17.40
-21.06
-22.74
-22.41
-20.88
-20.24
-21.65
-24.59
-27.55
-29.41
-30.21
-30.49
-31.18
-33.05
-37.61
-44.81
-52.83
-59.23
-62.75
-63.87
-64.04
-64.94
-67.74
-74.65
-86.45
-102.01
-118.81
-134.13
-145.42
-150.31
-147.24
-126.69
-89.01
-45.36
-10.05
10.05
17.06
17.23
16.05
15.88
16.11
12.52
4.11
-6.65
-15.00
-16.78
-10.21
3.95
23.10
43.97
62.68
76.93
86.24
91.87
95.31
97.41
98.26
97.49
94.44
87.68
76.46
60.90
42.03
21.13
-0.23
-19.99
-35.72
-45.25
-47.87
-44.27
-36.31
-26.46
-17.16
-10.22
-6.40
-5.54
-6.97
-10.07
-14.15
-18.33
-21.59
-22.93
-21.69
-17.73
-11.36
-3.34
5.32
13.61
20.73
26.14
29.56
31.05
30.90
29.76
28.40
27.57
27.98
30.12
33.99
38.97
43.93
47.64
49.32
48.75
46.21
42.62
39.27
37.30
37.23
38.90
41.48
43.95
45.02
43.18
37.32
27.18
13.43
-2.41
-18.21
-31.77
-40.72
-43.03
-39.54
-33.99
-30.36
-30.44
-33.52
-37.39
-40.86
-42.72
-42.70
-41.27
-38.94
-35.78
-31.57
-26.24
-18.96
-9.85
0.85
12.73
25.16
37.54
49.30
59.67
67.62
72.07
72.16
67.95
60.21
50.21
39.49
29.50
21.16
14.53
8.89
2.90
-4.74
-15.05
-28.50
-44.78
-62.80
-80.97
-97.58
-110.99
-119.90
-123.38
-121.04
-113.21
-100.96
-86.00
-70.28
-55.53
-42.94
-32.94
-25.36
-19.74
-15.59
-12.58
-10.38
-8.69
-7.09
-5.19
-2.76
0.19
3.42
6.64
9.62
12.32
14.79
17.06
19.07
20.56
21.25
20.88
19.42
17.01
14.00
10.77
7.62
4.70
1.99
-0.70
-3.63
-7.01
-10.91
-15.19
-19.47
-23.10
-25.40
-25.71
-23.70
-19.38
-13.18
-5.83
1.85
9.14
15.51
20.74
24.79
27.72
29.65
30.67
30.88
30.39
29.41
28.17
26.92
25.81
24.86
23.95
22.90
21.60
20.06
18.38
16.65
14.87
12.91
10.57
7.75
4.50
1.04
-2.32
-5.29
-7.74
-9.72
-11.41
-13.08
-14.97
-17.26
-19.91
-22.60
-24.72
-25.53
-24.39
-21.02
-15.69
-9.12
-2.26
4.00
9.09
12.82
15.31
16.79
17.43
17.35
16.67
15.55
14.27
13.15
12.44
12.24
12.47
12.94
13.45
13.87
14.21
14.53
14.88
15.28
15.60
15.67
15.24
14.10
12.16
9.50
6.37
3.11
0.00
-2.82
-5.41
-7.96
-10.73
-13.91
-17.57
-21.65
-25.89
-29.87
-32.96
-34.51
-33.97
-31.12
-26.19
-19.84
-12.96
-6.37
-0.57
4.26
8.22
11.51
14.23
16.42
18.07
19.21
19.97
20.52
21.05
21.62
22.18
22.58
22.65
22.25
21.34
19.92
18.08
15.88
13.34
10.44
7.07
3.12
-1.43
-6.41
-11.42
-15.86
-19.14
-20.88
-21.08
-20.03
-18.22
-16.04
-13.68
-11.08
-8.06
-4.57
-0.77
2.94
6.10
8.29
9.34
9.34
8.57
7.41
6.16
5.02
4.03
3.18
2.46
1.96
1.87
2.39
3.58
5.26
7.02
8.36
8.89
8.49
7.35
5.85
4.39
3.15
2.08
1.03
-0.23
-1.76
-3.48
-5.24
-6.89
-8.38
-9.81
-11.37
-13.25
-15.51
-18.08
-20.61
-22.61
-23.55
-23.02
-20.83
-17.15
-12.45
-7.38
-2.60
1.43
4.50
6.71
8.32
9.60
10.79
11.98
13.24
14.61
16.16
17.94
19.91
21.84
23.43
24.37
24.46
23.77
22.53
20.98
19.29
17.41
15.15
12.31
8.82
4.87
0.86
-2.70
-5.36
-6.89
-7.32
-6.91
-6.01
-4.97
-4.06
-3.41
-3.07
-3.02
-3.19
-3.52
-3.97
-4.59
-5.54
-7.01
-9.21
-12.19
-15.74
-19.36
-22.42
-24.23
-24.35
-22.66
-19.43
-15.20
-10.57
-6.02
-1.80
2.10
5.78
9.39
13.00
16.58
20.01
23.18
25.99
28.34
30.15
31.33
31.74
31.25
29.87
27.79
25.48
23.49
22.38
22.38
23.31
24.58
25.42
25.17
23.51
20.52
16.59
12.19
7.65
3.15
-1.27
-5.65
-9.95
-14.02
-17.63
-20.49
-22.41
-23.33
-23.37
-22.79
-21.97
-21.25
-20.87
-20.90
-21.23
-21.59
-21.64
-21.03
-19.51
-17.04
-13.81
-10.21
-6.67
-3.60
-1.26
0.22
0.79
0.49
-0.54
-2.06
-3.64
-4.77
-4.94
-3.79
-1.26
2.43
6.78
11.18
15.04
17.87
19.40
19.56
18.45
16.35
13.61
10.64
7.88
5.73
4.49
4.29
5.03
6.41
7.98
9.29
9.96
9.81
8.87
7.34
5.50
3.63
1.90
0.37
-1.08
-2.60
-4.39
-6.56
-9.14
-12.04
-15.04
-17.77
-19.76
-20.50
-19.59
-16.88
-12.56
-7.15
-1.35
4.18
8.98
12.86
15.83
17.94
19.16
19.34
18.29
15.97
12.54
8.40
4.06
-0.00
-3.47
-6.22
-8.23
-9.56
-10.29
-10.55
-10.49
-10.29
-10.12
-10.05
-10.04
-9.98
-9.84
-9.65
-9.59
-9.84
-10.52
-11.56
-12.77
-13.86
-14.56
-14.71
-14.24
-13.19
-11.62
-9.63
-7.37
-5.08
-3.06
-1.64
-1.04
-1.24
-1.95
-2.63
-2.74
-1.89
-0.02
2.58
5.38
7.79
9.43
10.13
10.04
9.46
8.73
8.17
7.99
8.36
9.34
10.94
13.02
15.34
17.58
19.44
20.79
21.68
22.33
22.97
23.75
24.65
25.54
26.28
26.75
26.90
26.76
26.31
25.59
24.61
23.40
21.94
20.20
18.04
15.37
12.11
8.35
4.27
0.09
-4.02
-8.05
-12.12
-16.39
-21.09
-26.35
-32.23
-38.68
-45.48
-52.16
-58.02
-62.12
-63.56
-61.65
-56.27
-47.89
-37.48
-26.23
-15.24
-5.31
3.11
9.80
14.68
17.73
19.04
18.82
17.47
15.54
13.58
12.03
11.14
10.93
11.23
11.83
12.55
13.29
14.08
15.01
16.20
17.64
19.18
20.51
21.31
21.36
20.64
19.28
17.45
15.31
12.88
10.17
7.23
4.22
1.33
-1.24
-3.47
-5.50
-7.57
-9.91
-12.65
-15.76
-19.13
-22.68
-26.34
-30.07
-33.70
-36.88
-39.10
-39.83
-38.70
-35.75
-31.42
-26.47
-21.62
-17.40
-14.01
-11.40
-9.45
-8.10
-7.31
-7.03
-7.02
-6.89
-6.16
-4.46
-1.68
2.02
6.22
10.47
14.34
17.59
20.10
21.89
23.01
23.52
23.44
22.74
21.34
19.17
16.27
12.79
9.03
5.31
1.90
-1.07
-3.59
-5.68
-7.36
-8.67
-9.64
-10.38
-11.05
-11.78
-12.60
-13.38
-13.91
-13.96
-13.46
-12.47
-11.20
-9.87
-8.65
-7.56
-6.56
-5.51
-4.29
-2.79
-0.95
1.32
4.09
7.44
11.38
15.76
20.34
24.72
28.52
31.42
33.24
33.94
33.53
32.11
29.78
26.67
22.96
18.89
14.71
10.61
6.72
3.09
-0.25
-3.28
-5.97
-8.37
-10.56
-12.71
-15.01
-17.56
-20.33
-23.15
-25.76
-27.90
-29.37
-30.08
-29.99
-29.15
-27.66
-25.74
-23.62
-21.61
-19.95
-18.78
-18.05
-17.51
-16.80
-15.52
-13.36
-10.23
-6.25
-1.72
2.98
7.46
11.43
14.63
16.90
18.14
18.29
17.46
15.85
13.81
11.71
9.86
8.43
7.42
6.67
5.96
5.04
3.73
1.98
-0.13
-2.32
-4.20
-5.32
-5.35
-4.18
-2.03
0.61
3.07
4.71
5.12
4.28
2.47
0.18
-2.12
-4.13
-5.76
-7.10
-8.31
-9.57
-11.01
-12.70
-14.59
-16.46
-17.87
-18.25
-17.07
-14.06
-9.42
-3.78
1.93
6.80
10.18
11.83
11.94
10.98
9.49
7.98
6.75
5.94
5.51
5.38
5.48
5.76
6.22
6.85
7.58
8.33
9.02
9.59
10.00
10.23
10.18
9.74
8.78
7.25
5.22
2.90
0.58
-1.53
-3.30
-4.75
-5.95
-6.99
-7.91
-8.74
-9.52
-10.41
-11.61
-13.27
-15.43
-17.81
-19.93
-21.11
-20.80
-18.68
-14.88
-9.94
-4.58
0.47
4.73
8.00
10.35
11.96
13.02
13.65
13.89
13.82
13.54
13.19
12.91
12.77
12.75
12.78
12.77
12.63
12.33
11.87
11.31
10.72
10.16
9.63
9.07
8.40
7.51
6.40
5.13
3.87
2.74
1.85
1.20
0.71
0.35
0.11
0.04
0.20
0.56
1.00
1.21
0.86
-0.43
-2.88
-6.49
-10.96
-15.66
-19.81
-22.64
-23.64
-22.75
-20.30
-16.96
-13.43
-10.30
-7.84
-6.06
-4.77
-3.73
-2.69
-1.50
-0.05
1.70
3.75
6.07
8.53
10.93
13.04
14.60
15.44
15.54
14.98
13.99
12.82
11.67
10.63
9.70
8.81
7.88
6.89
5.86
4.86
3.91
2.98
2.00
0.87
-0.40
-1.77
-3.06
-4.15
-5.00
-5.71
-6.47
-7.56
-9.19
-11.43
-14.15
-17.02
-19.54
-21.12
-21.29
-19.76
-16.61
-12.22
-7.20
-2.23
2.13
5.55
7.95
9.45
10.28
10.68
10.83
10.87
10.88
10.90
11.03
11.32
11.83
12.52
13.33
14.14
14.85
15.34
15.59
15.63
15.56
15.48
15.55
15.80
16.23
16.74
17.18
17.42
17.40
17.09
16.46
15.42
13.81
11.45
8.28
4.39
-0.01
-4.63
-9.28
-13.87
-18.35
-22.64
-26.52
-29.64
-31.66
-32.37
-31.78
-30.10
-27.66
-24.72
-21.49
-18.11
-14.65
-11.26
-8.08
-5.30
-3.05
-1.36
-0.19
0.59
1.10
1.46
1.71
1.86
1.92
1.92
1.95
2.15
2.66
3.54
4.76
6.16
7.47
8.46
8.97
9.01
8.73
8.32
7.89
7.45
6.88
6.09
5.06
3.90
2.83
2.01
1.52
1.25
1.01
0.57
-0.15
-1.12
-2.18
-3.18
-4.05
-4.83
-5.61
-6.47
-7.43
-8.49
-9.66
-11.01
-12.67
-14.62
-16.64
-18.23
-18.79
-17.86
-15.36
-11.62
-7.28
-2.96
0.91
4.19
6.95
9.26
11.11
12.42
13.16
13.41
13.38
13.30
13.27
13.25
13.06
12.56
11.67
10.53
9.34
8.32
7.59
7.13
6.80
6.43
5.91
5.20
4.33
3.40
2.46
1.55
0.68
-0.10
-0.75
-1.23
-1.56
-1.83
-2.20
-2.79
-3.67
-4.76
-5.92
-7.00
-7.91
-8.64
-9.30
-10.05
-11.08
-12.49
-14.32
-16.39
-18.33
-19.64
-19.80
-18.51
-15.77
-11.95
-7.60
-3.31
0.51
3.65
6.09
7.89
9.13
9.92
10.35
10.56
10.68
10.77
10.84
10.85
10.78
10.61
10.37
10.14
10.00
9.97
10.06
10.20
10.29
10.24
10.02
9.65
9.20
8.71
8.16
7.44
6.45
5.16
3.67
2.18
0.89
-0.10
-0.85
-1.52
-2.32
-3.36
-4.62
-6.00
-7.33
-8.55
-9.64
-10.66
-11.71
-12.88
-14.22
-15.78
-17.53
-19.30
-20.83
-21.71
-21.58
-20.17
-17.49
-13.79
-9.47
-4.99
-0.73
3.07
6.23
8.69
10.37
11.30
11.58
11.41
11.02
10.61
10.33
10.23
10.31
10.52
10.87
11.32
11.82
12.27
12.54
12.51
12.12
11.41
10.48
9.42
8.32
7.19
5.99
4.73
3.41
2.10
0.85
-0.37
-1.53
-2.63
-3.63
-4.44
-5.02
-5.39
-5.63
-5.92
-6.42
-7.27
-8.57
-10.37
-12.64
-15.33
-18.33
-21.46
-24.54
-27.32
-29.50
-30.71
-30.59
-28.91
-25.70
-21.31
-16.35
-11.49
-7.21
-3.75
-1.05
1.11
2.89
4.41
5.72
6.85
7.86
8.82
9.72
10.47
10.94
11.06
10.87
10.53
10.29
10.40
10.96
11.95
13.19
14.41
15.28
15.52
15.00
13.73
11.91
9.91
8.15
6.95
6.48
6.68
7.29
7.93
8.21
7.85
6.67
4.64
1.87
-1.46
-5.03
-8.50
-11.56
-14.05
-16.03
-17.66
-19.14
-20.57
-21.90
-22.89
-23.24
-22.67
-20.92
-17.83
-13.43
-7.96
-1.91
4.06
9.24
13.13
15.55
16.61
16.67
16.10
15.21
14.16
13.08
12.09
11.32
10.86
10.69
10.67
10.61
10.30
9.70
8.86
7.94
7.09
6.41
5.87
5.42
4.98
4.52
4.05
3.61
3.22
2.90
2.63
2.41
2.20
1.93
1.52
0.84
-0.25
-1.85
-3.95
-6.41
-9.04
-11.59
-13.90
-15.92
-17.77
-19.63
-21.68
-23.99
-26.49
-28.93
-30.98
-32.25
-32.42
-31.35
-29.10
-25.88
-21.98
-17.65
-13.03
-8.20
-3.22
1.78
6.55
10.72
13.95
16.00
16.86
16.70
15.84
14.67
13.53
12.61
11.89
11.26
10.62
9.96
9.39
9.01
8.85
8.77
8.40
7.24
4.93
1.53
-2.43
-6.12
-8.66
-9.18
-7.12
-2.63
3.29
9.03
12.96
13.90
11.55
6.59
0.65
-4.42
-7.54
-8.99
-10.04
-12.11
-16.03
-21.53
-27.34
-31.39
-31.46
-26.21
-15.73
-1.06
16.25
34.50
52.09
65.71
71.75
69.29
61.28
52.31
45.78
42.61
41.71
41.43
40.49
38.57
36.41
35.22
34.41
33.08
30.58
26.71
21.88
16.81
12.12
8.44
5.48
2.23
-2.43
-8.76
-16.69
-25.87
-34.07
-39.46
-41.00
-39.73
-37.64
-36.27
-36.19
-37.01
-37.69
-37.05
-36.37
-34.86
-32.66
-30.30
-28.35
-27.27
-27.38
-28.79
-31.54
-35.88
-39.83
-42.67
-43.94
-43.40
-41.11
-37.57
-33.42
-29.35
-25.93
-23.21
-21.40
-20.39
-19.86
-19.47
-19.03
-18.47
-17.76
-16.99
-16.03
-15.04
-14.05
-12.96
-11.68
-10.21
-8.60
-6.98
-5.50
-4.15
-3.09
-2.32
-1.77
-1.39
-1.13
-0.99
-0.93
-0.86
-0.60
-0.04
0.84
1.97
3.13
3.99
4.23
3.71
2.55
1.08
-0.22
-0.89
-0.61
0.72
2.98
5.95
9.26
12.56
15.53
17.99
20.00
21.87
24.10
27.14
31.18
35.81
40.19
43.27
44.09
42.13
37.48
30.75
22.80
14.66
7.00
0.40
-4.80
-8.41
-10.37
-10.76
-9.79
-7.90
-5.45
-3.39
-2.24
-2.18
-2.96
-3.98
-4.45
-3.84
-2.08
0.86
3.66
5.63
6.45
6.21
5.50
5.31
6.75
11.00
19.78
32.64
49.21
68.06
86.89
103.31
115.72
123.80
128.33
131.55
133.25
133.51
131.35
125.08
113.43
96.17
74.13
42.66
12.01
-17.86
-45.99
-71.59
-94.06
-112.40
-125.23
-131.32
-130.02
-120.59
-105.00
-84.30
-58.67
-30.53
-4.00
16.96
30.31
36.08
36.24
31.77
24.81
17.41
11.05
6.86
5.47
6.83
10.09
14.05
16.91
17.55
15.65
11.56
6.33
1.22
-2.90
-5.97
-8.61
-11.93
-16.27
-21.22
-26.07
-30.06
-32.95
-35.40
-36.67
-37.16
-37.41
-37.57
-37.44
-36.81
-35.57
-33.75
-31.39
-28.36
-24.64
-20.01
-14.27
-7.36
0.65
9.68
19.73
30.82
42.80
54.86
65.87
74.52
79.60
80.31
76.47
68.64
57.95
45.84
33.56
22.13
12.15
3.80
-2.97
-8.41
-12.78
-16.41
-19.58
-22.57
-25.50
-28.26
-30.56
-32.09
-32.74
-32.65
-32.23
-31.89
-31.82
-31.80
-31.23
-29.43
-25.94
-20.81
-14.65
-8.44
-3.21
0.25
1.56
0.75
-1.87
-5.86
-10.74
-16.01
-21.17
-25.79
-29.59
-32.62
-35.14
-37.52
-39.89
-42.04
-43.29
-42.96
-40.58
-36.32
-30.95
-25.58
-21.20
-18.29
-16.65
-15.60
-14.32
-12.33
-9.74
-7.24
-5.77
-6.15
-8.59
-12.60
-17.13
-20.99
-23.39
-24.30
-24.51
-25.29
-27.87
-32.96
-40.45
-49.59
-59.32
-68.68
-77.11
-84.50
-91.11
-97.44
-104.06
-111.34
-119.20
-126.85
-132.85
-135.59
-134.00
-128.32
-120.35
-112.87
-108.41
-107.80
-109.30
-108.97
-102.15
-85.56
-58.91
-25.24
10.03
41.20
64.23
78.03
84.40
86.92
89.40
94.53
103.15
114.50
126.75
137.87
146.26
150.88
151.20
146.95
137.88
124.03
106.22
86.54
68.26
54.99
49.17
50.93
57.72
65.24
69.28
67.45
60.06
49.61
39.26
31.23
25.93
22.23
18.56
14.17
9.69
7.00
8.43
15.66
28.79
46.11
64.53
80.64
91.75
96.66
95.89
91.34
85.15
78.79
72.74
66.66
60.02
52.45
43.95
34.87
26.14
18.52
12.48
8.22
5.76
5.33
7.00
10.57
15.58
21.94
29.19
36.47
42.73
47.01
49.17
49.44
48.16
45.65
42.76
39.79
36.36
31.77
25.48
18.06
10.49
3.63
-6.65
-21.43
-38.95
-55.84
-68.29
-77.44
-84.46
-90.13
-94.49
-97.36
-97.92
-95.88
-91.65
-86.12
-80.36
-74.69
-69.22
-63.99
-59.03
-53.72
-47.71
-40.98
-33.85
-26.77
-19.78
-12.96
-6.64
-1.31
2.81
5.44
6.28
5.16
2.22
-1.77
-5.83
-9.03
-10.85
-11.14
-10.36
-9.41
-9.26
-10.55
-13.19
-16.60
-20.00
-22.67
-24.11
-24.16
-22.95
-20.73
-17.78
-14.31
-10.51
-6.61
-2.82
0.71
3.99
7.10
10.21
13.35
16.31
18.70
20.03
19.94
18.43
15.84
12.82
10.03
8.00
6.95
6.80
7.22
7.80
8.10
7.80
6.73
4.87
2.29
-0.88
-4.54
-8.65
-13.24
-18.37
-24.08
-30.28
-36.66
-42.66
-47.46
-50.14
-49.95
-46.57
-40.24
-31.71
-22.09
-12.44
-3.60
3.94
9.99
14.50
17.56
19.30
20.04
20.26
20.52
21.37
23.14
25.80
28.99
32.21
35.00
37.13
38.67
39.85
40.89
41.76
42.23
41.87
40.37
37.62
33.82
29.38
24.74
20.17
15.76
11.37
6.80
1.94
-3.20
-8.39
-13.31
-17.64
-21.21
-24.04
-26.32
-28.40
-30.60
-33.14
-36.09
-39.28
-42.30
-44.54
-45.30
-43.98
-40.34
-34.57
-27.34
-19.60
-12.29
-6.15
-1.50
1.66
3.55
4.47
4.70
4.51
4.17
4.00
4.26
5.15
6.75
8.94
11.55
14.30
16.91
19.14
20.83
21.89
22.32
22.15
21.42
20.20
18.59
16.72
14.76
12.93
11.35
10.09
9.11
8.29
7.49
6.61
5.56
4.28
2.72
0.86
-1.32
-3.78
-6.48
-9.35
-12.35
-15.40
-18.35
-20.97
-22.85
-23.53
-22.62
-20.01
-15.89
-10.80
-5.43
-0.49
3.58
6.57
8.56
9.76
10.35
10.50
10.32
9.97
9.67
9.70
10.26
11.38
12.94
14.64
16.14
17.23
17.85
18.06
17.97
17.63
16.99
15.95
14.46
12.58
10.51
8.46
6.61
4.95
3.26
1.20
-1.57
-5.19
-9.54
-14.20
-18.63
-22.38
-25.24
-27.22
-28.52
-29.30
-29.55
-29.11
-27.69
-25.14
-21.50
-17.10
-12.44
-8.01
-4.16
-0.99
1.55
3.56
5.09
6.12
6.60
6.63
6.42
6.31
6.58
7.39
8.66
10.19
11.75
13.14
14.23
14.92
15.12
14.72
13.75
12.32
10.65
8.97
7.44
6.06
4.75
3.41
1.97
0.44
-1.13
-2.66
-4.08
-5.33
-6.35
-7.14
-7.80
-8.56
-9.74
-11.65
-14.37
-17.63
-20.75
-22.84
-23.12
-21.18
-17.22
-11.94
-6.32
-1.37
2.22
4.14
4.49
3.65
2.14
0.44
-1.07
-2.21
-2.96
-3.35
-3.45
-3.27
-2.75
-1.87
-0.67
0.68
1.92
2.81
3.22
3.20
2.90
2.51
2.22
2.08
2.03
1.96
1.70
1.16
0.32
-0.77
-2.03
-3.39
-4.82
-6.33
-7.96
-9.77
-11.78
-14.02
-16.48
-19.05
-21.47
-23.30
-24.02
-23.16
-20.52
-16.33
-11.18
-5.80
-0.84
3.31
6.59
9.08
10.89
12.08
12.68
12.75
12.46
12.04
11.73
11.68
11.91
12.31
12.72
12.98
12.98
12.68
12.15
11.49
10.83
10.26
9.81
9.42
8.95
8.28
7.35
6.16
4.81
3.44
2.15
0.97
-0.11
-1.19
-2.35
-3.61
-4.96
-6.32
-7.67
-9.05
-10.54
-12.19
-13.91
-15.43
-16.32
-16.11
-14.51
-11.53
-7.53
-3.13
1.02
4.39
6.81
8.37
9.36
10.08
10.73
11.36
11.94
12.41
12.74
12.98
13.19
13.41
13.71
14.13
14.75
15.58
16.56
17.51
18.19
18.33
17.82
16.68
15.08
13.23
11.30
9.38
7.43
5.36
3.00
0.22
-3.06
-6.76
-10.56
-13.98
-16.40
-17.39
-16.85
-15.10
-12.82
-10.76
-9.54
-9.42
-10.32
-11.85
-13.48
-14.64
-14.82
-13.62
-10.96
-7.07
-2.50
1.99
5.72
8.22
9.44
9.61
9.17
8.54
8.05
7.86
8.05
8.59
9.45
10.57
11.85
13.13
14.23
14.96
15.18
14.91
14.26
13.48
12.76
12.21
11.76
11.18
10.28
8.95
7.29
5.59
4.16
3.21
2.75
2.55
2.28
1.65
0.53
-0.99
-2.66
-4.21
-5.44
-6.34
-7.06
-7.81
-8.84
-10.29
-12.21
-14.54
-17.07
-19.46
-21.28
-22.03
-21.40
-19.31
-15.99
-11.93
-7.68
-3.71
-0.28
2.50
4.66
6.27
7.42
8.24
8.88
9.47
10.05
10.58
11.00
11.25
11.37
11.46
11.67
12.03
12.49
12.96
13.32
13.55
13.71
13.83
13.94
13.95
13.77
13.28
12.45
11.33
10.06
8.76
7.55
6.46
5.47
4.51
3.46
2.27
0.92
-0.55
-2.07
-3.64
-5.26
-7.02
-8.98
-11.17
-13.62
-16.28
-19.09
-21.87
-24.37
-26.21
-27.02
-26.56
-24.79
-21.97
-18.54
-14.94
-11.53
-8.45
-5.75
-3.36
-1.21
0.76
2.65
4.55
6.50
8.50
10.45
12.25
13.80
15.05
15.92
16.38
16.35
15.80
14.73
13.23
11.47
9.60
7.73
5.94
4.23
2.62
1.15
-0.07
-0.95
-1.39
-1.34
-0.85
-0.03
0.89
1.64
1.95
1.68
0.82
-0.44
-1.85
-3.17
-4.27
-5.18
-6.08
-7.22
-8.81
-10.95
-13.55
-16.29
-18.68
-20.19
-20.42
-19.22
-16.77
-13.44
-9.73
-6.06
-2.71
0.20
2.62
4.50
5.81
6.52
6.73
6.61
6.37
6.25
6.37
6.76
7.36
8.04
8.67
9.16
9.48
9.60
9.50
9.15
8.49
7.51
6.26
4.86
3.47
2.21
1.13
0.21
-0.57
-1.22
-1.66
-1.83
-1.70
-1.39
-1.08
-0.97
-1.15
-1.60
-2.23
-2.95
-3.72
-4.54
-5.47
-6.55
-7.82
-9.35
-11.19
-13.28
-15.41
-17.13
-17.92
-17.33
-15.20
-11.73
-7.39
-2.77
1.70
5.81
9.51
12.78
15.52
17.50
18.45
18.22
16.90
14.81
12.39
10.12
8.35
7.31
7.02
7.40
8.18
9.07
9.74
9.97
9.67
8.90
7.80
6.50
5.13
3.75
2.43
1.24
0.29
-0.38
-0.76
-0.96
-1.10
-1.31
-1.71
-2.38
-3.37
-4.67
-6.20
-7.78
-9.24
-10.43
-11.33
-11.99
-12.59
-13.34
-14.38
-15.72
-17.19
-18.44
-19.02
-18.54
-16.79
-13.85
-10.10
-6.09
-2.37
0.65
2.78
4.07
4.65
4.73
4.50
4.12
3.74
3.48
3.41
3.55
3.90
4.41
5.00
5.66
6.32
6.94
7.46
7.86
8.15
8.40
8.65
8.94
9.23
9.51
9.79
10.15
10.70
11.54
12.63
13.81
14.81
15.33
15.13
14.16
12.50
10.37
8.01
5.64
3.45
1.52
-0.14
-1.61
-2.99
-4.44
-6.07
-7.85
-9.60
-11.00
-11.66
-11.24
-9.56
-6.72
-3.09
0.76
4.23
6.77
8.11
8.23
7.32
5.63
3.40
0.79
-2.12
-5.16
-8.15
-10.82
-12.96
-14.46
-15.38
-15.83
-15.95
-15.83
-15.50
-14.94
-14.12
-13.07
-11.84
-10.50
-9.14
-7.86
-6.74
-5.87
-5.33
-5.15
-5.31
-5.72
-6.23
-6.71
-7.10
-7.42
-7.83
-8.49
-9.54
-10.96
-12.50
-13.76
-14.32
-13.83
-12.19
-9.50
-6.12
-2.43
1.17
4.41
7.12
9.23
10.70
11.53
11.69
11.25
10.33
9.12
7.86
6.79
6.08
5.80
5.86
6.12
6.44
6.72
6.93
7.13
7.37
7.59
7.67
7.40
6.62
5.31
3.56
1.59
-0.42
-2.35
-4.25
-6.19
-8.21
-10.27
-12.25
-14.09
-15.82
-17.63
-19.68
-21.97
-24.22
-25.90
-26.41
-25.29
-22.49
-18.35
-13.47
-8.53
-4.06
-0.38
2.47
4.54
5.98
6.87
7.32
7.40
7.21
6.89
6.56
6.30
6.14
6.06
5.99
5.89
5.76
5.60
5.47
5.38
5.32
5.21
4.94
4.41
3.55
2.39
1.04
-0.33
-1.56
-2.54
-3.27
-3.85
-4.48
-5.35
-6.60
-8.25
-10.19
-12.22
-14.08
-15.53
-16.35
-16.37
-15.49
-13.63
-10.81
-7.19
-3.03
1.33
5.48
9.06
11.85
13.76
14.85
15.32
15.39
15.28
15.11
14.95
14.75
14.45
14.02
13.45
12.82
12.22
11.70
11.26
10.80
10.26
9.57
8.76
7.86
6.95
6.05
5.11
4.13
3.08
2.00
0.89
-0.27
-1.51
-2.89
-4.40
-5.92
-7.31
-8.44
-9.26
-9.89
-10.53
-11.39
-12.59
-14.05
-15.53
-16.63
-16.91
-16.05
-13.94
-10.72
-6.81
-2.72
1.04
4.15
6.48
8.11
9.21
9.96
10.52
10.95
11.25
11.44
11.55
11.64
11.83
12.15
12.65
13.22
13.73
13.98
13.86
13.30
12.37
11.18
9.92
8.71
7.64
6.68
5.77
4.81
3.75
2.61
1.44
0.30
-0.84
-2.09
-3.57
-5.37
-7.38
-9.37
-11.01
-12.09
-12.59
-12.71
-12.76
-13.09
-13.86
-15.07
-16.41
-17.41
-17.53
-16.35
-13.69
-9.75
-4.99
-0.03
4.57
8.45
11.48
13.67
15.13
15.94
16.19
15.97
15.39
14.60
13.75
12.91
12.16
11.51
10.96
10.51
10.15
9.85
9.55
9.23
8.83
8.36
7.81
7.20
6.57
5.94
5.36
4.83
4.42
4.12
3.94
3.79
3.54
3.08
2.33
1.34
0.25
-0.74
-1.45
-1.82
-1.88
-1.77
-1.72
-2.00
-2.90
-4.66
-7.31
-10.65
-14.21
-17.32
-19.37
-19.94
-18.99
-16.75
-13.63
-10.04
-6.35
-2.78
0.43
3.12
5.13
6.39
6.93
6.85
6.30
5.41
4.31
3.16
2.13
1.39
1.05
1.08
1.35
1.70
2.00
2.22
2.35
2.41
2.36
2.14
1.69
1.00
0.11
-0.91
-1.97
-3.00
-3.98
-4.83
-5.52
-5.96
-6.13
-6.01
-5.72
-5.41
-5.29
-5.56
-6.33
-7.60
-9.20
-10.88
-12.25
-12.94
-12.67
-11.32
-9.00
-6.04
-2.85
0.15
2.67
4.56
5.82
6.54
6.82
6.78
6.53
6.17
5.84
5.64
5.67
5.95
6.40
6.87
7.19
7.23
6.96
6.48
5.98
5.60
5.35
5.15
4.79
4.12
3.10
1.82
0.47
-0.75
-1.71
-2.35
-2.72
-2.93
-3.12
-3.43
-3.89
-4.47
-5.10
-5.70
-6.29
-6.98
-7.95
-9.34
-11.18
-13.33
-15.48
-17.20
-18.09
-17.84
-16.27
-13.46
-9.65
-5.23
-0.63
3.73
7.54
10.59
12.80
14.17
14.75
14.66
14.04
13.07
11.93
10.78
9.72
8.78
7.94
7.12
6.25
5.28
4.16
2.88
1.45
-0.08
-1.62
-3.01
-4.08
-4.68
-4.72
-4.23
-3.35
-2.32
-1.42
-0.93
-1.01
-1.62
-2.58
-3.59
-4.37
-4.77
-4.85
-4.82
-4.95
-5.50
-6.59
-8.22
-10.27
-12.47
-14.45
-15.75
-15.94
-14.72
-12.03
-8.12
-3.50
1.23
5.51
8.95
11.34
12.63
12.93
12.46
11.51
10.43
9.54
9.08
9.16
9.71
10.53
11.31
11.74
11.60
10.71
9.04
6.68
3.79
0.66
-2.45
-5.24
-7.52
-9.18
-10.23
-10.71
-10.72
-10.31
-9.58
-8.65
-7.73
-7.06
-6.86
-7.18
-7.95
-8.90
-9.74
-10.30
-10.52
-10.55
-10.64
-11.02
-11.85
-13.17
-14.84
-16.60
-18.06
-18.79
-18.40
-16.66
-13.56
-9.37
-4.60
0.17
4.40
7.75
10.09
11.50
12.20
12.41
12.35
12.18
12.01
11.91
11.90
11.96
12.06
12.15
12.14
12.00
11.69
11.23
10.63
9.92
9.08
8.08
6.89
5.55
4.17
2.97
2.14
1.82
1.97
2.37
2.69
2.61
1.94
0.73
-0.79
-2.29
-3.52
-4.40
-5.09
-5.90
-7.17
-9.12
-11.72
-14.69
-17.53
-19.64
-20.51
-19.75
-17.26
-13.21
-8.06
-2.41
3.08
7.85
11.51
13.94
15.28
15.81
15.84
15.63
15.35
15.06
14.79
14.58
14.45
14.37
14.26
14.01
13.53
12.75
11.72
10.48
9.13
7.71
6.24
4.71
3.10
1.44
-0.26
-1.99
-3.73
-5.47
-7.19
-8.85
-10.43
-11.87
-13.11
-14.14
-15.00
-15.77
-16.62
-17.67
-18.91
-20.17
-21.07
-21.16
-20.08
-17.66
-14.06
-9.70
-5.09
-0.73
3.06
6.12
8.39
9.90
10.65
10.73
10.27
9.53
8.79
8.27
8.09
8.20
8.49
8.81
9.11
9.33
9.48
9.51
9.35
8.93
8.19
7.16
5.91
4.52
3.05
1.55
0.06
-1.39
-2.78
-4.08
-5.30
-6.47
-7.64
-8.87
-10.18
-11.56
-12.94
-14.29
-15.58
-16.83
-18.09
-19.32
-20.32
-20.71
-20.07
-18.06
-14.66
-10.22
-5.34
-0.65
3.38
6.58
8.94
10.57
11.54
11.91
11.80
11.43
11.11
11.09
11.47
12.13
12.81
13.27
13.43
13.40
13.35
13.45
13.73
14.08
14.27
14.10
13.42
12.26
10.76
9.15
7.67
6.47
5.58
4.93
4.37
3.75
2.95
1.92
0.71
-0.61
-1.96
-3.26
-4.53
-5.82
-7.24
-8.87
-10.63
-12.31
-13.53
-13.88
-13.06
-10.99
-7.81
-3.88
0.39
4.56
8.31
11.42
13.79
15.41
16.35
16.70
16.58
16.10
15.33
14.39
13.37
12.44
11.70
11.23
11.02
10.98
11.03
11.07
11.02
10.80
10.30
9.41
8.13
6.54
4.80
3.09
1.54
0.15
-1.18
-2.55
-4.03
-5.61
-7.23
-8.83
-10.36
-11.83
-13.25
-14.67
-16.20
-17.94
-19.98
-22.32
-24.79
-27.04
-28.63
-29.12
-28.29
-26.13
-22.92
-19.10
-15.12
-11.38
-8.13
-5.52
-3.60
-2.34
-1.64
-1.33
-1.22
-1.12
-0.88
-0.45
0.18
1.01
1.98
2.99
3.89
4.50
4.69
4.41
3.72
2.76
1.71
0.67
-0.32
-1.29
-2.24
-3.12
-3.84
-4.34
-4.61
-4.74
-4.88
-5.19
-5.76
-6.59
-7.62
-8.79
-10.04
-11.31
-12.52
-13.50
-13.99
-13.68
-12.34
-9.88
-6.42
-2.31
1.95
5.87
9.07
11.37
12.78
13.47
13.63
13.43
13.00
12.43
11.80
11.24
10.85
10.72
10.81
11.05
11.28
11.41
11.35
11.09
10.60
9.87
8.86
7.54
5.93
4.13
2.28
0.53
-1.05
-2.43
-3.64
-4.72
-5.69
-6.57
-7.36
-8.09
-8.85
-9.75
-10.94
-12.52
-14.49
-16.69
-18.81
-20.40
-21.01
-20.31
-18.22
-14.90
-10.75
-6.24
-1.86
2.02
5.18
7.50
9.01
9.78
9.96
9.73
9.27
8.77
8.40
8.25
8.37
8.71
9.13
9.49
9.66
9.60
9.34
8.97
8.57
8.17
7.72
7.12
6.31
5.25
4.00
2.66
1.29
-0.05
-1.38
-2.74
-4.14
-5.56
-6.95
-8.26
-9.43
-10.46
-11.37
-12.21
-13.06
-14.02
-15.23
-16.71
-18.34
-19.76
-20.43
-19.86
-17.78
-14.27
-9.79
-4.93
-0.26
3.86
7.27
9.93
11.85
13.00
13.36
12.98
12.05
10.85
9.70
8.87
8.49
8.54
8.86
9.27
9.62
9.90
10.18
10.58
11.11
11.67
12.03
11.96
11.35
10.29
8.97
7.59
6.26
4.96
3.59
2.15
0.68
-0.64
-1.74
-2.63
-3.49
-4.51
-5.82
-7.36
-8.97
-10.48
-11.85
-13.18
-14.63
-16.27
-17.94
-19.26
-19.73
-18.96
-16.80
-13.39
-9.12
-4.49
0.01
4.00
7.25
9.67
11.27
12.14
12.38
12.17
11.69
11.13
10.68
10.48
10.59
10.98
11.51
12.00
12.27
12.25
11.97
11.56
11.14
10.77
10.39
9.83
8.93
7.66
6.14
4.60
3.27
2.25
1.50
0.89
0.25
-0.57
-1.59
-2.81
-4.19
-5.65
-7.09
-8.43
-9.60
-10.62
-11.60
-12.72
-14.14
-15.89
-17.85
-19.68
-20.94
-21.22
-20.23
-17.91
-14.42
-10.11
-5.42
-0.79
3.38
6.78
9.24
10.73
11.34
11.27
10.73
9.96
9.11
8.34
7.70
7.26
7.03
7.01
7.18
7.52
8.02
8.65
9.33
9.93
10.31
10.31
9.85
8.97
7.77
6.42
5.04
3.76
2.59
1.53
0.57
-0.30
-1.06
-1.69
-2.24
-2.79
-3.45
-4.26
-5.19
-6.16
-7.05
-7.78
-8.42
-9.12
-10.06
-11.37
-13.02
-14.80
-16.36
-17.29
-17.21
-15.91
-13.40
-9.92
-5.90
-1.78
2.02
5.23
7.74
9.53
10.68
11.26
11.36
11.11
10.61
10.03
9.50
9.11
8.90
8.86
8.92
9.02
9.08
9.08
9.02
8.91
8.79
8.63
8.39
7.99
7.36
6.53
5.60
4.75
4.12
3.78
3.67
3.65
3.60
3.41
3.09
2.69
2.29
1.92
1.55
1.14
0.60
-0.10
-1.01
-2.13
-3.50
-5.12
-6.99
-8.99
-10.92
-12.44
-13.23
-13.03
-11.78
-9.67
-7.05
-4.34
-1.89
0.08
1.45
2.19
2.26
1.68
0.53
-1.00
-2.59
-3.91
-4.65
-4.72
-4.17
-3.19
-2.03
-0.89
0.08
0.81
1.22
1.26
0.94
0.37
-0.27
-0.76
-0.96
-0.82
-0.43
0.01
0.32
0.34
-0.01
-0.74
-1.79
-3.03
-4.29
-5.42
-6.30
-6.95
-7.53
-8.28
-9.39
-10.90
-12.54
-13.85
-14.33
-13.59
-11.54
-8.41
-4.64
-0.70
3.01
6.23
8.79
10.58
11.55
11.75
11.27
10.33
9.14
7.94
6.91
6.16
5.75
5.66
5.80
6.07
6.35
6.55
6.66
6.67
6.55
6.26
5.71
4.86
3.79
2.62
1.54
0.64
-0.08
-0.73
-1.49
-2.47
-3.74
-5.22
-6.84
-8.50
-10.19
-11.89
-13.60
-15.26
-16.83
-18.22
-19.37
-20.21
-20.60
-20.33
-19.17
-16.97
-13.76
-9.80
-5.51
-1.35
2.29
5.19
7.30
8.67
9.42
9.73
9.74
9.62
9.51
9.51
9.62
9.80
9.98
10.08
10.06
9.92
9.73
9.53
9.35
9.15
8.87
8.39
7.59
6.45
4.95
3.20
1.36
-0.41
-1.93
-3.15
-4.09
-4.86
-5.58
-6.32
-7.11
-7.89
-8.58
-9.16
-9.70
-10.38
-11.38
-12.79
-14.44
-15.95
-16.79
-16.51
-14.88
-12.04
-8.40
-4.48
-0.70
2.62
5.35
7.40
8.68
9.13
8.78
7.80
6.47
5.13
4.10
3.56
3.58
4.14
5.08
6.23
7.38
8.31
8.87
8.98
8.61
7.85
6.80
5.61
4.42
3.33
2.42
1.71
1.20
0.81
0.42
-0.10
-0.86
-1.87
-3.04
-4.19
-5.18
-5.95
-6.60
-7.31
-8.28
-9.57
-11.10
-12.68
-14.04
-14.96
-15.26
-14.80
-13.46
-11.19
-8.03
-4.19
-0.05
3.96
7.38
9.95
11.57
12.38
12.58
12.40
11.96
11.34
10.60
9.88
9.37
9.22
9.46
9.97
10.48
10.75
10.64
10.19
9.59
9.02
8.56
8.13
7.55
6.70
5.54
4.21
2.92
1.83
1.00
0.37
-0.17
-0.74
-1.39
-2.09
-2.82
-3.52
-4.19
-4.84
-5.49
-6.17
-6.95
-7.90
-9.09
-10.44
-11.79
-12.80
-13.11
-12.40
-10.55
-7.58
-3.76
0.53
4.86
8.77
11.89
14.00
15.08
15.24
14.72
13.82
12.78
11.79
10.98
10.42
10.13
10.08
10.18
10.31
10.38
10.32
10.12
9.77
9.28
8.61
7.74
6.65
5.38
4.03
2.71
1.48
0.35
-0.72
-1.81
-2.90
-3.94
-4.79
-5.41
-5.85
-6.24
-6.81
-7.69
-8.92
-10.47
-12.23
-14.07
-15.80
-17.19
-17.91
-17.64
-16.20
-13.61
-10.16
-6.36
-2.70
0.40
2.75
4.35
5.28
5.64
5.48
4.81
3.64
2.04
0.15
-1.78
-3.47
-4.64
-5.12
-4.93
-4.21
-3.26
-2.37
-1.75
-1.44
-1.33
-1.27
-1.16
-1.02
-1.02
-1.35
-2.15
-3.35
-4.75
-6.02
-6.95
-7.43
-7.56
-7.58
-7.69
-8.06
-8.74
-9.77
-11.09
-12.63
-14.18
-15.42
-15.93
-15.31
-13.32
-10.03
-5.80
-1.25
2.96
6.34
8.64
9.89
10.30
10.12
9.56
8.81
7.99
7.26
6.76
6.56
6.60
6.76
6.85
6.80
6.65
6.55
6.64
7.01
7.58
8.20
8.70
8.98
9.01
8.77
8.28
7.51
6.44
5.03
3.29
1.29
-0.83
-2.89
-4.75
-6.34
-7.74
-9.16
-10.84
-12.97
-15.56
-18.39
-21.08
-23.12
-24.06
-23.57
-21.57
-18.23
-13.93
-9.21
-4.53
-0.25
3.47
6.58
9.11
11.05
12.38
13.10
13.28
13.10
12.76
12.45
12.28
12.26
12.34
12.45
12.54
12.54
12.40
12.07
11.49
10.64
9.51
8.15
6.62
5.05
3.60
2.41
1.57
0.96
0.37
-0.46
-1.71
-3.35
-5.17
-6.85
-8.15
-8.99
-9.49
-9.92
-10.57
-11.64
-13.19
-15.13
-17.16
-18.89
-19.88
-19.73
-18.21
-15.38
-11.51
-7.08
-2.62
1.41
4.74
7.27
9.03
10.13
10.69
10.81
10.61
10.23
9.80
9.46
9.27
9.18
9.11
8.99
8.82
8.66
8.58
8.62
8.68
8.65
8.39
7.89
7.19
6.39
5.55
4.70
3.84
2.97
2.09
1.24
0.44
-0.35
-1.15
-2.01
-2.88
-3.71
-4.40
-4.94
-5.40
-5.94
-6.75
-7.96
-9.63
-11.64
-13.72
-15.49
-16.57
-16.63
-15.47
-13.13
-9.82
-5.93
-1.93
1.72
4.72
6.94
8.41
9.29
9.75
9.95
9.96
9.85
9.70
9.61
9.70
10.02
10.58
11.28
11.95
12.47
12.77
12.83
12.75
12.56
12.29
11.89
11.30
10.46
9.37
8.12
6.79
5.45
4.14
2.85
1.57
0.28
-1.01
-2.27
-3.46
-4.55
-5.50
-6.28
-6.91
-7.47
-8.06
-8.83
-9.90
-11.32
-13.10
-15.16
-17.32
-19.31
-20.78
-21.36
-20.74
-18.75
-15.51
-11.33
-6.73
-2.25
1.70
4.85
7.17
8.76
9.76
10.36
10.67
10.77
10.75
10.67
10.61
10.65
10.79
11.01
11.26
11.48
11.67
11.80
11.89
11.87
11.67
11.19
10.43
9.45
8.35
7.25
6.19
5.14
4.05
2.89
1.68
0.47
-0.67
-1.76
-2.85
-4.00
-5.21
-6.45
-7.59
-8.51
-9.14
-9.46
-9.56
-9.59
-9.76
-10.24
-11.06
-12.09
-12.96
-13.22
-12.43
-10.43
-7.36
-3.68
0.00
3.10
5.21
6.22
6.22
5.47
4.26
2.87
1.52
0.33
-0.64
-1.39
-1.92
-2.19
-2.14
-1.66
-0.65
0.89
2.86
5.09
7.31
9.30
10.86
11.88
12.30
12.12
11.42
10.31
8.97
7.55
6.18
4.90
3.73
2.61
1.46
0.18
-1.34
-3.21
-5.46
-8.02
-10.70
-13.21
-15.30
-16.80
-17.76
-18.34
-18.77
-19.23
-19.77
-20.32
-20.69
-20.63
-19.89
-18.26
-15.63
-12.01
-7.58
-2.72
2.12
6.45
9.85
12.09
13.17
13.29
12.78
12.00
11.21
10.56
10.07
9.75
9.65
9.86
10.44
11.36
12.43
13.35
13.79
13.58
12.77
11.57
10.31
9.20
8.31
7.53
6.68
5.61
4.27
2.73
1.11
-0.51
-2.09
-3.67
-5.29
-6.98
-8.65
-10.15
-11.27
-11.85
-11.79
-11.16
-10.13
-9.00
-8.09
-7.69
-7.96
-8.89
-10.27
-11.71
-12.73
-12.90
-11.94
-9.85
-6.88
-3.47
-0.08
2.93
5.41
7.35
8.88
10.13
11.18
12.04
12.66
12.99
13.02
12.81
12.46
12.14
11.97
12.03
12.36
12.88
13.47
13.94
14.12
13.85
13.01
11.57
9.56
7.03
4.13
1.06
-2.00
-4.86
-7.41
-9.63
-11.59
-13.36
-14.97
-16.35
-17.36
-17.84
-17.69
-17.01
-16.01
-15.04
-14.44
-14.43
-15.11
-16.37
-17.94
-19.41
-20.30
-20.16
-18.71
-15.91
-12.04
-7.56
-3.06
0.95
4.15
6.47
7.95
8.79
9.15
9.17
8.92
8.50
7.97
7.46
7.07
6.85
6.85
7.02
7.33
7.76
8.28
8.88
9.47
9.89
10.01
9.70
8.95
7.82
6.42
4.87
3.23
1.58
-0.06
-1.64
-3.14
-4.56
-5.95
-7.36
-8.81
-10.25
-11.55
-12.61
-13.37
-13.94
-14.51
-15.30
-16.45
-17.85
-19.20
-20.00
-19.77
-18.18
-15.24
-11.22
-6.62
-1.95
2.34
5.97
8.79
10.74
11.84
12.12
11.72
10.87
9.87
9.01
8.51
8.46
8.77
9.26
9.75
10.11
10.30
10.37
10.36
10.28
10.08
9.67
9.01
8.13
7.13
6.12
5.16
4.23
3.29
2.26
1.16
0.01
-1.15
-2.28
-3.35
-4.38
-5.34
-6.24
-7.12
-8.08
-9.31
-10.93
-12.98
-15.26
-17.39
-18.84
-19.15
-18.06
-15.59
-12.04
-7.87
-3.54
0.53
4.06
6.89
8.91
10.16
10.70
10.72
10.44
10.11
9.94
10.03
10.43
11.11
11.97
12.85
13.57
13.95
13.86
13.23
12.16
10.76
9.24
7.73
6.28
4.85
3.36
1.75
0.04
-1.67
-3.24
-4.54
-5.50
-6.16
-6.60
-6.87
-6.97
-6.85
-6.47
-5.91
-5.31
-4.96
-5.13
-6.02
-7.66
-9.83
-12.14
-14.09
-15.18
-15.06
-13.60
-10.94
-7.43
-3.58
0.07
3.09
5.26
6.56
7.14
7.22
7.02
6.70
6.40
6.25
6.37
6.82
7.58
8.55
9.52
10.29
10.68
10.67
10.33
9.81
9.27
8.79
8.39
7.96
7.37
6.48
5.28
3.84
2.36
1.02
-0.06
-0.87
-1.53
-2.17
-2.89
-3.69
-4.51
-5.28
-6.02
-6.81
-7.76
-8.97
-10.43
-12.09
-13.83
-15.51
-16.97
-17.93
-18.09
-17.18
-15.05
-11.84
-7.91
-3.76
0.13
3.40
5.88
7.55
8.49
8.79
8.60
8.11
7.52
7.02
6.77
6.87
7.32
8.08
8.99
9.83
10.39
10.51
10.21
9.60
8.81
7.94
6.97
5.86
4.62
3.35
2.24
1.45
1.04
0.95
1.03
1.15
1.23
1.25
1.20
1.04
0.63
-0.18
-1.51
-3.44
-5.95
-9.01
-12.55
-16.42
-20.40
-24.11
-27.00
-28.50
-28.16
-25.86
-21.87
-16.79
-11.31
-5.98
-1.13
3.16
6.91
10.10
12.67
14.52
15.64
16.16
16.26
16.16
15.93
15.59
15.03
14.20
13.08
11.70
10.11
8.38
6.59
4.86
3.31
2.00
0.98
0.15
-0.57
-1.26
-1.87
-2.31
-2.46
-2.30
-1.92
-1.56
-1.45
-1.74
-2.44
-3.39
-4.36
-5.19
-5.84
-6.43
-7.14
-8.17
-9.58
-11.29
-13.10
-14.69
-15.79
-16.07
-15.34
-13.51
-10.64
-7.02
-3.04
0.83
4.19
6.80
8.61
9.74
10.36
10.63
10.63
10.40
9.97
9.41
8.81
8.33
8.05
8.00
8.03
7.99
7.70
7.11
6.29
5.37
4.45
3.53
2.54
1.39
0.12
-1.14
-2.18
-2.89
-3.28
-3.52
-3.80
-4.23
-4.77
-5.31
-5.73
-6.03
-6.29
-6.65
-7.19
-7.92
-8.78
-9.68
-10.54
-11.30
-11.88
-12.12
-11.77
-10.58
-8.37
-5.13
-1.11
3.24
7.36
10.75
13.08
14.27
14.49
14.06
13.34
12.65
12.17
11.94
11.91
11.97
12.02
12.00
11.87
11.61
11.23
10.73
10.12
9.41
8.66
7.91
7.16
6.35
5.39
4.22
2.85
1.40
0.03
-1.13
-2.07
-2.89
-3.77
-4.82
-6.03
-7.26
-8.29
-8.93
-9.15
-9.11
-9.07
-9.34
-10.09
-11.37
-12.94
-14.45
-15.42
-15.40
-14.04
-11.23
-7.10
-2.07
3.22
8.05
11.74
13.91
14.42
13.48
11.43
8.68
5.61
2.60
-0.02
-1.92
-2.93
-3.02
-2.39
-1.36
-0.22
0.85
1.74
2.40
2.70
2.47
1.56
-0.02
-2.12
-4.43
-6.64
-8.55
-10.10
-11.30
-12.17
-12.65
-12.67
-12.24
-11.51
-10.79
-10.44
-10.74
-11.78
-13.34
-14.95
-16.02
-15.96
-14.39
-11.26
-6.82
-1.61
3.66
8.25
11.50
12.94
12.41
10.11
6.63
2.82
-0.43
-2.41
-2.72
-1.38
1.24
4.60
8.12
11.28
13.75
15.33
15.99
15.85
15.13
14.09
13.02
12.14
11.57
11.28
11.10
10.81
10.20
9.22
7.92
6.49
5.09
3.80
2.60
1.42
0.18
-1.14
-2.53
-3.96
-5.37
-6.67
-7.67
-8.12
-7.78
-6.51
-4.38
-1.67
1.24
3.97
6.23
7.88
8.90
9.31
9.10
8.30
6.94
5.11
3.05
1.05
-0.56
-1.61
-2.09
-2.16
-2.06
-1.99
-2.04
-2.19
-2.37
-2.58
-2.85
-3.26
-3.86
-4.64
-5.56
-6.54
-7.55
-8.56
-9.57
-10.56
-11.56
-12.61
-13.77
-15.08
-16.53
-17.95
-19.04
-19.44
-18.83
-17.06
-14.19
-10.55
-6.58
-2.78
0.49
3.05
4.94
6.26
7.16
7.69
7.88
7.72
7.29
6.72
6.21
5.87
5.75
5.76
5.78
5.68
5.41
4.98
4.43
3.79
3.10
2.37
1.64
0.96
0.34
-0.22
-0.77
-1.34
-1.99
-2.74
-3.64
-4.71
-5.94
-7.29
-8.59
-9.69
-10.40
-10.55
-10.08
-8.97
-7.31
-5.23
-2.93
-0.65
1.38
3.04
4.30
5.21
5.87
6.37
6.72
6.92
6.96
6.87
6.72
6.60
6.52
6.43
6.14
5.47
4.26
2.51
0.36
-1.92
-4.03
-5.76
-7.07
-8.07
-8.95
-9.83
-10.75
-11.64
-12.40
-12.99
-13.39
-13.61
-13.52
-12.91
-11.48
-9.09
-5.82
-2.00
1.88
5.35
8.12
10.13
11.46
12.26
12.58
12.43
11.81
10.80
9.57
8.40
7.54
7.19
7.38
8.01
8.92
9.90
10.79
11.48
11.94
12.14
12.12
11.90
11.50
10.94
10.27
9.52
8.72
7.88
6.93
5.77
4.23
2.15
-0.56
-3.91
-7.77
-11.96
-16.17
-20.04
-23.14
-25.08
-25.57
-24.60
-22.35
-19.22
-15.61
-11.81
-7.96
-4.02
0.01
4.05
7.86
11.05
13.26
14.20
13.82
12.34
10.18
7.87
5.90
4.57
3.94
3.83
3.88
3.76
3.21
2.19
0.83
-0.64
-1.92
-2.75
-2.99
-2.61
-1.72
-0.53
0.73
1.80
2.50
2.68
2.26
1.21
-0.44
-2.62
-5.17
-7.95
-10.79
-13.51
-15.92
-17.84
-19.03
-19.27
-18.36
-16.22
-12.97
-8.92
-4.54
-0.29
3.47
6.57
9.07
11.10
12.82
14.30
15.48
16.25
16.52
16.29
15.67
14.87
14.07
13.43
12.97
12.65
12.36
11.98
11.42
10.65
9.63
8.38
6.96
5.46
4.00
2.67
1.54
0.59
-0.23
-1.01
-1.79
-2.54
-3.22
-3.79
-4.27
-4.77
-5.42
-6.36
-7.68
-9.41
-11.48
-13.71
-15.80
-17.33
-17.85
-17.00
-14.66
-11.04
-6.64
-2.11
1.95
5.17
7.44
8.92
9.86
10.49
10.99
11.39
11.69
11.84
11.82
11.66
11.41
11.15
10.98
10.93
11.00
11.11
11.15
11.03
10.70
10.17
9.50
8.72
7.87
6.96
6.02
5.09
4.23
3.46
2.74
2.02
1.21
0.29
-0.75
-1.84
-2.93
-3.98
-4.98
-5.92
-6.81
-7.71
-8.76
-10.09
-11.76
-13.60
-15.23
-16.11
-15.73
-13.87
-10.68
-6.66
-2.42
1.49
4.75
7.27
9.09
10.29
10.90
10.98
10.58
9.85
8.96
8.06
7.25
6.55
5.89
5.20
4.38
3.38
2.15
0.65
-1.11
-3.10
-5.24
-7.35
-9.26
-10.82
-11.96
-12.71
-13.19
-13.56
-13.92
-14.32
-14.76
-15.20
-15.61
-15.98
-16.32
-16.65
-17.05
-17.56
-18.23
-19.01
-19.74
-20.06
-19.62
-18.09
-15.36
-11.56
-7.03
-2.22
2.40
6.47
9.68
11.88
13.01
13.17
12.58
11.54
10.39
9.34
8.52
7.92
7.48
7.09
6.69
6.25
5.79
5.37
5.10
5.04
5.19
5.50
5.87
6.18
6.34
6.34
6.20
6.00
5.80
5.67
5.63
5.65
5.65
5.53
5.22
4.70
4.07
3.48
3.06
2.82
2.60
2.13
1.10
-0.65
-3.07
-5.89
-8.72
-11.14
-12.82
-13.54
-13.24
-12.01
-10.05
-7.66
-5.18
-2.94
-1.15
0.09
0.81
1.12
1.16
1.06
0.94
0.89
1.04
1.43
2.06
2.77
3.32
3.48
3.09
2.13
0.78
-0.72
-2.12
-3.24
-3.99
-4.32
-4.17
-3.52
-2.45
-1.10
0.23
1.25
1.71
1.53
0.77
-0.39
-1.78
-3.29
-4.91
-6.70
-8.76
-11.15
-13.84
-16.68
-19.35
-21.42
-22.41
-21.94
-19.86
-16.29
-11.55
-6.17
-0.69
4.37
8.59
11.68
13.51
14.17
13.90
13.04
11.91
10.70
9.44
8.10
6.71
5.42
4.48
4.10
4.42
5.37
6.76
8.30
9.72
10.78
11.30
11.20
10.53
9.42
8.13
6.86
5.74
4.78
3.90
3.05
2.25
1.53
0.91
0.32
-0.35
-1.24
-2.38
-3.74
-5.24
-6.82
-8.49
-10.20
-11.80
-12.99
-13.36
-12.54
-10.37
-7.00
-2.86
1.48
5.49
8.81
11.32
13.06
14.17
14.72
14.78
14.41
13.72
12.87
12.07
11.48
11.13
10.97
10.83
10.53
9.94
9.00
7.69
6.07
4.24
2.32
0.44
-1.33
-2.95
-4.40
-5.65
-6.64
-7.28
-7.49
-7.27
-6.69
-5.92
-5.12
-4.44
-4.00
-3.85
-4.06
-4.68
-5.76
-7.31
-9.28
-11.54
-13.88
-16.06
-17.75
-18.61
-18.31
-16.67
-13.72
-9.73
-5.16
-0.55
3.59
6.92
9.30
10.73
11.34
11.33
10.92
10.38
9.95
9.85
10.20
10.99
12.06
13.23
14.25
14.94
15.21
15.02
14.38
13.30
11.79
9.82
7.37
4.47
1.24
-2.18
-5.62
-8.92
-11.95
-14.60
-16.78
-18.47
-19.71
-20.61
-21.33
-22.01
-22.72
-23.37
-23.80
-23.85
-23.47
-22.75
-21.84
-20.89
-19.85
-18.47
-16.43
-13.50
-9.69
-5.30
-0.83
3.20
6.44
8.75
10.20
10.96
11.22
11.15
10.90
10.61
10.42
10.42
10.67
11.14
11.74
12.35
12.85
13.13
13.11
12.78
12.18
11.39
10.52
9.64
8.78
7.89
6.91
5.80
4.60
3.41
2.35
1.50
0.82
0.19
-0.55
-1.52
-2.70
-4.01
-5.34
-6.65
-8.04
-9.64
-11.48
-13.37
-14.89
-15.48
-14.71
-12.43
-8.89
-4.60
-0.20
3.78
6.98
9.29
10.73
11.36
11.27
10.53
9.26
7.64
6.00
4.65
3.91
3.90
4.50
5.45
6.40
7.11
7.51
7.69
7.82
7.98
8.16
8.24
8.04
7.48
6.54
5.34
4.00
2.64
1.31
0.03
-1.22
-2.45
-3.63
-4.72
-5.75
-6.80
-8.09
-9.85
-12.18
-14.98
-17.88
-20.37
-21.88
-22.06
-20.75
-18.09
-14.36
-9.96
-5.30
-0.81
3.10
6.08
7.95
8.73
8.61
7.96
7.11
6.35
5.87
5.72
5.92
6.44
7.23
8.19
9.20
10.10
10.72
10.93
10.59
9.68
8.30
6.62
4.91
3.39
2.18
1.22
0.37
-0.57
-1.71
-3.07
-4.60
-6.22
-7.87
-9.47
-10.95
-12.23
-13.28
-14.15
-14.93
-15.75
-16.62
-17.37
-17.67
-17.11
-15.34
-12.26
-7.99
-2.96
2.29
7.14
11.13
13.97
15.64
16.31
16.26
15.77
15.01
14.12
13.19
12.36
11.82
11.73
12.16
12.94
13.81
14.46
14.74
14.69
14.47
14.22
13.98
13.59
12.88
11.73
10.18
8.39
6.56
4.81
3.18
1.68
0.36
-0.65
-1.17
-1.08
-0.43
0.55
1.47
1.94
1.67
0.55
-1.28
-3.51
-5.69
-7.40
-8.28
-8.12
-6.94
-4.97
-2.61
-0.37
1.32
2.10
1.83
0.50
-1.72
-4.57
-7.71
-10.76
-13.33
-15.15
-16.08
-16.17
-15.65
-14.78
-13.84
-12.96
-12.20
-11.51
-10.86
-10.28
-9.82
-9.55
-9.51
-9.68
-9.98
-10.25
-10.31
-10.02
-9.28
-8.10
-6.64
-5.13
-3.84
-2.97
-2.65
-2.86
-3.48
-4.29
-5.06
-5.53
-5.44
-4.60
-2.96
-0.62
2.17
5.07
7.73
9.87
11.31
12.00
11.96
11.32
10.21
8.85
7.48
6.33
5.59
5.31
5.42
5.76
6.12
6.38
6.47
6.39
6.17
5.83
5.35
4.72
3.92
3.00
1.99
0.92
-0.18
-1.28
-2.34
-3.27
-4.04
-4.69
-5.34
-6.15
-7.26
-8.68
-10.31
-11.98
-13.49
-14.62
-15.15
-14.85
-13.54
-11.16
-7.86
-4.03
-0.17
3.26
5.96
7.83
8.97
9.49
9.54
9.19
8.53
7.70
6.89
6.30
6.03
6.09
6.34
6.64
6.88
7.03
7.12
7.16
7.11
6.82
6.18
5.09
3.60
1.86
0.08
-1.53
-2.83
-3.81
-4.52
-5.10
-5.63
-6.20
-6.84
-7.61
-8.57
-9.82
-11.39
-13.21
-15.01
-16.38
-16.83
-15.99
-13.69
-10.07
-5.55
-0.68
3.93
7.79
10.58
12.19
12.70
12.35
11.42
10.23
9.06
8.11
7.55
7.42
7.68
8.14
8.56
8.67
8.33
7.51
6.36
5.08
3.85
2.75
1.79
0.93
0.15
-0.55
-1.19
-1.82
-2.50
-3.30
-4.22
-5.24
-6.28
-7.30
-8.24
-9.10
-9.89
-10.62
-11.32
-12.01
-12.69
-13.24
-13.44
-12.99
-11.54
-8.88
-4.96
-0.00
5.53
11.06
15.96
19.78
22.23
23.27
23.03
21.77
19.84
17.58
15.32
13.27
11.53
10.10
8.90
7.82
6.81
5.84
4.97
4.21
3.54
2.89
2.18
1.34
0.34
-0.79
-1.99
-3.15
-4.17
-4.97
-5.55
-5.95
-6.21
-6.40
-6.54
-6.64
-6.74
-6.91
-7.27
-7.92
-8.95
-10.35
-12.01
-13.71
-15.13
-15.88
-15.62
-14.13
-11.43
-7.81
-3.72
0.29
3.78
6.47
8.27
9.24
9.52
9.31
8.82
8.26
7.83
7.66
7.80
8.24
8.91
9.67
10.33
10.68
10.59
10.00
9.00
7.76
6.48
5.32
4.33
3.46
2.60
1.67
0.59
-0.64
-1.95
-3.24
-4.41
-5.40
-6.19
-6.79
-7.25
-7.58
-7.87
-8.20
-8.73
-9.61
-10.91
-12.46
-13.94
-14.86
-14.78
-13.43
-10.81
-7.17
-2.88
1.58
5.71
9.08
11.33
12.36
12.27
11.42
10.23
9.08
8.17
7.52
7.08
6.78
6.63
6.72
7.07
7.60
8.12
8.38
8.22
7.61
6.69
5.64
4.63
3.77
3.03
2.40
1.84
1.35
0.93
0.60
0.31
0.00
-0.39
-0.90
-1.50
-2.15
-2.82
-3.45
-3.99
-4.40
-4.64
-4.69
-4.64
-4.51
-4.32
-3.95
-3.17
-1.74
0.48
3.35
6.52
9.47
11.79
13.27
13.97
14.11
13.96
13.64
13.16
12.44
11.44
10.21
8.88
7.60
6.47
5.46
4.47
3.40
2.13
0.59
-1.25
-3.39
-5.81
-8.49
-11.39
-14.45
-17.56
-20.50
-22.95
-24.60
-25.21
-24.73
-23.33
-21.40
-19.42
-17.85
-17.07
-17.24
-18.31
-20.06
-22.06
-23.78
-24.66
-24.26
-22.31
-18.79
-13.98
-8.33
-2.46
3.05
7.66
11.07
13.18
14.16
14.28
13.87
13.21
12.52
11.87
11.28
10.71
10.09
9.41
8.67
7.88
7.10
6.32
5.56
4.79
4.04
3.33
2.70
2.18
1.76
1.36
0.88
0.28
-0.43
-1.18
-1.89
-2.52
-3.12
-3.76
-4.50
-5.36
-6.28
-7.21
-8.16
-9.21
-10.42
-11.76
-13.04
-13.87
-13.81
-12.51
-9.96
-6.41
-2.41
1.46
4.69
7.05
8.53
9.24
9.34
8.97
8.22
7.26
6.24
5.39
4.90
4.86
5.25
5.91
6.64
7.21
7.50
7.42
7.01
6.33
5.49
4.59
3.69
2.85
2.07
1.37
0.76
0.22
-0.29
-0.82
-1.45
-2.26
-3.31
-4.66
-6.32
-8.28
-10.46
-12.70
-14.74
-16.33
-17.19
-17.12
-16.07
-14.11
-11.47
-8.51
-5.60
-3.06
-1.06
0.36
1.34
2.03
2.55
2.92
3.10
3.06
2.85
2.63
2.59
2.86
3.48
4.35
5.36
6.38
7.32
8.10
8.68
9.02
9.11
9.01
8.80
8.58
8.37
8.12
7.77
7.22
6.48
5.65
4.88
4.29
3.93
3.73
3.54
3.19
2.51
1.42
-0.11
-2.05
-4.24
-6.40
-8.14
-9.02
-8.68
-6.96
-4.03
-0.32
3.56
7.03
9.74
11.58
12.66
13.23
13.52
13.69
13.76
13.74
13.68
13.66
13.81
14.20
14.75
15.29
15.60
15.54
15.08
14.31
13.34
12.25
11.01
9.54
7.76
5.66
3.27
0.70
-1.93
-4.47
-6.81
-8.86
-10.59
-12.05
-13.30
-14.39
-15.30
-15.93
-16.26
-16.38
-16.54
-17.03
-18.05
-19.57
-21.29
-22.72
-23.40
-23.04
-21.59
-19.23
-16.30
-13.20
-10.28
-7.78
-5.85
-4.49
-3.61
-3.05
-2.68
-2.41
-2.16
-1.89
-1.55
-1.07
-0.44
0.37
1.34
2.44
3.62
4.80
5.84
6.54
6.70
6.19
5.10
3.75
2.66
2.35
3.11
4.85
7.07
9.06
10.11
9.82
8.14
5.37
1.99
-1.51
-4.74
-7.44
-9.49
-10.86
-11.64
-12.03
-12.28
-12.66
-13.39
-14.57
-16.08
-17.59
-18.61
-18.55
-16.94
-13.63
-8.82
-3.07
2.90
8.41
13.00
16.55
19.23
21.37
23.37
25.53
27.96
30.56
33.01
34.86
35.56
34.74
32.20
28.10
22.84
17.05
11.34
6.14
1.67
-2.11
-5.38
-8.32
-11.03
-13.47
-15.49
-16.91
-17.50
-17.13
-15.82
-13.74
-11.23
-8.74
-6.67
-5.26
-4.50
-4.19
-4.01
-3.63
-2.80
-1.38
0.72
3.49
6.83
10.49
14.07
17.11
19.25
20.31
20.37
19.63
18.37
16.80
15.07
13.28
11.48
9.72
8.03
6.39
4.79
3.16
1.46
-0.33
-2.20
-4.10
-5.95
-7.68
-9.20
-10.46
-11.42
-12.06
-12.38
-12.39
-12.09
-11.50
-10.64
-9.49
-8.07
-6.39
-4.50
-2.56
-0.86
0.30
0.64
0.06
-1.32
-3.15
-5.00
-6.43
-7.16
-7.12
-6.43
-5.34
-4.15
-3.07
-2.26
-1.79
-1.64
-1.73
-1.97
-2.26
-2.49
-2.62
-2.64
-2.58
-2.48
-2.31
-2.01
-1.49
-0.67
0.44
1.76
3.12
4.38
5.44
6.30
7.00
7.62
8.19
8.65
8.87
8.65
7.84
6.31
4.10
1.33
-1.73
-4.79
-7.57
-9.94
-11.91
-13.65
-15.33
-17.06
-18.84
-20.51
-21.86
-22.65
-22.69
-21.82
-20.03
-17.42
-14.23
-10.84
-7.63
-4.90
-2.76
-1.19
-0.07
0.72
1.24
1.59
1.84
2.13
2.58
3.25
4.07
4.86
5.40
5.49
5.05
4.16
3.02
1.95
1.27
1.27
2.09
3.72
5.98
8.59
11.16
13.30
14.70
15.15
14.66
13.43
11.74
9.90
8.06
6.22
4.20
1.79
-1.20
-4.82
-8.93
-13.22
-17.25
-20.53
-22.65
-23.37
-22.63
-20.60
-17.66
-14.32
-11.14
-8.66
-7.25
-7.02
-7.74
-8.91
-9.87
-10.10
-9.29
-7.45
-4.85
-1.79
1.42
4.56
7.37
9.55
10.74
10.64
9.21
6.79
4.07
1.82
0.67
0.85
2.13
3.99
5.82
7.11
7.57
7.07
5.66
3.51
0.93
-1.63
-3.71
-4.86
-4.88
-3.81
-1.93
0.35
2.65
4.74
6.50
7.95
9.11
9.99
10.51
10.58
10.16
9.33
8.36
7.69
7.79
9.02
11.50
14.99
18.93
22.63
25.41
26.78
26.56
24.80
21.81
17.93
13.59
9.25
5.32
2.24
0.33
-0.26
0.33
1.78
3.58
5.20
6.25
6.51
5.96
4.73
3.02
1.00
-1.18
-3.45
-5.76
-8.08
-10.36
-12.47
-14.33
-15.84
-17.01
-17.89
-18.48
-18.70
-18.31
-17.05
-14.75
-11.48
-7.55
-3.43
0.52
4.22
7.88
11.88
16.56
22.07
28.34
35.25
42.78
51.01
60.01
69.73
80.06
90.90
102.28
114.20
126.39
137.98
147.47
153.05
153.15
146.97
134.60
116.91
95.20
70.93
45.64
20.88
-1.94
-21.81
-38.47
-52.44
-64.80
-76.58
-88.40
-100.26
-111.80
-122.60
-132.49
-141.45
-149.40
-155.88
-160.03
-160.84
-157.59
-150.13
-139.04
-125.40
-110.48
-95.37
-80.94
-67.76
-56.28
-46.81
-39.52
-34.48
-31.59
-30.63
-31.21
-32.83
-34.66
-35.67
-34.93
-31.93
-26.93
-20.95
-15.41
-11.63
-10.48
-12.01
-15.76
-21.07
-27.37
-34.25
-41.18
-47.27
-51.37
-52.67
-50.82
-46.25
-40.03
-33.40
-27.23
-21.81
-16.93
-12.10
-7.19
-1.89
4.14
11.12
19.05
27.41
35.14
41.18
46.85
52.94
60.30
69.45
80.38
92.46
105.26
117.44
127.23
133.17
132.83
125.53
112.20
95.07
77.05
60.95
48.78
41.54
39.09
39.91
42.01
43.18
41.71
36.90
29.23
19.93
10.37
1.38
-7.24
-16.02
-25.41
-35.21
-44.46
-51.80
-56.15
-57.24
-55.73
-53.04
-50.55
-49.12
-48.77
-48.76
-47.89
-45.04
-39.55
-31.43
-21.27
-9.87
2.02
13.85
25.25
35.93
45.62
54.05
61.08
66.77
71.26
74.55
76.37
76.20
73.56
68.31
60.81
51.88
42.49
33.43
25.11
17.56
10.51
3.57
-3.49
-10.56
-16.96
-21.57
-23.07
-20.52
-13.78
-3.76
7.84
19.09
28.33
34.59
37.43
36.78
32.69
25.42
15.63
4.48
-6.55
-16.04
-23.09
-27.61
-30.13
-31.41
-32.13
-32.66
-33.16
-33.66
-34.32
-35.23
-36.42
-37.61
-38.35
-38.11
-36.54
-33.74
-30.22
-26.86
-24.58
-24.11
-25.73
-29.24
-33.98
-39.04
-43.47
-46.51
-47.83
-47.67
-46.84
-46.49
-47.75
-51.37
-57.43
-65.39
-74.34
-83.33
-91.67
-98.96
-105.02
-109.66
-112.69
-113.85
-112.98
-110.06
-105.26
-98.85
-91.02
-81.85
-71.24
-59.05
-45.28
-30.38
-15.40
-1.83
8.70
14.97
16.59
14.06
8.66
1.93
-4.67
-10.01
-13.40
-14.54
-13.47
-10.62
-6.61
-2.11
2.39
6.82
11.53
17.16
24.32
33.29
43.92
55.68
67.90
79.87
90.93
100.42
107.58
111.64
112.10
109.08
103.47
96.93
91.40
88.49
88.89
92.17
97.05
101.99
105.77
107.90
108.63
108.59
108.49
108.78
109.61
110.90
112.54
114.48
116.78
119.49
122.53
125.63
128.39
130.30
130.90
129.83
126.78
121.53
114.00
104.19
92.29
78.61
63.56
47.65
31.42
15.44
0.27
-13.70
-26.29
-37.54
-47.67
-56.85
-65.15
-72.42
-78.46
-83.21
-86.80
-89.60
-92.07
-94.56
-97.21
-99.86
-102.15
-103.59
-103.71
-102.21
-99.07
-94.54
-89.10
-83.29
-77.56
-72.18
-67.29
-62.96
-59.27
-56.30
-54.01
-52.19
-50.45
-48.35
-45.56
-41.96
-37.75
-33.27
-28.92
-24.95
-21.47
-18.43
-15.74
-13.32
-11.15
-9.24
-7.62
-6.33
-5.37
-4.78
-4.56
-4.67
-5.02
-5.52
-6.08
-6.68
-7.38
-8.23
-9.29
-10.58
-12.08
-13.77
-15.61
-17.45
-18.99
-19.84
-19.51
-17.68
-14.31
-9.72
-4.47
0.77
5.45
9.18
11.76
13.13
13.31
12.41
10.64
8.32
5.84
3.60
1.89
0.85
0.47
0.59
0.99
1.42
1.69
1.70
1.45
1.08
0.80
0.75
0.99
1.45
1.97
2.46
2.91
3.45
4.21
5.28
6.60
8.01
9.26
10.15
10.54
10.37
9.60
8.20
6.23
3.84
1.34
-0.81
-2.11
-2.12
-0.62
2.30
6.23
10.51
14.43
17.41
19.11
19.47
18.62
16.81
14.30
11.35
8.27
5.38
2.98
1.24
0.24
-0.12
-0.09
0.01
-0.16
-0.77
-1.87
-3.42
-5.36
-7.55
-9.85
-12.26
-14.79
-17.43
-20.02
-22.28
-24.10
-25.52
-26.74
-27.98
-29.63
-31.89
-34.76
-37.94
-41.04
-43.94
-46.75
-49.59
-52.21
-54.41
-55.55
-54.78
-50.92
-42.89
-30.17
-13.09
7.50
30.46
54.09
76.55
94.42
104.69
107.00
103.27
95.92
86.96
79.64
74.04
70.01
67.37
65.69
64.28
62.08
56.83
46.33
30.69
11.76
-7.58
-24.85
-39.05
-50.13
-58.46
-64.35
-67.59
-67.77
-65.12
-61.75
-57.94
-54.03
-50.18
-46.54
-43.19
-40.03
-36.98
-34.36
-32.45
-31.22
-30.61
-29.56
-27.35
-23.53
-17.96
-10.90
-3.14
4.44
11.17
16.53
20.33
22.61
23.55
23.39
22.42
20.84
18.93
17.12
15.72
14.97
14.96
15.58
16.63
17.83
18.87
19.49
19.59
19.08
17.98
16.30
14.19
11.83
9.44
7.20
5.27
3.71
2.47
1.44
0.52
-0.38
-1.28
-2.14
-2.96
-3.74
-4.55
-5.49
-6.69
-8.25
-10.22
-12.49
-14.75
-16.50
-17.14
-16.18
-13.45
-9.18
-3.95
1.51
6.57
10.79
13.99
16.06
16.97
16.71
15.39
13.33
11.04
9.09
7.90
7.63
8.14
9.11
10.19
11.15
11.91
12.47
12.85
13.04
12.95
12.53
11.76
10.72
9.54
8.37
7.32
6.44
5.72
5.13
4.61
4.16
3.78
3.49
3.31
3.20
3.07
2.75
2.05
0.80
-1.05
-3.37
-5.86
-8.02
-9.34
-9.32
-7.71
-4.58
-0.41
4.01
7.78
10.18
10.84
9.82
7.45
4.18
0.39
-3.67
-7.74
-11.53
-14.69
-16.87
-17.92
-17.92
-17.19
-16.12
-14.96
-13.78
-12.53
-11.11
-9.52
-7.89
-6.38
-5.11
-4.12
-3.34
-2.70
-2.17
-1.73
-1.39
-1.15
-1.00
-0.92
-0.95
-1.11
-1.44
-1.90
-2.43
-2.95
-3.44
-4.02
-4.91
-6.33
-8.40
-10.98
-13.60
-15.58
-16.20
-14.98
-11.86
-7.24
-1.89
3.36
7.83
11.16
13.28
14.35
14.56
14.10
13.13
11.89
10.66
9.77
9.48
9.88
10.85
12.08
13.22
13.97
14.22
13.98
13.35
12.41
11.18
9.62
7.66
5.23
2.41
-0.66
-3.80
-6.82
-9.60
-12.15
-14.52
-16.78
-18.93
-20.89
-22.50
-23.62
-24.17
-24.24
-24.06
-23.98
-24.32
-25.27
-26.72
-28.24
-29.17
-28.81
-26.70
-22.72
-17.11
-10.46
-3.41
3.44
9.66
15.00
19.44
23.11
26.21
28.95
31.41
33.57
35.28
36.35
36.68
36.36
35.59
34.70
33.96
33.57
33.58
33.94
34.55
35.27
35.95
36.43
36.50
35.92
34.52
32.20
29.04
25.21
20.99
16.67
12.43
8.34
4.38
0.44
-3.57
-7.74
-12.09
-16.53
-20.82
-24.59
-27.39
-28.85
-28.76
-27.19
-24.41
-20.85
-16.98
-13.23
-9.93
-7.37
-5.73
-5.09
-5.44
-6.57
-8.12
-9.64
-10.65
-10.85
-10.17
-8.74
-6.88
-4.92
-3.15
-1.73
-0.71
-0.03
0.40
0.70
1.01
1.46
2.09
2.83
3.52
3.94
3.90
3.34
2.31
1.00
-0.41
-1.80
-3.15
-4.50
-5.98
-7.71
-9.75
-12.03
-14.28
-16.12
-17.01
-16.47
-14.23
-10.31
-5.12
0.69
6.38
11.29
15.01
17.38
18.45
18.39
17.46
15.91
14.01
11.99
10.02
8.23
6.62
5.16
3.79
2.46
1.14
-0.15
-1.40
-2.59
-3.72
-4.78
-5.75
-6.64
-7.43
-8.11
-8.67
-9.11
-9.45
-9.72
-9.96
-10.18
-10.38
-10.56
-10.71
-10.88
-11.14
-11.62
-12.43
-13.67
-15.31
-17.21
-19.06
-20.45
-20.95
-20.20
-18.01
-14.42
-9.73
-4.44
0.83
5.48
9.07
11.37
12.44
12.54
12.08
11.48
11.08
11.10
11.70
12.89
14.61
16.69
18.87
20.86
22.40
23.32
23.59
23.23
22.31
20.90
19.07
16.91
14.58
12.26
10.11
8.18
6.42
4.70
2.88
0.98
-0.89
-2.50
-3.65
-4.23
-4.31
-4.09
-3.87
-3.91
-4.41
-5.39
-6.73
-8.14
-9.19
-9.47
-8.65
-6.61
-3.50
0.33
4.38
8.16
11.26
13.38
14.35
14.10
12.68
10.28
7.20
3.81
0.53
-2.26
-4.30
-5.43
-5.65
-5.05
-3.88
-2.39
-0.85
0.60
1.92
3.21
4.55
5.96
7.35
8.58
9.60
10.41
11.13
11.87
12.61
13.24
13.56
13.47
12.99
12.29
11.56
10.89
10.20
9.23
7.69
5.34
2.09
-1.94
-6.45
-11.02
-15.18
-18.48
-20.65
-21.54
-21.19
-19.78
-17.58
-14.94
-12.25
-9.89
-8.05
-6.72
-5.66
-4.58
-3.27
-1.81
-0.54
0.14
-0.05
-1.05
-2.50
-3.89
-4.72
-4.67
-3.54
-1.24
2.30
7.04
12.76
18.87
24.48
28.56
30.19
28.88
24.71
18.31
10.65
2.74
-4.54
-10.63
-15.22
-18.24
-19.75
-19.94
-19.10
-17.65
-16.11
-15.04
-14.94
-16.07
-18.34
-21.26
-24.08
-25.98
-26.36
-24.98
-22.05
-18.01
-13.41
-8.72
-4.29
-0.44
2.53
4.28
4.52
3.21
0.65
-2.51
-5.42
-7.23
-7.32
-5.54
-2.11
2.40
7.28
11.88
15.68
18.35
19.73
19.75
18.51
16.20
13.23
10.10
7.35
5.38
4.40
4.44
5.38
7.13
9.63
12.82
16.50
20.16
23.07
24.39
23.42
19.90
14.06
6.59
-1.58
-9.41
-15.97
-20.51
-22.51
-21.80
-18.62
-13.56
-7.48
-1.27
4.28
8.66
11.60
13.05
13.11
11.96
9.88
7.16
4.12
1.06
-1.82
-4.35
-6.45
-8.04
-9.05
-9.43
-9.18
-8.36
-7.10
-5.61
-4.14
-2.94
-2.23
-2.11
-2.53
-3.31
-4.21
-4.99
-5.51
-5.76
-5.84
-5.87
-6.04
-6.50
-7.39
-8.76
-10.57
-12.59
-14.46
-15.73
-15.97
-14.97
-12.75
-9.67
-6.24
-3.03
-0.48
1.16
1.89
1.85
1.23
0.25
-0.93
-2.11
-3.05
-3.50
-3.28
-2.40
-1.10
0.22
1.19
1.58
1.45
1.00
0.49
0.05
-0.37
-0.99
-2.01
-3.56
-5.61
-8.00
-10.52
-12.92
-14.99
-16.56
-17.48
-17.67
-17.12
-15.96
-14.45
-12.91
-11.67
-10.90
-10.54
-10.26
-9.59
-8.15
-5.79
-2.67
0.84
4.39
7.74
10.87
13.84
16.68
19.25
21.30
22.59
23.05
22.81
22.16
21.47
20.95
20.69
20.57
20.41
20.02
19.28
18.15
16.68
14.92
13.00
11.04
9.18
7.54
6.16
5.00
3.93
2.79
1.49
-0.01
-1.63
-3.27
-4.85
-6.43
-8.09
-9.96
-11.99
-13.92
-15.32
-15.68
-14.64
-12.12
-8.36
-3.80
1.04
5.66
9.66
12.73
14.70
15.54
15.38
14.48
13.18
11.74
10.31
8.90
7.49
6.08
4.71
3.44
2.32
1.34
0.48
-0.34
-1.13
-1.95
-2.79
-3.66
-4.54
-5.37
-6.11
-6.72
-7.20
-7.60
-7.96
-8.32
-8.67
-8.99
-9.27
-9.53
-9.83
-10.27
-10.97
-12.06
-13.60
-15.58
-17.80
-19.93
-21.53
-22.18
-21.57
-19.63
-16.54
-12.68
-8.58
-4.73
-1.53
0.79
2.24
2.98
3.30
3.53
3.88
4.40
4.97
5.36
5.42
5.17
4.81
4.67
5.02
5.98
7.40
8.98
10.40
11.47
12.18
12.62
12.91
13.00
12.78
12.13
11.13
10.14
9.73
10.48
12.57
15.68
18.98
21.44
22.24
21.05
18.06
13.78
8.77
3.47
-1.74
-6.45
-10.14
-12.28
-12.56
-11.10
-8.50
-5.59
-3.17
-1.63
-0.98
-0.93
-1.13
-1.39
-1.65
-1.94
-2.24
-2.44
-2.42
-2.14
-1.66
-1.17
-0.80
-0.61
-0.53
-0.41
-0.11
0.43
1.14
1.88
2.47
2.76
2.65
2.14
1.40
0.67
0.25
0.35
1.04
2.19
3.55
4.86
5.93
6.74
7.38
7.98
8.56
8.99
8.96
8.18
6.56
4.30
1.99
0.41
0.33
2.22
6.12
11.62
17.92
24.07
29.08
32.17
32.85
31.05
27.13
21.73
15.61
9.50
3.89
-0.99
-5.11
-8.58
-11.56
-14.12
-16.32
-18.10
-19.38
-20.08
-20.13
-19.52
-18.29
-16.53
-14.44
-12.25
-10.25
-8.69
-7.73
-7.42
-7.67
-8.36
-9.36
-10.52
-11.65
-12.40
-12.29
-10.75
-7.39
-2.18
4.41
11.51
18.07
23.21
26.48
27.87
27.74
26.59
24.82
22.71
20.38
17.82
14.90
11.45
7.21
1.99
-4.18
-10.96
-17.73
-23.76
-28.48
-31.63
-33.29
-33.82
-33.62
-32.98
-32.03
-30.67
-28.72
-25.96
-22.18
-17.24
-11.10
-4.06
3.37
10.50
16.75
21.64
24.99
26.81
27.22
26.43
24.70
22.62
21.03
20.60
21.29
22.26
22.05
19.35
13.63
5.25
-4.34
-13.09
-19.21
-21.80
-20.89
-17.30
-12.22
-7.09
-3.94
-4.50
-9.57
-18.74
-30.47
-42.51
-52.80
-59.92
-63.58
-65.25
-66.66
-68.59
-70.47
-70.81
-67.92
-61.03
-50.57
-34.36
-13.79
6.79
22.64
31.78
34.51
34.14
33.12
32.85
33.84
36.27
40.02
44.98
50.68
55.81
58.54
57.10
50.85
40.72
28.43
16.24
6.28
-0.23
-3.32
-3.78
-2.56
-0.04
3.88
9.04
14.85
20.41
24.77
27.28
27.90
27.03
25.21
22.60
18.58
12.21
2.83
-9.45
-23.55
-37.59
-49.37
-56.91
-58.97
-55.44
-47.29
-36.22
-24.24
-13.08
-3.78
3.39
8.68
12.64
15.73
18.38
20.83
22.94
24.46
25.13
24.82
23.63
21.96
20.18
18.60
17.12
14.85
10.99
5.44
-1.00
-6.97
-11.00
-12.35
-11.03
-7.70
-4.09
-1.70
-1.24
-2.80
-6.45
-12.29
-20.91
-32.48
-46.31
-61.75
-77.30
-90.89
-100.52
-105.29
-105.12
-101.24
-95.18
-82.29
-61.60
-36.45
-12.82
4.65
12.36
12.86
8.77
2.01
-6.47
-15.88
-25.98
-36.33
-46.08
-54.40
-59.98
-61.91
-59.37
-52.16
-41.20
-28.09
-14.41
-0.34
12.35
21.81
26.75
27.50
25.51
22.63
21.68
24.43
32.46
46.59
67.09
92.95
122.61
150.85
172.95
185.50
187.23
179.42
164.86
146.96
128.36
110.60
94.15
79.46
66.89
56.58
48.24
40.75
32.65
22.64
10.31
-3.76
-17.81
-29.93
-38.84
-44.17
-46.55
-47.12
-47.10
-47.25
-47.87
-48.50
-48.35
-46.89
-44.04
-40.28
-36.40
-33.08
-30.53
-28.57
-26.74
-24.76
-22.72
-21.03
-20.05
-19.89
-20.30
-20.89
-21.37
-21.62
-21.75
-21.83
-21.75
-21.07
-19.21
-15.69
-10.36
-3.53
4.16
11.96
19.17
25.30
30.07
33.39
35.32
35.99
35.57
34.30
32.42
30.22
27.95
25.83
23.99
22.45
21.06
19.53
17.56
14.96
11.71
7.99
4.05
0.13
-3.69
-7.38
-11.11
-14.93
-18.75
-22.32
-25.36
-27.73
-29.41
-30.58
-31.41
-32.29
-33.46
-35.03
-36.94
-39.08
-41.21
-42.89
-43.55
-42.59
-40.08
-36.45
-32.36
-28.53
-25.62
-24.04
-23.77
-24.46
-25.46
-26.85
-28.86
-31.60
-35.06
-39.17
-43.70
-48.16
-51.78
-53.41
-52.99
-50.86
-47.50
-43.41
-39.06
-34.97
-31.49
-28.92
-22.71
-11.51
3.06
18.20
32.40
45.83
58.75
70.66
80.39
87.86
93.47
98.27
103.82
111.41
121.02
130.85
138.63
138.99
130.24
114.21
95.72
79.47
67.48
58.69
49.50
37.27
21.63
4.72
-11.23
-24.89
-36.51
-47.81
-57.76
-66.39
-73.32
-77.81
-78.66
-75.53
-69.07
-60.79
-52.46
-45.48
-40.93
-38.86
-38.58
-38.85
-38.81
-38.19
-37.30
-36.61
-36.42
-37.04
-38.27
-39.61
-40.37
-39.95
-38.01
-34.44
-29.32
-22.89
-15.72
-8.39
-1.45
4.69
9.71
13.40
15.62
16.38
15.84
14.23
11.99
9.66
7.79
6.77
6.78
7.71
9.22
10.85
12.13
12.78
12.74
12.14
11.21
10.10
8.86
7.40
5.62
3.43
0.87
-1.86
-4.48
-6.76
-8.58
-9.96
-11.07
-12.15
-13.45
-15.24
-17.71
-20.96
-24.89
-29.08
-32.83
-35.26
-35.51
-33.08
-27.95
-20.70
-12.30
-3.87
3.60
9.48
13.50
15.73
16.45
15.98
14.71
12.95
11.04
9.31
8.00
7.28
7.16
7.55
8.31
9.34
10.61
12.12
13.91
15.99
18.28
20.66
22.98
25.11
26.90
28.24
29.00
29.04
28.24
26.54
23.99
20.76
17.15
13.47
9.93
6.59
3.26
-0.40
-4.69
-9.81
-15.63
-21.71
-27.29
-31.48
-33.44
-32.65
-29.03
-23.07
-15.68
-7.96
-0.97
4.61
8.55
10.98
12.25
12.72
12.61
12.06
11.18
10.15
9.25
8.77
8.86
9.49
10.44
11.41
12.18
12.69
13.01
13.20
13.28
13.11
12.52
11.36
9.63
7.52
5.28
3.19
1.43
0.04
-1.09
-2.13
-3.25
-4.56
-6.08
-7.68
-9.23
-10.58
-11.69
-12.64
-13.64
-14.95
-16.77
-19.18
-21.99
-24.78
-26.89
-27.60
-26.27
-22.62
-16.79
-9.43
-1.48
6.04
12.36
17.08
20.17
21.82
22.31
21.85
20.62
18.91
17.07
15.56
14.76
14.83
15.59
16.67
17.65
18.25
18.43
18.34
18.17
18.02
17.85
17.46
16.68
15.38
13.63
11.57
9.48
7.60
6.10
5.02
4.25
3.59
2.79
1.65
0.12
-1.73
-3.70
-5.55
-7.15
-8.43
-9.45
-10.35
-11.31
-12.51
-14.06
-15.92
-17.87
-19.42
-19.97
-18.99
-16.17
-11.65
-5.91
0.30
6.28
11.49
15.61
18.51
20.14
20.48
19.63
17.82
15.41
12.91
10.76
9.28
8.59
8.58
9.00
9.55
9.98
10.14
10.00
9.60
9.05
8.41
7.70
6.90
5.96
4.89
3.75
2.64
1.64
0.83
0.19
-0.33
-0.85
-1.50
-2.44
-3.77
-5.54
-7.66
-9.91
-12.07
-13.98
-15.62
-17.13
-18.75
-20.66
-22.92
-25.33
-27.56
-29.18
-29.76
-29.04
-26.92
-23.50
-19.10
-14.20
-9.35
-5.07
-1.73
0.51
1.70
2.01
1.69
0.99
0.16
-0.53
-0.85
-0.58
0.32
1.76
3.50
5.26
6.82
8.07
9.02
9.72
10.22
10.52
10.58
10.34
9.79
8.99
8.07
7.17
6.42
5.86
5.44
5.06
4.60
3.96
3.10
2.05
0.85
-0.43
-1.68
-2.79
-3.69
-4.42
-5.13
-6.09
-7.54
-9.58
-12.04
-14.50
-16.32
-16.92
-15.91
-13.32
-9.51
-5.08
-0.65
3.29
6.43
8.68
10.00
10.48
10.20
9.35
8.16
6.89
5.80
5.07
4.83
5.14
5.96
7.19
8.59
9.89
10.82
11.20
10.96
10.15
8.88
7.27
5.45
3.55
1.68
-0.04
-1.53
-2.84
-4.05
-5.36
-6.93
-8.77
-10.79
-12.68
-14.16
-15.02
-15.27
-15.17
-15.05
-15.26
-15.94
-17.04
-18.25
-19.13
-19.21
-18.06
-15.48
-11.51
-6.52
-1.10
4.10
8.50
11.79
13.90
14.93
15.05
14.45
13.31
11.83
10.25
8.79
7.57
6.66
6.04
5.66
5.48
5.48
5.59
5.73
5.79
5.63
5.17
4.37
3.26
1.90
0.42
-1.01
-2.23
-3.12
-3.70
-4.10
-4.54
-5.21
-6.17
-7.34
-8.52
-9.52
-10.27
-10.84
-11.38
-12.08
-13.11
-14.56
-16.39
-18.40
-20.24
-21.43
-21.51
-20.19
-17.46
-13.64
-9.23
-4.80
-0.83
2.35
4.64
6.04
6.69
6.76
6.40
5.78
4.98
4.12
3.37
2.91
2.93
3.47
4.38
5.39
6.18
6.60
6.67
6.57
6.46
6.38
6.22
5.79
5.05
4.11
3.23
2.69
2.62
2.92
3.27
3.34
2.93
2.03
0.82
-0.46
-1.59
-2.52
-3.37
-4.37
-5.76
-7.67
-10.01
-12.54
-14.83
-16.40
-16.88
-16.00
-13.76
-10.34
-6.13
-1.63
2.63
6.21
8.78
10.24
10.62
10.10
8.93
7.39
5.74
4.22
3.05
2.33
2.14
2.43
3.11
4.03
5.01
5.91
6.56
6.89
6.90
6.65
6.22
5.68
5.12
4.56
4.03
3.57
3.17
2.81
2.41
1.88
1.14
0.18
-0.95
-2.10
-3.14
-3.96
-4.52
-4.92
-5.37
-6.15
-7.49
-9.46
-11.84
-14.11
-15.55
-15.48
-13.53
-9.80
-4.81
0.63
5.73
9.88
12.80
14.47
15.03
14.72
13.78
12.46
11.04
9.80
9.03
8.90
9.38
10.25
11.05
11.33
10.78
9.40
7.49
5.54
3.95
2.89
2.25
1.75
1.15
0.38
-0.49
-1.33
-2.11
-2.87
-3.70
-4.61
-5.51
-6.25
-6.74
-7.00
-7.17
-7.43
-7.92
-8.64
-9.56
-10.62
-11.87
-13.30
-14.80
-16.08
-16.67
-16.08
-13.99
-10.41
-5.73
-0.59
4.35
8.59
11.87
14.18
15.58
16.18
16.01
15.14
13.71
12.03
10.49
9.50
9.28
9.81
10.88
12.10
13.16
13.88
14.22
14.27
14.08
13.70
13.07
12.16
10.95
9.53
8.05
6.66
5.43
4.34
3.32
2.27
1.15
-0.02
-1.12
-2.05
-2.79
-3.39
-4.04
-4.99
-6.47
-8.63
-11.39
-14.44
-17.26
-19.23
-19.80
-18.63
-15.71
-11.35
-6.11
-0.67
4.30
8.33
11.14
12.68
13.12
12.71
11.75
10.50
9.21
8.06
7.21
6.81
6.92
7.50
8.40
9.37
10.20
10.71
10.85
10.64
10.12
9.32
8.26
6.98
5.58
4.21
2.98
1.94
1.05
0.27
-0.44
-1.04
-1.50
-1.80
-2.01
-2.25
-2.62
-3.18
-3.92
-4.87
-6.17
-8.00
-10.46
-13.39
-16.30
-18.41
-18.99
-17.51
-13.97
-8.80
-2.76
3.32
8.79
13.23
16.48
18.56
19.61
19.78
19.32
18.51
17.65
17.05
16.88
17.17
17.78
18.47
19.01
19.22
19.03
18.44
17.44
16.03
14.18
11.92
9.32
6.50
3.57
0.58
-2.49
-5.71
-9.13
-12.76
-16.53
-20.26
-23.73
-26.69
-28.89
-30.16
-30.46
-29.96
-28.95
-27.88
-27.07
-26.68
-26.56
-26.27
-25.27
-23.10
-19.56
-14.77
-9.20
-3.48
1.78
6.10
9.20
11.06
11.79
11.60
10.74
9.43
7.96
6.57
5.54
5.08
5.25
6.00
7.08
8.20
9.06
9.46
9.33
8.74
7.84
6.79
5.70
4.60
3.41
2.03
0.39
-1.45
-3.34
-5.05
-6.44
-7.45
-8.18
-8.82
-9.60
-10.70
-12.24
-14.26
-16.63
-19.03
-20.97
-21.83
-21.09
-18.47
-14.08
-8.40
-2.17
3.82
8.93
12.73
15.07
16.00
15.68
14.39
12.44
10.25
8.22
6.72
5.99
6.05
6.78
7.87
8.97
9.80
10.16
10.01
9.42
8.56
7.59
6.61
5.58
4.41
3.01
1.36
-0.43
-2.16
-3.65
-4.84
-5.79
-6.70
-7.76
-9.14
-10.95
-13.23
-15.90
-18.73
-21.28
-22.96
-23.19
-21.59
-18.17
-13.33
-7.75
-2.16
2.86
6.96
10.01
11.99
12.98
13.04
12.34
11.10
9.62
8.26
7.31
6.98
7.29
8.09
9.16
10.23
11.12
11.70
11.96
11.90
11.53
10.83
9.78
8.37
6.63
4.62
2.42
0.13
-2.13
-4.21
-5.96
-7.27
-8.14
-8.74
-9.34
-10.26
-11.73
-13.85
-16.43
-19.11
-21.32
-22.43
-21.95
-19.62
-15.55
-10.24
-4.43
1.09
5.69
9.02
11.05
11.93
11.93
11.31
10.36
9.35
8.55
8.18
8.32
8.91
9.71
10.46
10.88
10.81
10.19
9.08
7.61
5.95
4.24
2.58
1.02
-0.42
-1.70
-2.75
-3.49
-3.91
-4.07
-4.12
-4.22
-4.45
-4.76
-4.99
-5.04
-4.93
-4.82
-5.04
-5.89
-7.51
-9.78
-12.32
-14.55
-15.84
-15.68
-13.82
-10.31
-5.51
0.02
5.67
10.81
14.93
17.69
18.97
18.91
17.90
16.45
15.08
14.14
13.73
13.75
14.02
14.40
14.82
15.26
15.67
15.89
15.75
15.10
13.94
12.37
10.58
8.81
7.20
5.85
4.82
4.11
3.70
3.50
3.42
3.40
3.38
3.36
3.29
2.98
2.18
0.64
-1.75
-4.87
-8.43
-12.06
-15.42
-18.28
-20.42
-21.66
-21.78
-20.64
-18.29
-15.05
-11.50
-8.22
-5.71
-4.18
-3.62
-3.87
-4.68
-5.84
-7.17
-8.55
-9.72
-10.42
-10.45
-9.77
-8.54
-7.03
-5.62
-4.66
-4.53
-5.16
-6.24
-7.39
-8.34
-9.00
-9.38
-9.59
-9.75
-10.29
-11.13
-12.13
-13.20
-14.36
-15.61
-16.80
-17.67
-17.95
-17.92
-17.19
-15.20
-11.38
-5.31
3.15
13.90
26.69
41.42
55.45
66.71
74.15
78.11
79.18
77.31
71.96
63.10
54.05
45.06
36.76
29.57
23.33
17.48
11.58
5.71
-0.21
-5.52
-10.17
-13.90
-16.79
-19.25
-21.79
-24.57
-27.27
-29.18
-29.51
-28.26
-25.43
-21.41
-16.85
-12.47
-8.87
-6.44
-5.27
-5.14
-5.85
-6.71
-6.95
-6.05
-3.92
-0.95
2.16
4.74
6.28
6.42
5.11
2.54
-0.81
-4.16
-6.37
-6.27
-3.03
3.45
12.27
21.85
30.41
36.62
39.94
40.66
39.53
37.28
34.36
30.97
27.23
23.38
19.78
16.72
14.23
12.09
10.03
7.99
6.28
5.41
5.71
7.06
8.81
10.10
10.33
9.58
8.55
8.28
9.56
12.59
16.79
21.05
