1563883747.00
64.000000
-0.00
-0.00
-0.00
-0.00
-0.00
-0.00
-0.00
-0.00
-0.00
-0.00
0.00
0.01
0.01
-0.00
-0.03
-0.05
-0.05
0.00
0.13
0.36
0.66
1.01
1.37
1.72
2.06
2.40
2.79
3.24
3.80
4.44
5.10
5.74
6.33
6.89
7.48
8.19
9.08
10.24
11.57
12.95
14.23
15.35
16.35
17.40
18.76
20.57
23.08
26.08
29.29
32.41
35.26
37.95
40.80
44.28
48.72
54.51
61.30
68.53
75.62
82.20
88.37
94.68
101.90
110.62
121.40
133.72
146.69
159.33
171.03
181.85
192.52
204.57
216.85
231.69
249.62
270.55
293.07
314.12
329.37
334.36
325.96
303.55
269.61
227.91
182.54
136.44
90.92
46.15
2.08
-40.98
-82.15
-120.25
-154.95
-186.52
-215.78
-243.91
-272.21
-301.69
-332.47
-363.33
-391.41
-412.95
-424.64
-424.87
-414.38
-395.72
-371.90
-345.21
-316.67
-286.66
-256.12
-226.93
-201.39
-180.89
-164.93
-151.22
-136.90
-120.19
-101.39
-82.71
-66.88
-55.64
-48.59
-43.51
-37.60
-29.23
-18.71
-8.10
0.19
4.98
7.04
8.59
11.78
17.23
23.49
27.92
28.44
25.06
20.17
17.20
18.68
24.61
32.43
38.38
39.61
35.76
29.08
23.13
20.83
22.90
27.59
31.69
32.42
29.06
23.37
18.53
17.21
19.87
24.51
27.76
27.01
21.96
14.84
9.14
7.54
10.35
15.38
19.19
19.19
15.12
9.20
4.76
4.24
7.77
13.06
16.78
16.54
12.35
6.61
2.77
3.21
7.81
14.04
18.42
18.54
14.49
8.68
4.48
4.26
8.08
13.67
17.72
17.75
13.43
6.77
1.05
-0.98
1.38
6.35
10.71
11.48
7.73
1.19
-4.72
-6.93
-4.50
0.80
5.62
6.96
3.89
-1.94
-7.35
-9.51
-7.67
-3.52
-0.20
-0.39
-4.63
-10.93
-15.96
-17.00
-13.57
-7.71
-2.82
-1.63
-4.66
-9.95
-14.28
-15.03
-11.75
-6.43
-2.30
-1.92
-5.71
-11.56
-16.08
-16.46
-12.14
-5.11
1.10
3.50
1.29
-3.64
-7.81
-8.33
-4.66
1.10
5.51
6.04
2.64
-2.21
-5.10
-3.82
1.30
7.61
11.75
11.55
7.30
1.55
-2.38
-2.34
1.54
6.86
10.47
10.23
6.32
1.06
-2.42
-1.96
2.22
7.75
11.32
10.73
6.21
0.37
-3.34
-2.71
1.95
7.91
11.69
11.01
6.04
-0.87
-6.53
-8.69
-7.18
-3.76
-1.08
-1.08
-4.09
-8.63
-12.42
-13.78
-12.58
-10.48
-9.89
-12.57
-18.47
-25.64
-31.33
-33.70
-33.04
-31.61
-32.34
-36.99
-45.14
-54.43
-62.22
-67.19
-70.09
-73.22
-78.84
-87.66
-98.19
-107.34
-112.04
-110.86
-105.03
-98.07
-94.29
-96.77
-106.01
-119.51
-133.09
-142.68
-145.77
-141.86
-131.94
-117.21
-98.21
-74.67
-46.15
-12.93
23.53
60.78
96.06
127.20
153.18
174.26
191.53
206.22
219.06
229.94
237.97
242.03
241.39
236.10
227.25
216.56
205.77
195.88
186.84
177.54
166.41
152.21
134.62
114.71
94.79
77.04
63.02
52.96
45.86
39.99
33.39
24.00
9.95
-10.14
-36.37
-66.55
-95.80
-117.47
-125.49
-115.94
-90.88
-57.29
-24.36
0.27
13.28
16.10
13.19
9.05
6.02
3.37
-1.20
-9.60
-21.62
-34.59
-44.71
-49.28
-48.54
-46.32
-48.29
-58.92
-79.14
-105.46
-131.24
-149.38
-154.58
-144.48
-119.32
-81.83
-36.28
10.83
50.89
74.40
73.70
46.55
-1.76
-58.69
-107.84
-133.75
-127.31
-89.14
-29.76
33.98
85.06
112.67
116.13
104.38
91.10
87.68
97.86
116.68
134.22
141.78
136.66
123.07
108.86
100.65
100.28
104.64
108.67
109.14
106.71
105.30
109.32
120.62
136.87
152.31
160.26
155.85
137.46
106.52
65.86
18.32
-33.75
-87.66
-139.44
-183.16
-212.46
-222.79
-213.52
-188.66
-155.65
-123.12
-98.46
-86.22
-87.48
-100.14
-119.43
-138.73
-150.66
-148.43
-127.87
-89.32
-38.46
14.47
56.83
77.14
68.38
30.44
-29.58
-99.33
-164.88
-214.72
-242.65
-248.76
-237.77
-216.42
-190.84
-164.75
-139.03
-111.85
-79.75
-38.99
11.79
71.37
134.99
195.40
245.12
278.59
293.55
290.61
271.59
238.49
194.59
145.94
102.32
75.13
72.33
92.94
124.71
147.61
142.37
99.73
25.18
-63.13
-142.49
-195.40
-215.34
-206.65
-179.97
-146.68
-115.59
-92.53
-81.09
-82.79
-96.19
-115.61
-131.65
-133.48
-112.70
-66.96
-1.45
72.32
139.61
186.04
201.05
180.63
128.61
56.28
-20.03
-83.34
-120.47
-125.52
-100.36
-53.14
4.19
58.82
99.17
116.59
107.05
72.18
19.30
-40.44
-95.52
-137.84
-165.03
-180.16
-188.88
-195.75
-201.82
-204.21
-197.71
-177.13
-139.50
-85.29
-18.69
53.15
121.74
179.55
222.05
248.80
262.63
267.62
266.63
259.61
243.97
217.02
178.52
132.14
84.39
41.76
7.99
-16.91
-35.29
-49.54
-60.56
-67.83
-71.02
-71.52
-72.43
-76.92
-86.14
-98.17
-108.95
-114.58
-113.21
-105.44
-93.24
-78.24
-61.06
-41.72
-20.36
2.73
27.20
53.17
81.12
110.89
140.91
168.31
189.82
203.37
209.24
209.63
207.40
204.31
199.91
192.00
178.08
157.12
130.50
101.53
73.76
49.25
27.63
6.89
-14.65
-36.50
-55.61
-67.49
-68.89
-60.09
-45.47
-32.07
-27.00
-35.11
-57.78
-92.82
-135.06
-177.38
-211.99
-232.22
-234.27
-218.22
-187.52
-147.54
-103.95
-61.84
-25.73
0.33
13.46
13.31
3.32
-9.64
-17.53
-14.43
1.19
26.77
57.82
90.33
121.42
148.48
167.58
173.39
160.98
128.94
81.60
28.77
-17.31
-46.21
-53.20
-40.48
-15.60
12.08
34.98
49.56
56.28
57.86
57.02
54.77
50.36
42.48
30.56
15.45
-1.44
-19.60
-39.80
-63.37
-90.38
-117.94
-140.37
-151.12
-145.51
-122.79
-86.44
-42.77
1.35
40.02
69.01
85.54
87.82
74.96
47.39
7.73
-38.62
-83.66
-118.48
-135.91
-133.33
-114.26
-87.22
-62.05
-45.44
-37.99
-34.76
-28.41
-13.57
10.48
39.96
68.88
91.82
105.68
109.89
105.67
95.29
81.42
66.69
53.27
42.68
35.83
33.35
35.82
43.68
56.54
72.53
88.22
99.46
102.90
97.01
82.28
60.73
34.99
8.10
-16.46
-35.09
-45.30
-47.10
-43.85
-41.49
-46.10
-61.08
-85.49
-114.56
-142.02
-162.97
-175.77
-181.73
-183.44
-182.54
-178.69
-169.84
-153.59
-128.48
-94.95
-55.24
-13.06
27.07
60.60
83.59
93.49
89.80
74.59
52.48
29.90
13.59
8.70
17.29
37.71
65.55
95.34
122.42
144.02
159.12
167.47
168.52
161.00
143.56
115.58
78.05
33.63
-13.79
-59.86
-100.31
-131.15
-148.83
-150.61
-135.23
-103.72
-59.81
-9.68
39.03
78.78
103.69
110.67
99.82
74.08
38.26
-1.97
-40.95
-73.51
-95.33
-103.47
-97.09
-78.07
-51.11
-22.89
-0.33
11.53
11.10
0.42
-16.05
-33.59
-49.22
-62.36
-74.17
-85.67
-96.11
-102.27
-99.59
-84.44
-56.58
-20.24
16.83
46.37
62.95
66.06
59.63
49.56
40.79
35.65
34.45
37.35
45.91
62.85
89.70
124.23
159.52
185.91
195.07
184.06
156.90
122.72
91.54
70.10
59.63
56.67
55.84
53.04
47.19
40.12
34.84
33.48
36.13
40.84
44.56
44.34
37.72
22.95
-0.90
-33.37
-71.59
-109.40
-137.81
-147.39
-132.26
-93.49
-39.97
14.54
56.92
80.05
85.27
80.50
75.48
76.91
85.76
98.03
107.75
110.10
103.12
87.45
64.94
37.64
7.66
-22.31
-48.50
-66.57
-72.75
-65.20
-44.99
-16.36
14.25
40.00
55.52
58.82
52.03
40.93
33.00
34.66
48.60
72.44
99.55
121.59
131.99
128.57
114.09
94.64
76.75
64.65
59.01
57.45
56.22
52.14
43.83
31.81
17.66
3.04
-11.32
-25.93
-42.30
-62.53
-88.93
-123.71
-168.43
-222.89
-283.97
-345.22
-397.75
-432.91
-445.35
-435.15
-407.54
-370.40
-330.84
-292.52
-255.45
-217.56
-177.16
-134.54
-92.24
-54.34
-25.15
-7.74
-2.87
-8.20
-18.15
-25.06
-21.83
-4.63
25.14
61.42
96.33
124.07
143.72
159.26
176.82
200.74
230.54
260.37
281.19
284.30
264.87
223.73
167.27
105.59
49.98
10.56
-6.00
1.89
30.07
69.28
107.95
135.48
145.21
135.50
109.30
72.16
30.27
-10.92
-47.60
-78.26
-104.26
-129.61
-159.26
-196.41
-239.91
-283.48
-317.78
-334.12
-327.97
-300.02
-254.67
-197.53
-133.64
-67.46
-3.97
50.90
91.15
112.62
114.09
97.34
65.79
23.28
-26.19
-77.87
-125.47
-161.88
-180.67
-178.15
-154.40
-112.92
-59.14
0.80
60.28
111.69
146.45
156.71
138.64
95.56
38.95
-14.03
-45.95
-45.35
-10.94
48.17
116.35
177.73
221.79
246.00
254.65
255.11
253.82
253.94
255.43
257.01
257.99
259.31
262.55
268.26
274.40
275.89
265.81
237.34
186.07
112.01
20.52
-78.21
-171.58
-248.17
-301.36
-331.27
-343.84
-347.83
-350.63
-355.33
-360.42
-361.52
-353.85
-334.00
-300.49
-253.88
-197.11
-136.22
-80.30
-39.67
-22.62
-31.55
-61.52
-101.45
-138.07
-160.48
-162.87
-144.65
-108.58
-58.62
0.62
63.50
122.70
169.74
197.27
201.58
183.62
147.96
100.51
46.41
-10.42
-66.20
-116.24
-155.09
-178.40
-185.30
-179.42
-167.76
-157.66
-153.88
-157.37
-166.10
-177.36
-189.30
-201.23
-212.62
-221.85
-225.89
-221.16
-205.09
-177.28
-139.54
-95.02
-46.83
2.89
52.47
100.09
143.18
178.81
205.24
223.00
235.15
245.67
256.92
268.29
276.85
279.59
275.54
266.11
253.50
238.40
219.17
193.29
160.09
122.91
88.76
65.65
58.87
68.27
88.07
109.28
123.32
125.15
114.47
94.96
72.06
50.54
32.42
16.59
-0.13
-20.90
-46.49
-74.71
-100.98
-120.32
-129.64
-128.91
-120.84
-109.23
-97.07
-85.17
-71.90
-54.53
-31.12
-2.30
28.40
55.94
75.85
85.86
86.33
79.20
66.73
51.55
37.01
27.42
27.63
40.63
65.54
96.44
124.09
139.45
138.31
123.53
103.85
89.68
87.90
98.55
115.16
128.09
129.30
116.24
92.93
67.60
48.22
38.57
36.74
37.19
35.03
29.84
26.39
31.37
48.39
74.18
97.83
105.73
88.76
47.82
-5.46
-54.06
-83.80
-90.24
-79.74
-65.53
-59.90
-67.88
-85.49
-102.99
-110.98
-105.77
-90.63
-72.99
-59.62
-52.80
-49.63
-44.41
-32.60
-13.55
9.22
30.12
44.57
51.05
51.33
48.69
45.31
40.99
32.79
16.32
-11.94
-52.44
-101.56
-151.77
-193.86
-219.95
-226.36
-214.83
-191.40
-163.62
-137.13
-113.67
-91.01
-65.33
-34.18
1.44
37.08
66.77
85.87
93.14
90.99
83.96
76.33
70.32
65.83
61.54
56.47
50.96
46.46
44.53
45.67
48.94
52.56
54.98
55.73
55.28
54.45
53.41
51.35
46.89
39.08
28.15
15.60
3.43
-6.72
-14.00
-18.28
-19.44
-16.89
-9.82
2.08
17.73
34.45
48.63
56.72
56.18
45.94
26.48
-0.15
-30.42
-59.55
-82.44
-95.08
-95.90
-86.35
-70.10
-51.43
-33.52
-17.69
-4.01
7.56
16.25
20.68
19.88
14.38
6.53
-0.30
-3.23
-1.15
4.88
12.17
17.56
18.58
14.35
5.79
-4.54
-13.06
-16.19
-11.50
1.31
19.89
39.81
55.83
63.77
61.95
51.88
37.51
23.76
14.51
11.47
14.02
20.07
27.47
34.95
42.41
50.31
58.83
67.29
74.28
78.29
78.34
74.43
67.34
58.25
48.23
38.18
28.62
19.58
10.00
-2.59
-21.60
-49.77
-87.10
-129.20
-167.53
-192.07
-195.23
-175.29
-137.19
-90.41
-45.15
-9.07
13.99
23.02
18.33
0.96
-26.37
-57.94
-85.05
-98.46
-92.42
-67.94
-33.20
-0.11
21.27
27.70
23.79
18.70
20.42
31.10
45.76
55.30
51.77
32.71
2.50
-29.99
-55.43
-67.82
-65.72
-51.29
-28.10
0.87
33.56
68.40
103.39
135.84
162.89
182.80
196.10
206.13
217.99
236.94
266.43
306.72
354.49
403.85
448.08
481.11
498.56
499.68
485.05
456.01
414.30
362.01
301.59
236.04
168.54
102.24
39.52
-17.58
-67.30
-108.15
-138.87
-158.89
-168.34
-168.61
-162.31
-152.91
-144.55
-141.81
-149.33
-171.18
-209.61
-263.40
-327.10
-391.66
-446.19
-481.74
-494.17
-485.09
-460.44
-428.58
-395.77
-365.08
-336.84
-309.98
-282.84
-253.74
-220.46
-180.14
-130.26
-70.32
-3.55
63.18
121.27
163.25
185.55
189.58
180.66
165.42
149.13
133.98
118.89
100.59
75.05
38.88
-9.18
-67.30
-130.24
-190.13
-238.62
-269.42
-280.38
-273.69
-254.76
-229.79
-203.82
-179.93
-159.41
-142.58
-129.12
-117.71
-105.54
-88.45
-62.38
-25.58
19.51
65.74
102.82
120.73
113.73
82.97
36.42
-13.71
-54.95
-78.41
-81.00
-65.49
-38.75
-9.06
16.52
33.92
42.65
45.34
46.22
49.50
58.19
73.62
95.66
123.44
155.93
191.90
229.50
265.71
296.59
318.49
329.16
328.54
318.88
303.91
287.44
272.21
258.93
246.38
232.38
214.79
192.65
166.77
139.46
113.32
90.25
70.82
52.88
32.87
6.96
-27.91
-73.19
-128.37
-190.59
-253.79
-309.86
-350.53
-369.84
-366.45
-344.63
-312.60
-279.45
-251.84
-231.93
-217.51
-204.03
-187.09
-164.87
-139.70
-116.18
-99.62
-93.75
-98.69
-110.59
-122.68
-127.61
-120.02
-98.71
-66.24
-27.26
13.88
54.41
92.86
127.90
157.46
178.91
190.20
191.23
184.15
172.64
160.80
151.43
145.31
141.37
137.54
131.85
123.50
113.10
102.30
93.09
86.84
83.80
83.12
83.33
82.97
81.24
78.23
74.75
72.04
71.13
72.38
75.40
79.24
82.69
84.61
84.49
82.09
77.61
71.49
63.95
54.80
43.55
29.53
12.19
-8.68
-32.74
-59.03
-85.58
-110.74
-133.06
-151.35
-164.97
-174.20
-180.67
-187.19
-197.21
-211.73
-228.54
-241.60
-243.00
-226.53
-191.24
-143.15
-93.54
-54.89
-36.20
-40.56
-64.67
-100.67
-138.90
-169.10
-181.94
-170.61
-133.18
-74.40
-6.03
56.56
100.04
118.38
114.79
99.51
84.44
77.33
79.75
87.35
93.69
93.78
85.43
69.03
46.85
23.10
3.44
-6.24
-2.61
12.88
33.68
50.62
56.27
48.80
32.95
17.15
9.76
14.46
29.27
49.01
68.72
85.88
100.28
112.50
122.33
128.70
130.41
127.19
120.42
112.37
105.27
99.96
95.28
88.30
75.68
56.24
31.31
5.89
-13.39
-21.37
-17.28
-5.38
6.85
12.04
6.37
-9.41
-30.99
-53.47
-73.58
-90.58
-105.09
-117.59
-127.71
-134.04
-135.79
-133.68
-130.14
-128.10
-129.99
-136.26
-145.02
-152.93
-156.18
-151.60
-137.13
-112.59
-79.62
-42.26
-6.47
21.45
37.20
40.65
36.00
30.61
31.41
41.65
59.59
80.10
97.73
109.68
116.38
120.33
124.01
128.16
131.60
132.27
128.87
121.70
112.67
104.51
99.61
98.80
101.31
105.02
107.27
106.07
100.46
90.25
75.38
56.14
33.18
8.70
-13.33
-28.29
-32.81
-26.88
-14.04
-0.78
6.79
5.60
-3.45
-16.66
-29.90
-40.77
-48.96
-55.43
-61.13
-65.88
-68.69
-68.56
-65.55
-60.89
-56.54
-54.57
-56.08
-60.87
-67.52
-74.04
-78.73
-80.84
-80.87
-80.39
-81.39
-85.49
-93.29
-104.03
-115.96
-127.00
-135.74
-141.88
-146.39
-151.12
-157.62
-166.46
-176.60
-185.56
-190.16
-187.31
-174.55
-149.82
-112.17
-62.63
-5.16
53.32
104.29
140.46
158.14
159.47
151.33
141.92
137.05
138.12
142.65
146.69
147.83
145.67
141.60
137.05
132.25
126.19
117.63
106.25
93.12
80.15
69.35
61.84
57.35
54.49
51.41
46.73
40.07
32.16
24.39
18.08
13.97
11.93
11.03
10.13
8.35
5.43
1.75
-1.90
-4.78
-6.51
-7.13
-7.09
-6.99
-7.26
-8.05
-9.18
-10.33
-11.17
-11.52
-11.39
-10.97
-10.45
-10.02
-9.73
-9.55
-9.41
-9.25
-9.03
-8.74
-8.43
-8.09
-7.77
-7.47
-7.17
-6.90
-6.63
-6.38
-6.14
-5.91
-5.69
-5.49
-5.29
-5.10
-4.93
-4.75
-4.59
-4.44
-4.28
-4.15
-4.01
-3.88
-3.75
-3.63
-3.52
-3.40
-3.30
-3.20
-3.10
-3.01
-2.92
-2.83
-2.75
-2.67
-2.59
-2.52
-2.45
-2.38
-2.31
-2.25
-2.19
-2.13
-2.08
-2.02
-1.96
-1.91
-1.86
-1.82
-1.77
-1.72
-1.68
-1.64
-1.60
-1.56
-1.52
-1.48
-1.45
-1.41
-1.38
-1.35
-1.32
-1.28
-1.26
-1.23
-1.20
-1.18
-1.14
-1.12
-1.09
-1.07
-1.05
-1.03
-1.02
-0.99
-0.96
-0.92
-0.87
-0.83
-0.82
-0.85
-0.88
-0.92
-0.93
-0.89
-0.80
-0.68
-0.56
-0.47
-0.42
-0.39
-0.35
-0.27
-0.14
0.04
0.22
0.37
0.41
0.36
0.25
0.15
0.17
0.35
0.68
1.07
1.36
1.44
1.24
0.89
0.58
0.56
0.97
1.78
2.76
3.59
3.98
3.85
3.39
3.01
3.13
4.01
5.59
7.44
9.01
9.87
9.88
9.40
9.05
9.48
10.99
13.40
16.13
18.50
20.08
20.74
20.60
19.70
18.07
16.06
14.62
15.26
19.34
26.89
36.18
44.22
48.06
46.18
39.13
28.89
17.44
5.67
-6.93
-21.39
-37.89
-54.81
-69.28
-78.35
-80.42
-76.12
-67.41
-57.09
-47.61
-40.61
-36.33
-33.93
-31.49
-26.55
-16.90
-1.65
17.92
38.45
55.68
65.89
67.81
62.84
54.32
45.87
39.89
37.09
37.01
38.80
41.53
43.80
43.29
37.12
22.90
0.46
-27.52
-56.24
-80.49
-97.02
-105.84
-109.89
-112.82
-116.38
-118.96
-116.40
-104.54
-81.95
-51.49
-19.28
7.92
25.71
33.58
34.52
32.75
31.27
30.76
29.99
27.52
23.04
17.95
14.33
13.63
15.79
19.26
21.97
22.19
19.59
15.12
10.53
7.42
6.66
7.88
9.90
11.30
11.07
9.13
6.12
3.18
1.18
0.47
0.69
1.02
0.73
-0.57
-2.63
-4.87
-6.60
-7.50
-7.75
-8.01
-8.99
-11.09
-14.16
-17.49
-20.24
-21.72
-21.89
-21.41
-21.44
-22.99
-26.50
-31.51
-36.82
-41.02
-43.07
-42.83
-41.24
-39.66
-39.48
-41.21
-44.20
-46.80
-46.76
-41.74
-29.74
-10.25
14.82
41.03
62.33
72.83
69.08
51.70
25.28
-1.73
-20.66
-25.26
-13.72
11.43
44.20
77.04
103.10
117.95
120.47
112.30
96.71
77.20
56.53
36.36
17.57
1.08
-12.24
-22.24
-29.32
-34.98
-41.11
-48.91
-58.64
-69.24
-79.01
-86.31
-90.45
-91.80
-91.59
-91.24
-91.45
-92.05
-91.96
-89.68
-83.43
-72.35
-56.56
-37.17
-15.85
5.87
26.80
46.34
63.64
79.05
92.68
104.33
113.46
119.36
121.87
121.25
118.27
114.07
109.89
106.32
103.32
101.01
97.57
91.93
83.74
73.66
63.09
53.71
46.67
42.23
39.73
38.01
36.18
33.96
31.98
31.60
34.50
42.05
55.13
73.49
94.97
115.29
128.22
127.54
109.47
74.80
29.02
-19.27
-61.75
-93.63
-113.88
-126.21
-135.85
-146.57
-159.04
-171.14
-179.43
-180.68
-173.39
-158.25
-138.05
-116.76
-98.43
-86.05
-80.51
-80.42
-82.33
-82.12
-76.12
-62.46
-41.67
-16.97
6.09
21.21
23.45
11.53
-11.22
-38.01
-60.99
-73.82
-73.77
-61.94
-41.26
-16.54
8.79
32.77
54.17
71.74
84.05
90.29
90.90
87.83
83.68
81.12
81.45
84.28
87.99
90.66
90.97
88.77
85.09
81.46
79.52
80.04
82.54
85.54
87.19
85.92
80.98
72.70
61.92
49.91
37.63
25.41
12.74
-1.11
-16.68
-33.88
-51.75
-68.61
-82.52
-92.13
-96.99
-98.07
-96.93
-95.37
-94.68
-95.01
-95.55
-95.08
-92.63
-87.95
-82.29
-77.35
-75.09
-77.02
-84.00
-96.00
-111.74
-128.33
-139.60
-141.37
-130.75
-108.16
-77.94
-46.90
-21.70
-6.02
0.70
2.52
3.78
7.29
13.01
19.44
25.46
31.41
39.37
52.11
72.11
99.78
133.61
169.26
199.19
216.26
214.49
192.68
151.63
96.81
36.65
-19.48
-63.80
-91.75
-102.89
-99.70
-88.48
-76.46
-68.95
-68.47
-74.63
-85.10
-96.37
-105.24
-109.90
-108.80
-100.78
-85.34
-63.18
-36.66
-9.53
14.55
32.82
44.03
48.93
49.43
47.68
45.06
41.76
37.32
31.86
26.16
22.01
21.98
28.39
42.42
63.42
89.02
113.41
133.73
148.49
157.71
162.52
164.66
166.15
168.81
173.69
180.10
185.28
183.96
170.56
142.09
100.46
52.51
7.71
-25.64
-43.81
-48.29
-44.82
-39.65
-36.91
-37.56
-40.42
-43.93
-48.22
-54.45
-64.07
-78.02
-95.98
-116.82
-139.18
-161.63
-184.31
-206.86
-227.16
-240.98
-243.46
-231.24
-205.02
-169.90
-133.68
-103.84
-84.45
-75.00
-71.63
-69.81
-65.85
-58.34
-47.34
-33.21
-16.17
3.84
26.46
50.36
72.52
90.99
104.28
112.09
115.31
115.41
113.96
112.00
109.81
107.04
103.24
98.10
91.75
84.86
78.25
72.60
68.19
64.76
61.87
59.15
56.42
53.68
51.20
49.10
47.33
45.62
43.68
41.75
39.72
38.15
36.91
35.84
34.41
31.91
27.72
21.74
14.63
7.68
2.35
-0.35
-0.17
2.07
5.06
7.72
9.55
10.91
12.72
16.03
21.65
30.09
41.45
55.14
69.39
80.87
85.30
78.92
60.67
33.30
2.73
-24.16
-42.09
-49.25
-47.49
-40.71
-32.69
-25.42
-19.00
-13.00
-7.89
-4.63
-3.90
-5.46
-7.92
-9.32
-7.83
-2.27
6.75
16.25
23.48
27.04
27.33
25.76
24.06
23.57
25.10
28.00
28.84
25.07
16.09
3.11
-12.31
-29.60
-50.02
-70.86
-92.16
-117.68
-149.66
-187.38
-227.27
-264.85
-296.05
-318.03
-328.85
-310.40
-257.02
-176.79
-87.14
-3.84
64.91
117.88
156.86
184.81
204.13
212.55
209.62
196.63
176.64
152.73
127.20
100.29
71.25
44.93
21.27
-0.13
-19.13
-34.62
-45.43
-50.45
-50.09
-45.09
-36.20
-26.84
-19.27
-13.83
-9.35
-8.40
-7.56
-5.07
-0.11
7.63
15.99
22.71
26.43
26.29
21.51
12.07
-2.72
-23.36
-41.05
-53.55
-61.72
-66.86
-70.33
-73.09
-74.71
-74.58
-71.48
-69.71
-67.33
-63.45
-57.86
-51.49
-45.92
-41.72
-38.82
-36.15
-32.01
-25.64
-18.73
-8.54
9.86
36.49
68.23
100.03
127.55
146.48
158.31
163.37
160.64
147.31
120.84
79.83
24.46
-43.95
-117.04
-184.34
-236.52
-266.23
-269.64
-246.75
-201.75
-143.13
-81.89
-28.21
11.31
34.84
45.35
47.71
45.94
42.01
36.34
29.15
21.57
15.14
10.80
8.78
8.21
7.66
5.59
1.16
-5.55
-13.53
-21.67
-28.87
-34.31
-37.76
-39.47
-40.00
-40.04
-40.04
-39.63
-37.97
-34.18
-26.31
-13.06
6.14
31.18
61.69
96.84
134.70
170.30
197.64
210.69
205.86
184.19
151.68
117.15
88.70
70.63
62.49
60.73
61.13
61.07
60.17
59.18
58.44
57.14
53.60
46.45
36.01
23.32
10.32
-0.96
-9.43
-15.13
-18.99
-22.22
-25.65
-29.41
-33.27
-36.56
-38.52
-38.79
-37.62
-35.81
-34.42
-34.42
-36.30
-40.39
-46.12
-52.13
-56.86
-59.00
-57.88
-53.70
-47.43
-40.34
-34.26
-29.97
-26.70
-23.02
-17.61
-9.79
-0.12
9.67
17.27
19.48
13.67
-1.32
-25.89
-58.95
-97.41
-136.28
-169.73
-187.42
-185.97
-169.39
-146.23
-126.22
-115.68
-115.33
-121.37
-128.36
-132.08
-131.80
-129.93
-125.59
-116.87
-101.37
-77.29
-44.45
-4.38
40.39
86.35
126.98
159.26
182.55
197.85
206.75
210.56
210.00
205.40
196.55
183.69
168.48
152.55
137.34
123.78
112.33
103.00
95.47
88.94
82.66
76.56
70.42
64.04
57.42
50.93
45.23
41.10
38.88
38.39
39.10
39.91
39.66
37.61
33.83
29.21
25.18
23.31
25.02
31.08
40.54
50.31
55.42
50.64
32.88
3.24
-32.73
-66.98
-92.06
-104.39
-105.29
-99.64
-93.22
-90.16
-91.69
-96.94
-103.42
-108.07
-108.03
-100.79
-85.11
-61.99
-35.29
-10.97
5.04
9.45
3.15
-8.86
-19.64
-23.40
-17.68
-4.01
13.42
29.81
41.59
47.01
46.02
39.66
29.46
17.08
4.38
-6.77
-14.99
-19.50
-21.02
-21.00
-20.30
-19.19
-16.69
-10.71
0.96
19.35
42.98
66.48
81.53
80.15
58.13
18.20
-29.62
-71.10
-92.81
-87.00
-55.35
-7.28
44.27
86.94
111.29
112.25
89.69
48.58
-1.05
-47.92
-81.29
-92.71
-78.15
-39.34
17.17
82.60
143.99
188.23
203.23
181.87
125.02
41.25
-56.60
-154.25
-238.91
-301.46
-326.81
-307.55
-253.77
-188.40
-132.08
-95.21
-77.41
-72.34
-73.25
-75.63
-79.97
-88.05
-99.22
-110.11
-117.90
-120.42
-117.01
-109.27
-99.75
-92.41
-89.49
-89.84
-90.41
-90.12
-88.54
-85.63
-82.21
-78.57
-79.48
-92.18
-118.19
-144.14
-164.07
-180.11
-192.98
-203.51
-212.03
-218.51
-221.44
-217.96
-205.85
-186.02
-160.21
-129.97
-96.94
-61.86
-24.43
16.85
64.01
117.78
175.91
235.09
292.16
344.49
390.99
432.14
469.74
506.38
544.42
585.51
629.88
675.81
718.39
750.05
762.30
748.84
708.94
648.75
580.20
515.15
460.93
418.39
383.41
350.28
314.87
276.11
234.61
191.63
145.04
90.65
25.75
-48.05
-124.70
-196.43
-256.78
-311.64
-358.70
-392.79
-410.77
-413.73
-405.01
-387.61
-364.21
-337.42
-310.02
-283.48
-260.14
-242.47
-231.31
-225.79
-223.75
-223.47
-224.11
-226.28
-230.98
-241.43
-261.57
-293.90
-338.12
-385.19
-424.30
-445.34
-442.50
-415.73
-371.67
-320.65
-272.07
-231.08
-197.54
-167.42
-136.54
-102.71
-65.12
-23.51
22.52
72.55
123.35
168.17
199.71
211.02
199.37
169.52
132.89
102.98
89.12
93.13
110.00
135.26
163.77
191.59
217.23
241.85
267.63
296.09
328.15
364.63
410.15
464.33
519.49
563.07
582.93
571.79
529.16
461.46
351.46
208.15
60.55
-61.01
-143.32
-190.04
-211.15
-216.31
-212.89
-206.80
-198.37
-189.08
-182.09
-179.51
-180.83
-183.35
-185.08
-185.76
-184.81
-180.21
-171.75
-160.54
-147.14
-131.05
-111.35
-90.02
-69.39
-53.40
-43.76
-41.99
-49.31
-65.63
-89.33
-114.62
-134.00
-139.48
-126.02
-94.06
-52.32
-15.56
2.68
-3.69
-29.41
-61.26
-84.39
-88.65
-72.15
-40.94
-4.58
30.29
61.20
89.01
114.15
134.27
144.08
137.73
112.83
68.08
14.72
-31.19
-57.26
-60.98
-48.57
-29.82
-12.73
-0.92
6.08
11.12
15.94
20.69
24.71
27.40
29.41
31.97
36.18
42.15
48.77
53.30
52.21
42.84
24.89
1.79
-19.77
-31.80
-26.41
-2.81
32.25
66.53
88.52
89.49
67.20
27.09
-20.05
-62.06
-90.45
-102.35
-99.84
-89.95
-81.19
-80.11
-89.27
-107.47
-125.34
-134.73
-129.41
-104.83
-62.29
-7.40
51.62
105.81
146.42
166.22
160.15
127.54
75.96
16.45
-36.97
-70.92
-77.06
-55.13
-12.11
45.97
100.31
148.00
186.66
215.51
233.71
239.13
228.66
200.75
157.83
106.32
56.94
14.20
-21.30
-51.17
-77.46
-101.57
-123.33
-141.17
-153.51
-158.40
-161.21
-168.16
-182.92
-205.72
-235.40
-270.61
-309.89
-351.75
-369.21
-346.50
-288.14
-214.41
-143.43
-82.37
-30.84
14.14
54.36
89.79
115.03
126.17
124.45
115.45
104.88
95.39
86.54
76.83
66.14
53.71
40.72
29.92
24.04
24.09
29.26
38.15
50.17
63.27
72.35
71.54
57.63
31.96
-0.05
-30.36
-51.01
-57.53
-49.95
-31.59
-8.52
14.26
31.01
36.45
28.09
8.42
-15.49
-34.65
-41.31
-32.99
-13.42
9.33
27.20
36.07
36.57
32.03
25.95
22.13
23.57
32.91
52.48
84.72
128.44
180.36
233.32
268.48
269.34
231.01
164.61
90.79
28.84
-10.90
-28.53
-31.94
-31.02
-31.05
-31.98
-30.62
-24.48
-13.88
-1.67
8.28
12.17
8.06
-3.00
-18.53
-36.50
-55.89
-75.95
-92.45
-100.30
-95.98
-79.58
-54.61
-27.21
-3.91
11.03
17.02
17.88
18.31
20.57
23.18
21.87
12.14
-7.72
-35.86
-67.93
-97.80
-121.02
-135.69
-141.79
-139.05
-126.00
-100.96
-61.11
-13.48
32.21
66.22
82.44
80.82
66.63
47.72
30.81
19.48
13.54
11.84
12.86
15.12
17.10
17.00
13.43
6.25
-3.09
-11.96
-16.99
-16.23
-10.21
-1.69
5.84
9.73
9.39
6.18
2.17
-0.55
-1.07
0.11
1.57
2.01
0.54
-2.88
-7.54
-12.10
-14.86
-14.01
-7.64
5.30
24.03
45.09
62.87
71.40
66.79
49.52
24.67
-0.37
-19.14
-29.10
-32.51
-34.31
-39.21
-48.87
-61.17
-71.65
-76.37
-73.59
-63.76
-50.54
-37.47
-26.71
-18.88
-13.45
-9.59
-6.07
-0.80
9.51
28.30
57.50
95.00
133.99
164.87
180.32
176.01
153.87
120.28
82.43
45.30
10.02
-25.08
-61.72
-99.35
-134.61
-161.79
-175.30
-172.17
-153.49
-124.59
-93.00
-65.87
-47.52
-38.24
-34.84
-32.62
-28.10
-20.57
-11.16
-1.30
9.13
21.85
38.31
57.64
74.51
82.41
76.06
54.53
22.68
-10.92
-38.01
-54.36
-60.89
-61.59
-59.44
-54.06
-42.17
-20.51
10.46
45.40
76.09
96.30
103.34
99.79
91.07
82.39
76.02
70.94
64.52
54.78
41.78
27.42
14.41
4.72
-1.01
-3.29
-3.23
-1.72
0.83
4.23
8.20
12.15
15.19
16.55
16.14
14.72
13.92
15.55
20.54
28.03
35.27
38.22
33.08
18.02
-5.70
-33.89
-60.74
-80.91
-91.29
-91.54
-83.81
-71.40
-57.40
-43.91
-32.13
-22.81
-16.70
-14.50
-16.34
-21.57
-28.71
-35.83
-41.23
-44.11
-44.73
-44.13
-44.35
-46.39
-50.18
-54.66
-58.40
-60.31
-60.22
-58.82
-57.18
-56.11
-55.58
-55.01
-53.66
-51.12
-47.58
-43.74
-40.40
-38.10
-37.06
-37.17
-38.24
-39.99
-41.90
-43.15
-42.60
-39.24
-32.58
-22.80
-10.55
3.41
18.59
34.84
52.09
69.86
87.02
101.96
112.97
119.04
120.12
117.28
112.38
107.57
104.60
104.48
107.21
112.06
117.92
123.76
128.91
133.25
137.07
140.96
145.63
151.86
160.40
171.68
185.35
199.96
213.04
221.57
222.96
216.08
201.71
182.33
161.02
140.11
120.45
101.49
82.23
62.26
42.09
22.70
4.77
-11.82
-27.65
-42.97
-57.23
-69.34
-78.50
-84.97
-89.99
-94.79
-99.52
-102.89
-103.03
-98.84
-91.03
-81.89
-74.28
-70.29
-70.34
-73.36
-77.34
-80.06
-79.56
-74.39
-64.02
-49.09
-31.50
-13.69
2.44
16.50
29.78
44.54
63.01
86.35
114.24
144.82
174.87
200.41
217.27
221.96
212.64
189.71
155.81
114.80
70.40
25.14
-19.90
-64.08
-106.10
-143.44
-172.96
-192.51
-202.43
-206.09
-208.87
-216.06
-230.72
-252.58
-278.23
-302.86
-322.10
-333.52
-336.90
-333.56
-325.20
-313.03
-297.55
-279.01
-258.11
-236.25
-215.13
-195.73
-177.52
-158.39
-135.65
-107.66
-75.13
-41.29
-10.58
13.38
29.36
38.80
44.77
50.18
56.45
63.29
69.42
73.83
76.52
78.46
80.78
83.92
87.24
89.36
88.97
85.53
79.48
71.91
63.97
56.33
49.13
42.20
35.41
28.83
22.67
17.03
11.83
6.89
2.20
-1.95
-4.91
-5.89
-4.16
0.60
8.29
18.25
29.44
40.60
50.54
58.38
63.60
66.15
66.23
64.28
60.80
56.40
51.79
47.70
44.72
43.04
42.40
42.11
41.37
39.64
36.80
33.14
29.10
25.00
20.88
16.62
12.05
7.20
2.36
-2.16
-6.12
-9.59
-12.87
-16.22
-19.62
-22.56
-24.13
-23.32
-19.44
-12.46
-3.17
7.06
16.64
24.17
28.78
30.21
28.80
25.28
20.61
15.67
11.11
7.24
4.03
1.28
-1.14
-3.21
-4.70
-5.41
-5.44
-5.33
-6.03
-8.53
-13.40
-20.41
-28.49
-36.26
-42.65
-47.49
-51.53
-56.13
-62.41
-70.70
-80.42
-90.58
-100.26
-108.64
-114.71
-116.65
-111.81
-97.77
-73.78
-41.92
-7.10
24.61
48.18
61.25
64.29
59.02
46.81
28.04
3.22
-25.11
-51.42
-68.40
-70.02
-54.62
-26.16
7.14
36.15
54.45
60.51
57.49
51.21
47.39
49.47
57.69
69.72
82.18
92.19
98.50
101.71
103.56
105.91
109.98
116.10
124.14
133.93
145.27
157.55
169.33
178.33
181.97
178.24
166.33
146.87
121.82
93.99
66.51
42.24
23.20
10.38
3.86
3.35
8.58
19.30
34.66
52.32
68.30
77.75
76.66
63.67
40.77
12.30
-17.03
-44.22
-68.70
-91.68
-114.40
-136.49
-155.44
-167.34
-168.55
-157.40
-135.04
-105.24
-73.22
-44.08
-21.36
-6.26
2.26
6.53
8.98
11.21
13.73
16.53
19.80
24.26
30.90
40.24
51.93
64.71
76.86
86.93
94.19
98.67
100.77
101.04
99.95
97.77
94.47
89.66
82.72
73.16
61.00
46.88
31.98
17.49
4.16
-7.85
-18.82
-28.80
-37.37
-43.64
-46.85
-46.60
-43.01
-36.53
-27.87
-18.17
-8.64
-0.63
4.40
5.10
0.65
-8.86
-22.40
-38.33
-55.40
-72.42
-88.72
-104.75
-122.15
-142.97
-168.32
-197.36
-226.92
-252.83
-270.21
-275.48
-268.84
-255.17
-242.52
-238.55
-247.00
-265.69
-287.96
-303.75
-303.13
-280.23
-234.72
-170.51
-93.12
-7.90
85.46
178.23
256.05
306.33
325.04
318.13
297.03
273.09
253.74
241.41
235.29
232.45
231.60
232.22
233.20
232.42
227.57
217.41
202.33
183.37
161.96
140.72
121.03
102.26
82.39
59.78
34.21
6.75
-21.41
-48.89
-74.11
-95.89
-113.47
-126.73
-135.59
-140.28
-141.82
-142.30
-144.08
-148.85
-157.50
-169.84
-184.90
-200.61
-214.63
-225.57
-233.74
-240.63
-247.48
-254.17
-258.74
-258.00
-247.77
-224.71
-188.00
-139.85
-84.71
-27.59
27.27
79.76
126.40
163.00
186.86
198.18
199.40
193.84
184.86
175.25
166.68
159.17
152.30
145.30
137.75
129.94
122.92
117.89
116.28
117.55
120.24
123.15
125.10
125.30
123.25
118.67
111.76
103.06
93.37
83.62
74.76
66.68
58.87
50.76
42.11
33.66
26.52
21.75
20.01
21.28
23.42
23.74
19.69
9.38
-7.99
-32.22
-61.73
-93.59
-124.10
-151.21
-173.44
-189.91
-200.26
-204.59
-204.01
-200.36
-196.06
-184.78
-165.17
-140.16
-115.16
-93.99
-76.71
-61.33
-45.64
-28.51
-10.10
7.41
22.32
33.86
40.45
43.09
42.25
38.52
33.25
28.64
26.12
26.93
31.64
39.89
50.67
62.11
72.51
81.33
88.08
91.99
92.76
90.44
85.36
78.06
68.86
58.07
45.97
32.65
17.77
1.20
-16.52
-33.92
-48.69
-58.43
-61.51
-57.92
-49.62
-39.72
-30.92
-24.57
-20.45
-17.62
-15.63
-15.49
-19.77
-31.45
-51.56
-77.71
-104.23
-124.25
-132.46
-126.41
-106.69
-75.95
-37.57
5.30
49.62
91.90
128.00
151.77
158.39
148.39
128.16
105.73
86.33
71.08
59.03
49.42
42.54
39.20
39.22
41.14
42.12
40.25
35.52
29.52
24.26
21.07
20.55
22.62
26.60
31.09
34.32
34.52
30.32
21.43
8.88
-5.12
-17.90
-27.48
-33.06
-34.65
-32.28
-25.43
-13.12
5.28
29.41
57.56
86.93
114.34
137.28
154.45
165.78
171.99
173.85
171.68
165.11
153.30
135.39
111.11
81.17
47.27
11.61
-23.75
-57.33
-88.38
-116.51
-141.26
-161.88
-177.51
-187.45
-191.36
-189.04
-180.30
-164.95
-143.21
-116.05
-85.31
-53.07
-20.98
10.18
40.20
68.76
94.79
116.66
132.87
143.02
148.20
150.55
152.35
155.22
159.99
166.97
176.29
188.12
202.10
217.11
231.24
241.97
246.68
243.41
231.66
213.07
191.63
172.58
160.48
157.12
160.28
164.33
162.43
149.15
122.14
82.14
31.95
-24.35
-81.49
-132.52
-169.26
-184.35
-174.61
-143.59
-101.56
-62.38
-38.53
-36.92
-57.38
-94.02
-138.61
-183.96
-225.93
-263.61
-298.06
-330.45
-360.54
-385.90
-402.45
-406.72
-398.22
-380.70
-360.70
-344.27
-333.97
-328.20
-323.37
-317.23
-311.01
-308.08
-310.71
-315.92
-315.00
-297.22
-255.42
-190.32
-110.74
-30.00
39.43
88.77
116.14
125.36
122.79
113.95
102.23
89.15
75.54
62.63
49.63
37.53
28.98
26.48
30.09
36.42
39.76
34.18
15.78
-19.91
-71.03
-129.33
-183.89
-226.76
-256.30
-276.52
-293.78
-312.80
-339.41
-372.02
-402.32
-420.03
-418.96
-399.59
-367.36
-329.08
-256.21
-142.08
-2.78
132.77
242.40
318.72
364.31
385.63
389.89
383.79
367.69
343.44
315.73
290.60
272.08
260.48
253.69
248.70
242.83
230.33
208.67
179.93
149.17
121.27
99.03
83.62
75.72
75.36
78.91
82.49
83.80
82.09
78.04
73.29
70.33
71.97
79.04
87.88
91.92
86.33
69.94
45.97
20.14
-1.57
-14.30
-16.91
-12.53
-7.56
-5.71
-7.31
-10.01
-11.63
-11.29
-7.82
-0.16
12.88
30.30
52.30
78.39
107.24
136.11
153.51
151.53
129.39
105.22
83.67
64.42
41.81
16.12
-9.16
-29.16
-38.50
-34.51
-18.43
3.57
26.39
46.64
63.16
75.24
82.36
85.22
84.69
81.58
74.95
65.56
55.09
45.71
38.45
33.17
29.58
27.05
24.80
21.06
15.07
6.50
-4.60
-18.22
-33.76
-49.39
-62.73
-71.70
-75.80
-75.33
-71.20
-64.18
-54.73
-43.01
-29.22
-14.48
-0.19
12.26
22.71
32.23
42.23
53.42
65.15
75.53
81.81
82.36
76.99
67.34
55.83
44.49
34.22
24.71
14.96
3.35
-10.42
-25.81
-40.87
-53.03
-59.92
-59.71
-51.39
-32.38
-4.53
24.71
43.20
42.08
20.55
-14.65
-53.28
-86.33
-109.39
-127.43
-144.20
-162.44
-181.71
-199.59
-213.65
-223.29
-230.06
-237.42
-250.04
-266.11
-286.00
-309.76
-336.54
-363.84
-387.35
-402.28
-405.91
-400.10
-390.30
-384.13
-385.69
-392.91
-398.12
-391.94
-368.20
-326.83
-273.53
-215.78
-159.89
-107.42
-56.29
-3.27
53.26
112.47
172.15
229.95
285.12
337.32
386.39
430.19
464.14
482.65
482.42
466.34
443.25
425.12
421.38
434.98
460.96
488.96
508.23
512.20
502.10
483.46
462.17
441.17
420.10
397.17
371.43
343.80
316.73
295.31
282.08
275.53
270.36
260.43
242.12
216.05
186.47
158.87
140.31
133.52
136.30
143.27
150.05
156.21
165.13
181.28
185.10
162.38
109.12
35.20
-43.03
-112.74
-169.07
-214.71
-256.66
-301.75
-350.33
-397.93
-437.44
-463.18
-473.76
-472.23
-464.02
-457.05
-450.32
-436.46
-407.45
-359.06
-293.85
-220.32
-149.02
-88.15
-40.53
-3.98
26.76
55.01
79.67
95.59
96.89
80.67
46.23
-1.57
-55.46
-108.74
-157.19
-198.77
-232.28
-255.80
-266.68
-262.83
-244.11
-213.58
-177.07
-141.26
-111.44
-89.79
-74.83
-62.18
-46.26
-22.14
12.33
55.50
102.51
146.97
183.18
207.99
220.97
223.99
220.02
211.48
198.90
180.83
154.58
117.80
70.71
16.27
-40.05
-91.33
-131.08
-154.72
-160.37
-148.36
-120.03
-75.98
-17.97
49.46
117.83
175.71
212.53
222.86
209.46
183.02
158.65
147.63
152.22
165.24
174.65
170.78
150.54
117.68
72.84
21.49
-28.66
-69.45
-94.78
-102.18
-92.31
-69.83
-43.01
-21.28
-10.63
-12.38
-22.70
-33.39
-39.26
-37.11
-26.78
-10.62
8.22
27.77
46.05
60.49
67.60
63.49
45.97
15.72
-24.10
-64.90
-95.48
-106.65
-94.87
-63.66
-22.33
17.93
47.95
63.11
63.91
54.24
38.61
20.36
1.49
-16.48
-31.28
-40.37
-42.51
-38.88
-33.24
-30.18
-32.25
-38.23
-43.57
-42.60
-31.97
-12.79
10.15
30.63
43.90
48.11
43.77
32.34
15.26
-5.93
-28.56
-48.20
-59.71
-59.37
-47.06
-26.79
-5.35
10.67
17.61
15.90
9.27
2.23
-2.34
-4.23
-5.40
-8.20
-13.68
-20.88
-27.32
-30.65
-30.04
-26.81
-23.79
-23.73
-27.83
-34.75
-41.13
-43.19
-38.80
-28.71
-16.33
-6.15
-1.69
-3.80
-10.53
-18.35
-23.95
-25.72
-24.21
-21.36
-19.56
-21.05
-28.10
-42.99
-67.01
-98.97
-134.09
-164.79
-183.63
-186.87
-176.37
-158.79
-141.73
-129.38
-120.50
-110.04
-93.18
-69.04
-41.42
-15.98
2.73
13.59
18.58
20.54
20.76
18.24
11.09
-1.35
-16.41
-29.29
-34.68
-28.44
-8.62
24.16
66.76
114.28
161.13
202.90
235.82
257.49
267.03
265.06
253.41
234.25
209.89
178.56
142.78
107.56
78.18
57.22
43.88
35.44
28.29
19.25
6.55
-8.90
-25.58
-41.40
-54.72
-66.80
-78.09
-89.59
-102.28
-116.72
-132.22
-148.94
-167.11
-186.78
-207.54
-228.18
-247.94
-267.08
-287.20
-304.96
-319.23
-328.07
-328.42
-317.05
-291.99
-254.28
-207.87
-158.17
-109.69
-65.74
-27.03
7.10
37.35
63.86
86.23
104.56
120.12
135.25
151.51
169.37
187.52
203.38
214.56
220.38
222.65
224.93
230.70
240.77
252.70
261.50
261.86
250.96
230.05
204.33
180.78
165.21
159.46
160.87
163.52
160.92
148.90
127.03
98.27
66.95
36.51
8.17
-18.61
-44.48
-68.82
-89.47
-103.96
-110.89
-110.95
-106.23
-99.07
-90.92
-82.53
-74.73
-69.09
-67.36
-70.20
-76.06
-81.39
-82.48
-77.69
-68.55
-58.83
-52.14
-49.78
-50.23
-50.62
-48.93
-45.60
-43.09
-44.19
-49.83
-58.25
-65.76
-68.90
-66.45
-59.93
-52.79
-48.35
-48.00
-50.60
-53.35
-53.29
-48.56
-38.88
-24.98
-7.92
11.38
32.07
52.93
72.26
88.26
99.82
107.18
112.21
117.84
127.03
141.54
160.89
181.97
199.40
206.91
199.41
175.36
137.93
94.41
53.63
22.76
4.87
-1.40
-0.26
3.68
7.28
9.32
9.84
9.11
6.90
2.42
-5.29
-16.82
-32.10
-50.03
-68.52
-84.57
-94.84
-96.67
-88.90
-72.33
-49.32
-22.95
3.89
28.98
50.83
68.70
82.55
93.31
102.77
113.09
125.64
140.07
153.91
163.26
164.38
155.30
136.71
111.48
83.33
55.37
29.11
4.40
-19.68
-43.78
-67.87
-91.02
-111.81
-128.79
-140.79
-147.24
-148.34
-144.57
-136.24
-123.45
-106.21
-85.16
-62.23
-40.48
-23.25
-12.93
-9.74
-11.66
-15.81
-19.92
-23.24
-26.33
-29.86
-33.85
-38.13
-41.92
-44.12
-44.03
-41.38
-36.00
-27.75
-16.30
-1.84
12.95
24.80
30.82
28.42
16.16
-5.52
-34.34
-65.85
-95.18
-121.04
-143.39
-162.84
-181.00
-198.90
-215.80
-229.06
-234.04
-225.86
-203.71
-166.72
-113.88
-46.42
32.13
116.84
195.64
254.11
298.51
337.21
370.96
401.92
430.17
454.29
472.52
483.69
487.72
484.29
454.36
387.68
288.45
172.93
61.77
-29.50
-94.89
-136.01
-158.50
-170.60
-178.27
-181.61
-180.34
-175.14
-167.78
-160.21
-153.46
-148.11
-146.47
-149.64
-155.91
-165.53
-178.75
-194.87
-211.90
-226.77
-236.43
-239.45
-234.51
-221.33
-202.28
-181.62
-164.51
-155.40
-155.96
-164.86
-178.27
-190.20
-194.47
-187.38
-168.79
-142.37
-114.31
-89.60
-70.75
-57.17
-46.17
-35.18
-23.58
-12.85
-5.13
-1.07
3.16
13.53
34.87
67.86
108.25
148.86
182.96
206.90
221.23
232.15
246.93
270.46
303.03
340.57
377.06
406.83
426.23
420.92
383.33
315.65
230.26
143.22
66.60
6.66
-34.53
-57.17
-63.23
-54.33
-33.86
-7.29
20.29
43.40
58.30
63.62
60.11
49.82
36.92
25.05
15.86
9.16
3.69
-1.22
-5.51
-7.72
-6.88
-2.74
2.95
6.73
6.03
0.15
-9.65
-22.35
-38.14
-58.73
-85.83
-119.78
-159.24
-199.47
-234.10
-257.40
-267.31
-265.49
-256.39
-245.32
-236.25
-230.96
-226.28
-215.60
-192.00
-152.55
-98.77
-35.61
30.48
100.16
166.96
221.62
255.14
267.94
262.01
239.79
206.07
167.81
131.92
101.75
78.06
59.16
42.31
24.26
3.49
-19.63
-44.19
-70.07
-98.93
-132.20
-170.37
-212.36
-255.88
-295.91
-324.63
-332.94
-313.59
-265.13
-193.05
-109.11
-27.66
39.07
85.63
114.22
131.66
144.63
156.10
165.45
170.62
170.71
166.74
160.96
154.85
147.77
137.32
121.13
99.11
74.16
51.05
34.14
25.91
26.07
32.01
39.86
45.75
46.76
41.47
30.06
13.95
-4.68
-23.73
-41.68
-57.98
-73.05
-87.80
-102.97
-118.35
-132.44
-142.76
-146.98
-143.95
-134.30
-119.89
-102.63
-83.41
-62.20
-38.97
-15.00
6.73
22.60
30.14
29.51
23.52
16.32
11.34
10.06
12.14
16.49
22.59
30.85
42.25
57.40
75.53
94.34
110.17
118.81
116.50
101.00
72.46
33.63
-10.63
-54.71
-93.92
-125.62
-149.49
-166.83
-179.28
-187.85
-192.33
-191.61
-184.25
-169.20
-146.11
-115.44
-78.20
-35.70
10.40
58.03
104.56
146.93
182.14
207.89
223.21
228.78
226.59
219.28
209.26
197.98
185.61
171.52
155.11
136.87
118.86
104.33
96.35
96.22
102.39
110.66
115.63
112.63
99.31
76.00
45.08
9.74
-26.81
-61.70
-92.23
-115.96
-131.27
-137.90
-137.18
-131.42
-122.82
-112.39
-99.72
-83.53
-62.82
-37.77
-10.17
17.11
40.90
58.72
69.31
72.87
70.74
64.94
57.63
50.57
44.84
40.58
37.29
34.11
30.40
25.89
20.71
14.90
8.01
-1.08
-13.84
-31.29
-53.35
-78.60
-104.52
-128.28
-147.55
-161.31
-170.07
-175.80
-181.40
-189.70
-202.28
-218.57
-235.60
-248.75
-253.34
-246.40
-227.82
-200.44
-168.97
-138.40
-112.57
-93.37
-80.65
-72.69
-67.10
-61.65
-55.01
-46.98
-38.26
-29.81
-22.17
-15.22
-8.37
-1.12
6.43
13.50
19.06
22.43
23.72
23.85
24.10
25.54
28.82
34.39
42.87
55.23
72.23
93.47
116.67
137.74
152.05
156.32
150.27
136.93
121.52
109.14
102.76
102.33
105.41
108.94
110.81
110.64
109.28
107.71
106.08
103.65
99.35
92.75
84.57
76.46
70.08
66.17
64.27
63.50
63.73
66.38
74.11
89.51
113.30
143.47
175.75
205.15
227.82
242.02
247.98
246.79
239.25
225.24
203.87
174.23
136.18
90.91
41.18
-8.95
-54.75
-91.74
-116.80
-128.91
-129.20
-120.37
-105.78
-88.54
-71.07
-55.09
-41.74
-31.71
-25.12
-21.60
-20.43
-20.93
-22.83
-26.33
-31.80
-39.36
-48.55
-58.37
-67.76
-75.94
-82.67
-88.14
-92.57
-96.15
-98.93
-101.00
-102.55
-103.75
-104.60
-104.82
-104.11
-102.42
-100.25
-98.56
-98.28
-99.68
-102.06
-103.95
-103.83
-101.01
-95.96
-90.23
-85.62
-83.40
-83.76
-85.83
-88.15
-89.37
-88.64
-85.82
-81.17
-75.09
-67.78
-59.30
-49.62
-38.82
-27.25
-15.51
-4.39
5.32
13.10
18.89
23.16
26.78
30.69
35.49
41.22
47.40
53.29
58.14
61.37
62.45
60.99
56.71
49.76
40.83
31.06
21.48
12.46
3.51
-6.16
-16.79
-27.01
-34.07
-34.57
-25.91
-7.45
18.96
49.26
78.22
100.71
113.11
114.07
104.64
87.28
64.35
36.78
3.93
-35.47
-81.58
-132.35
-183.66
-231.02
-271.40
-304.02
-329.45
-347.91
-358.30
-358.96
-349.54
-332.61
-313.31
-297.02
-286.28
-279.07
-269.48
-250.65
-218.24
-172.42
-117.70
-60.83
-8.12
36.59
72.58
101.61
126.65
150.47
174.72
199.52
223.80
245.90
264.10
276.99
283.40
282.20
272.26
252.62
223.11
184.86
140.68
94.80
52.14
17.06
-7.83
-22.39
-29.00
-31.68
-34.76
-41.46
-52.89
-67.95
-84.06
-98.08
-107.25
-109.80
-104.94
-92.68
-73.62
-48.88
-20.11
10.70
41.51
70.61
96.80
119.16
136.63
147.59
149.88
141.47
121.81
92.58
57.42
20.44
-15.73
-51.06
-87.31
-125.51
-163.81
-196.70
-216.64
-217.22
-196.19
-156.33
-104.23
-47.29
8.92
61.66
110.07
153.68
191.31
221.22
242.18
254.60
260.90
265.06
271.02
280.89
293.91
306.45
313.34
309.85
293.80
266.72
233.95
202.33
177.33
160.85
151.01
143.90
135.88
125.21
112.45
100.54
92.43
89.51
91.07
95.22
100.24
105.07
108.80
109.88
107.64
101.19
89.47
71.62
47.74
19.36
-11.41
-42.84
-73.82
-100.91
-119.44
-124.50
-112.58
-82.78
-37.29
18.43
76.86
116.97
122.51
90.06
31.81
-33.18
-90.51
-134.59
-166.75
-190.73
-210.49
-226.18
-235.95
-238.01
-232.10
-219.69
-201.91
-179.33
-151.87
-121.40
-90.48
-63.79
-49.46
-53.35
-74.66
-103.56
-125.02
-124.82
-98.12
-48.93
12.21
72.24
120.34
150.74
164.07
157.98
137.77
109.15
77.21
46.34
20.63
4.09
-4.73
-9.99
-17.91
-33.21
-57.75
-87.84
-115.45
-129.25
-122.02
-94.62
-54.41
-11.00
28.25
58.44
78.54
87.29
83.45
66.37
38.01
3.96
-28.13
-50.69
-58.85
-51.17
-29.38
5.01
45.36
82.46
109.12
123.28
127.45
125.17
117.98
104.48
82.60
51.78
15.51
-20.24
-48.28
-63.60
-65.33
-56.48
-42.52
-28.50
-17.58
-9.88
-3.36
6.35
20.80
38.84
57.43
73.01
83.33
87.91
87.95
85.14
80.48
73.40
62.64
47.39
27.92
6.01
-15.77
-35.25
-51.25
-64.26
-75.82
-87.61
-100.50
-114.59
-129.15
-143.40
-157.67
-172.91
-190.05
-208.73
-226.99
-242.70
-256.00
-268.55
-281.95
-296.08
-307.77
-312.85
-308.59
-295.65
-277.62
-259.69
-244.00
-228.36
-208.61
-181.08
-146.53
-109.95
-77.59
-47.13
-18.09
9.46
34.92
55.01
70.45
81.30
87.03
87.79
86.24
85.85
90.44
102.37
120.34
141.97
163.06
178.82
186.54
187.68
186.05
187.02
195.57
213.99
244.26
285.53
333.48
372.01
386.10
367.44
320.19
274.18
246.15
243.80
266.88
301.52
334.32
354.63
355.93
335.46
282.75
196.19
88.25
-19.36
-106.18
-161.64
-190.50
-201.45
-203.22
-202.21
-199.46
-192.82
-179.57
-159.47
-135.10
-111.30
-93.27
-86.06
-92.88
-113.47
-143.12
-173.99
-197.67
-206.89
-197.84
-170.79
-130.61
-84.87
-40.85
-4.04
21.91
34.49
32.57
16.32
-12.35
-50.53
-94.79
-141.35
-186.63
-226.96
-258.47
-276.98
-279.53
-265.25
-236.18
-196.38
-150.47
-102.50
-55.16
-10.25
31.23
68.28
100.36
127.49
149.96
167.18
176.63
174.56
158.00
127.87
89.42
51.25
22.43
9.37
13.84
32.96
61.29
93.10
124.35
151.57
170.80
177.61
168.43
142.04
100.48
48.79
-9.53
-67.38
-117.11
-153.33
-176.09
-188.72
-193.88
-193.11
-186.11
-173.99
-158.51
-142.71
-130.26
-124.18
-125.27
-131.55
-138.73
-141.13
-133.29
-110.94
-73.04
-21.96
37.71
101.02
163.98
223.55
277.42
323.66
361.31
389.86
409.43
420.73
425.31
425.50
424.26
424.74
429.53
440.13
456.01
474.38
490.66
499.54
496.14
477.15
441.53
390.71
328.22
258.44
185.55
112.79
42.28
-24.76
-87.86
-146.94
-202.14
-253.15
-298.73
-336.70
-364.40
-379.87
-382.98
-375.88
-362.26
-346.10
-330.40
-316.67
-305.32
-296.18
-288.89
-282.71
-276.28
-267.69
-255.15
-237.83
-216.34
-192.65
-169.28
-148.53
-131.75
-119.24
-110.36
-103.90
-98.47
-92.86
-86.31
-78.72
-70.62
-62.96
-56.71
-52.47
-50.18
-49.24
-48.79
-48.16
-47.23
-46.47
-46.59
-47.96
-50.22
-52.25
-52.72
-50.78
-46.68
-41.64
-37.23
-34.58
-33.71
-33.75
-33.46
-32.02
-29.32
-25.84
-22.09
-18.28
-14.22
-9.50
-3.84
2.75
10.04
17.71
25.39
32.73
39.41
45.19
50.09
54.32
58.30
62.36
66.53
70.53
73.95
76.39
77.71
77.92
77.04
75.14
72.30
68.78
65.13
62.06
60.25
60.00
61.11
62.87
64.33
64.60
63.11
59.76
54.84
48.81
42.20
35.52
29.20
23.63
19.10
15.72
13.38
11.80
10.60
9.41
8.00
6.22
4.07
1.57
-1.24
-4.27
-7.34
-10.19
-12.58
-14.34
-15.50
-16.22
-16.79
-17.52
-18.66
-20.38
-22.65
-25.29
-27.82
-29.59
-29.91
-28.26
-24.48
-18.88
-12.17
-5.32
0.74
5.33
8.12
9.11
8.61
7.05
4.98
2.90
1.24
0.24
-0.01
0.39
1.29
2.48
3.75
4.92
5.80
6.20
5.96
5.02
3.42
1.26
-1.26
-3.93
-6.57
-9.03
-11.23
-13.12
-14.71
-16.02
-17.09
-18.03
-19.05
-20.37
-22.03
-23.76
-24.97
-24.95
-23.09
-19.30
-14.02
-8.14
-2.57
1.98
5.26
7.34
8.35
8.33
7.22
5.06
2.14
-0.83
-2.97
-3.54
-2.38
0.00
2.56
4.22
4.39
3.24
1.56
0.29
0.02
0.71
1.67
2.01
0.99
-1.50
-4.95
-8.35
-10.62
-10.98
-9.30
-6.07
-2.25
1.10
3.12
3.29
1.52
-1.62
-4.42
-3.69
4.70
24.49
56.99
99.61
145.91
187.32
215.85
226.49
217.96
192.02
151.92
101.20
43.49
-16.95
-74.88
-124.58
-161.10
-181.82
-187.17
-180.11
-164.73
-144.66
-122.12
-98.01
-72.86
-47.77
-24.98
-7.26
3.23
6.00
2.61
-3.91
-10.50
-15.22
-17.90
-19.71
-22.21
-26.35
-32.12
-38.53
-44.12
-47.35
-47.00
-42.31
-33.21
-20.48
-5.68
8.97
21.16
28.98
31.35
28.30
20.83
10.58
-0.57
-10.87
-19.00
-24.15
-26.06
-25.20
-22.69
-20.30
-20.15
-24.11
-33.29
-47.57
-65.39
-84.01
-99.96
-109.82
-110.96
-102.22
-84.33
-59.81
-32.43
-6.27
15.38
30.74
39.66
43.29
43.28
41.24
38.48
36.13
35.18
36.44
40.30
46.38
53.53
60.01
64.02
64.23
60.27
52.97
44.15
36.21
31.50
31.49
36.42
45.15
55.55
65.23
72.10
74.90
73.16
67.09
57.35
44.97
31.31
18.00
6.70
-1.25
-5.25
-5.59
-3.38
-0.16
2.62
4.04
3.91
2.72
1.31
0.58
1.09
2.98
5.92
9.31
12.43
14.72
15.83
15.70
14.45
12.26
9.31
5.80
1.96
-1.92
-5.45
-8.30
-10.28
-11.38
-11.83
-11.95
-12.12
-12.59
-13.50
-14.79
-16.28
-17.76
-19.04
-20.04
-20.80
-21.46
-22.13
-22.90
-23.75
-24.65
-25.54
-26.42
-27.28
-27.99
-28.27
-27.68
-25.80
-22.38
-17.51
-11.67
-5.61
-0.10
4.28
7.23
8.77
9.12
8.57
7.46
6.13
4.98
4.36
4.52
5.49
7.02
8.65
9.84
10.16
9.42
7.71
5.36
2.79
0.36
-1.68
-3.31
-4.64
-5.88
-7.21
-8.73
-10.44
-12.25
-14.00
-15.50
-16.55
-16.93
-16.43
-14.90
-12.35
-8.96
-5.09
-1.20
2.22
4.79
6.26
6.59
5.88
4.38
2.48
0.61
-0.84
-1.58
-1.53
-0.75
0.52
1.92
3.09
3.69
3.55
2.63
1.08
-0.82
-2.77
-4.52
-5.99
-7.24
-8.45
-9.79
-11.40
-13.23
-15.10
-16.69
-17.59
-17.40
-15.83
-12.84
-8.67
-3.86
0.91
5.03
8.10
10.03
11.04
11.45
11.60
11.67
11.71
11.70
11.72
11.93
12.51
13.56
15.01
16.58
17.97
19.00
19.74
20.34
20.76
20.73
19.83
17.95
15.64
14.06
14.48
17.47
22.32
27.15
29.70
28.50
23.71
17.10
11.35
8.81
10.52
15.96
23.49
31.14
37.35
41.24
42.51
41.14
37.11
30.58
22.03
12.42
3.03
-4.98
-10.95
-14.81
-17.05
-18.46
-20.00
-22.73
-27.80
-36.29
-48.70
-64.44
-81.66
-97.42
-108.42
-112.02
-107.01
-93.91
-75.25
-55.00
-38.23
-30.37
-36.29
-58.64
-96.13
-142.93
-190.03
-228.61
-253.65
-265.68
-269.35
-269.54
-267.40
-258.88
-236.93
-196.15
-137.25
-68.14
-1.26
51.63
84.12
96.62
94.54
84.61
71.77
58.33
45.02
32.78
24.05
22.77
32.91
56.85
94.39
143.07
199.07
258.07
315.74
367.85
410.49
440.72
457.47
461.59
455.18
440.12
416.87
384.25
340.45
284.56
217.46
141.70
60.55
-22.85
-105.52
-183.93
-253.27
-307.83
-342.47
-354.47
-344.79
-317.96
-280.80
-240.73
-204.38
-176.78
-161.04
-158.14
-166.59
-182.47
-199.87
-211.95
-212.31
-196.20
-161.36
-108.71
-42.62
29.29
97.18
151.07
183.45
191.57
178.29
151.19
120.04
93.95
78.90
76.53
84.46
97.79
111.02
119.83
121.99
117.46
107.61
94.36
79.33
63.74
48.64
35.20
24.86
19.02
18.54
23.36
32.37
43.76
55.58
66.23
74.73
80.62
83.76
83.99
81.06
74.73
64.99
52.34
37.75
22.39
7.29
-7.00
-20.37
-32.87
-44.33
-54.09
-60.95
-63.50
-60.60
-51.86
-37.85
-20.17
-1.11
16.75
31.11
40.33
43.80
41.92
35.96
27.57
18.27
9.13
0.64
-7.10
-14.09
-20.28
-25.55
-29.89
-33.47
-36.65
-39.80
-43.08
-46.32
-49.17
-51.21
-52.26
-52.36
-51.71
-50.52
-48.93
-46.94
-44.57
-41.88
-39.11
-36.64
-34.95
-34.56
-35.81
-38.76
-43.07
-47.98
-52.43
-55.32
-55.67
-52.92
-47.04
-38.54
-28.47
-18.09
-8.64
-0.98
4.61
8.40
11.00
13.03
14.74
16.02
16.48
15.81
14.02
11.48
8.80
6.54
4.95
3.95
3.16
2.16
0.69
-1.23
-3.29
-4.92
-5.51
-4.58
-1.86
2.50
8.00
13.73
18.52
21.15
20.63
16.64
9.74
1.43
-6.22
-11.22
-12.34
-9.61
-4.25
1.77
6.51
8.66
7.84
4.45
-0.72
-6.85
-13.24
-19.34
-24.57
-28.34
-30.16
-29.78
-27.32
-23.28
-18.36
-13.26
-8.51
-4.45
-1.22
1.15
2.68
3.41
3.44
2.91
2.03
1.03
0.14
-0.45
-0.63
-0.37
0.31
1.38
2.80
4.53
6.46
8.42
10.09
11.15
11.29
10.47
8.88
6.99
5.37
4.45
4.40
5.00
5.77
6.22
6.03
5.15
3.82
2.40
1.22
0.45
0.06
-0.05
0.06
0.40
1.07
2.13
3.53
5.01
6.22
6.86
6.89
6.57
6.37
6.72
7.81
9.38
10.86
11.51
10.75
8.40
4.67
0.07
-4.75
-9.25
-13.13
-16.29
-18.82
-20.81
-22.23
-22.88
-22.43
-20.48
-16.85
-11.68
-5.51
0.81
6.36
10.36
12.40
12.45
10.85
8.14
5.03
2.21
0.30
-0.31
0.43
2.23
4.54
6.72
8.24
8.85
8.55
7.54
6.10
4.51
3.11
2.19
1.97
2.53
3.73
5.21
6.48
7.04
6.63
5.26
3.22
0.98
-1.02
-2.45
-3.29
-3.75
-4.21
-5.03
-6.46
-8.50
-10.92
-13.32
-15.25
-16.33
-16.39
-15.47
-13.81
-11.79
-9.84
-8.32
-7.40
-7.10
-7.24
-7.54
-7.75
-7.76
-7.57
-7.30
-7.08
-6.96
-6.90
-6.82
-6.63
-6.25
-5.62
-4.62
-3.19
-1.28
1.01
3.42
5.64
7.37
8.50
9.10
9.39
9.70
10.29
11.35
12.91
14.88
16.97
18.80
19.97
20.17
19.32
17.56
15.24
12.75
10.44
8.57
7.33
6.90
7.39
8.86
11.20
14.09
17.03
19.48
21.07
21.60
21.21
20.16
18.81
17.37
15.94
14.49
12.93
11.30
9.69
8.26
7.13
6.29
5.61
4.91
4.10
3.22
2.49
2.12
2.22
2.76
3.54
4.36
5.02
5.43
5.52
5.25
4.59
3.57
2.28
0.88
-0.46
-1.61
-2.54
-3.36
-4.27
-5.51
-7.32
-9.82
-12.93
-16.36
-19.59
-22.10
-23.48
-23.68
-22.93
-21.74
-20.55
-19.66
-19.06
-18.53
-17.82
-16.79
-15.60
-14.61
-14.24
-14.73
-15.86
-16.99
-17.13
-15.43
-11.54
-5.97
0.15
5.61
9.65
12.48
15.13
19.11
25.66
35.17
47.14
60.36
73.07
82.99
87.49
84.14
71.89
51.93
27.67
3.74
-15.65
-28.09
-33.54
-33.65
-30.44
-24.93
-17.34
-8.25
0.23
4.39
0.42
-13.63
-36.45
-63.44
-87.62
-101.85
-100.84
-82.35
-47.48
-0.13
53.73
106.32
147.55
168.63
166.43
145.76
116.64
88.85
68.28
56.56
52.81
56.03
66.55
84.20
107.02
130.78
150.32
161.57
163.08
155.55
142.27
127.56
114.00
102.72
93.88
87.39
83.05
80.02
76.27
69.00
55.62
33.20
0.87
-39.38
-83.38
-126.33
-164.71
-197.13
-223.82
-245.62
-265.67
-286.93
-310.97
-337.47
-364.70
-390.47
-412.87
-430.33
-426.21
-389.13
-316.40
-216.01
-102.77
8.72
108.71
192.68
259.74
309.00
341.85
358.91
361.32
351.75
334.14
312.18
288.10
262.23
235.29
205.13
168.66
123.83
71.08
14.11
-40.56
-85.04
-112.49
-119.63
-109.84
-91.94
-76.73
-73.03
-84.73
-110.49
-145.41
-183.85
-221.33
-255.67
-285.93
-311.00
-329.59
-340.67
-344.05
-340.13
-329.19
-310.57
-282.98
-245.61
-199.27
-147.50
-94.96
-45.61
-1.01
39.56
78.74
119.89
165.81
217.39
271.74
323.11
363.54
385.30
382.12
352.58
301.22
237.44
171.67
110.21
55.20
5.12
-41.95
-88.69
-136.53
-186.01
-237.17
-289.97
-344.98
-399.02
-444.75
-471.67
-473.13
-448.96
-406.13
-355.80
-298.08
-238.04
-181.20
-140.39
-113.16
-94.57
-78.60
-63.19
-47.09
-28.64
-7.35
18.32
49.97
89.42
134.37
179.96
220.03
249.58
266.26
269.63
263.18
253.24
247.90
252.19
267.29
290.19
314.89
333.88
339.36
326.75
296.09
252.69
204.21
158.86
123.12
100.26
89.66
87.22
87.57
85.89
79.26
66.09
46.05
19.75
-11.19
-44.24
-76.02
-102.53
-120.03
-126.10
-120.68
-106.10
-86.17
-64.85
-45.11
-28.19
-13.78
-0.57
12.85
27.42
43.14
59.28
74.66
88.03
98.39
105.02
107.58
106.07
101.26
94.25
86.32
78.53
71.30
64.52
57.90
51.37
45.13
39.76
35.54
32.41
29.96
27.14
22.04
11.53
-8.61
-42.72
-92.55
-155.75
-225.05
-289.80
-339.54
-368.01
-375.21
-365.45
-348.39
-330.37
-314.15
-299.05
-283.04
-264.74
-244.37
-223.03
-201.04
-176.98
-147.23
-107.86
-56.05
8.55
83.16
161.69
235.59
295.49
333.46
345.82
333.80
303.11
261.76
217.34
174.98
137.04
104.16
76.64
55.74
43.00
39.34
44.12
54.82
67.65
78.57
84.20
82.25
72.01
53.92
29.37
0.29
-31.32
-63.62
-94.95
-123.51
-147.01
-162.80
-168.53
-163.08
-147.42
-124.64
-99.23
-75.64
-56.84
-43.45
-33.91
-25.41
-15.18
-1.49
15.79
35.33
54.95
72.23
85.32
93.34
96.42
95.31
90.74
82.85
71.01
54.17
31.55
3.30
-29.18
-63.47
-96.84
-127.02
-152.57
-172.74
-186.91
-194.11
-192.94
-182.23
-161.91
-133.79
-101.57
-69.95
-43.14
-23.41
-10.56
-2.15
5.26
14.86
28.69
47.30
70.00
95.12
120.44
143.80
163.72
180.05
194.48
210.47
232.28
263.03
302.75
347.11
387.86
415.17
420.92
401.40
358.27
297.27
225.84
150.92
78.09
11.88
-43.52
-84.19
-107.40
-112.97
-103.93
-85.91
-65.33
-47.40
-34.97
-28.45
-26.66
-27.79
-30.24
-32.87
-35.07
-36.63
-37.65
-38.41
-39.10
-39.78
-40.35
-40.66
-40.70
-40.63
-40.65
-40.83
-40.97
-40.59
-39.22
-36.65
-33.11
-29.20
-25.62
-22.81
-20.78
-19.22
-17.66
-15.84
-13.78
-11.74
-10.06
-8.96
-8.46
-8.43
-8.68
-9.00
-9.23
-9.24
-8.94
-8.29
-7.23
-5.72
-3.72
-1.36
1.04
2.92
3.74
3.25
1.68
-0.30
-1.96
-2.87
-3.15
-3.30
-3.89
-5.06
-6.36
-6.99
-6.23
-3.97
-0.80
2.14
3.67
3.02
0.07
-4.68
-10.33
-15.93
-20.61
-23.74
-24.85
-23.65
-20.14
-14.69
-8.16
-1.79
3.08
5.49
5.18
2.77
-0.55
-3.47
-5.12
-5.26
-4.26
-2.75
-1.26
-0.13
0.61
0.98
0.97
0.58
-0.11
-0.86
-1.29
-1.04
0.06
1.91
4.23
6.65
8.92
10.89
12.46
13.54
13.89
13.24
11.45
8.61
5.09
1.45
-1.79
-4.32
-6.13
-7.33
-8.05
-8.28
-7.93
-6.93
-5.41
-3.79
-2.65
-2.48
-3.52
-5.66
-8.49
-11.48
-14.15
-16.18
-17.44
-17.92
-17.67
-16.75
-15.18
-13.04
-10.43
-7.53
-4.54
-1.72
0.77
2.81
4.39
5.56
6.43
7.13
7.75
8.34
8.90
9.29
9.42
9.26
8.88
8.45
8.16
8.09
8.13
8.07
7.67
6.78
5.47
3.97
2.57
1.47
0.74
0.24
-0.27
-0.99
-2.01
-3.25
-4.53
-5.64
-6.47
-7.06
-7.51
-7.94
-8.38
-8.72
-8.80
-8.45
-7.62
-6.40
-5.02
-3.73
-2.72
-2.02
-1.52
-1.06
-0.47
0.31
1.29
2.40
3.54
4.60
5.47
6.02
6.15
5.86
5.30
4.73
4.46
4.64
5.22
5.90
6.31
6.15
5.33
4.01
2.47
1.07
-0.03
-0.80
-1.37
-1.87
-2.39
-2.91
-3.38
-3.79
-4.24
-4.94
-6.11
-7.84
-9.97
-12.10
-13.78
-14.67
-14.72
-14.09
-13.11
-12.00
-10.85
-9.64
-8.32
-6.92
-5.57
-4.40
-3.42
-2.48
-1.33
0.26
2.30
4.65
6.95
8.84
10.00
10.30
9.83
8.99
8.28
8.16
8.82
10.05
11.37
12.14
11.94
10.68
8.64
6.28
3.98
2.01
0.45
-0.59
-0.93
-0.36
1.19
3.49
5.95
7.76
8.13
6.56
3.08
-1.81
-7.20
-12.01
-15.32
-16.56
-15.75
-13.44
-10.51
-7.89
-6.24
-5.71
-6.02
-6.60
-6.93
-6.72
-5.97
-4.92
-3.78
-2.68
-1.59
-0.47
0.60
1.40
1.58
0.98
-0.30
-1.80
-2.92
-3.20
-2.54
-1.25
0.10
0.96
1.02
0.32
-0.87
-2.19
-3.35
-4.21
-4.75
-4.99
-4.96
-4.70
-4.31
-3.94
-3.75
-3.90
-4.45
-5.38
-6.56
-7.83
-9.10
-10.31
-11.51
-12.73
-13.95
-15.03
-15.77
-15.94
-15.37
-14.01
-11.97
-9.45
-6.74
-4.09
-1.71
0.26
1.83
3.03
3.96
4.69
5.25
5.66
5.92
6.08
6.20
6.39
6.70
7.10
7.50
7.76
7.78
7.56
7.21
6.88
6.67
6.61
6.60
6.51
6.25
5.83
5.35
4.87
4.40
3.87
3.13
2.14
0.96
-0.28
-1.45
-2.53
-3.56
-4.60
-5.67
-6.71
-7.64
-8.43
-9.08
-9.63
-10.06
-10.27
-10.14
-9.60
-8.68
-7.44
-5.92
-4.14
-2.02
0.44
3.09
5.67
7.87
9.48
10.45
10.88
10.88
10.55
9.94
9.08
8.12
7.21
6.57
6.30
6.36
6.60
6.80
6.79
6.50
5.99
5.40
4.90
4.58
4.46
4.40
4.25
3.83
3.07
2.02
0.82
-0.39
-1.55
-2.66
-3.75
-4.82
-5.78
-6.50
-6.88
-6.86
-6.49
-5.83
-4.95
-3.87
-2.58
-1.04
0.75
2.76
4.90
7.07
9.13
10.92
12.30
13.21
13.68
13.79
13.68
13.47
13.23
12.98
12.70
12.38
12.03
11.64
11.14
10.44
9.43
8.03
6.25
4.21
2.12
0.24
-1.21
-2.16
-2.70
-3.05
-3.50
-4.30
-5.60
-7.38
-9.54
-11.91
-14.34
-16.63
-18.63
-20.21
-21.33
-22.11
-22.73
-23.33
-23.85
-24.01
-23.38
-21.68
-18.87
-15.30
-11.59
-8.41
-6.22
-5.22
-5.28
-6.13
-7.45
-8.98
-10.53
-11.85
-12.63
-12.51
-11.16
-8.48
-4.71
-0.47
3.46
6.28
7.44
6.78
4.43
0.89
-3.15
-6.86
-9.44
-10.32
-9.32
-6.84
-3.70
-0.90
0.70
0.74
-0.69
-3.10
-5.88
-8.52
-10.72
-12.38
-13.54
-14.25
-14.59
-14.66
-14.62
-14.65
-14.89
-15.33
-15.74
-15.72
-14.79
-12.60
-9.11
-4.64
0.18
4.63
8.16
10.58
12.06
12.99
13.79
14.64
15.54
16.29
16.69
16.65
16.24
15.61
14.97
14.47
14.18
14.04
13.94
13.74
13.32
12.64
11.73
10.67
9.58
8.56
7.64
6.86
6.16
5.51
4.86
4.17
3.42
2.55
1.51
0.25
-1.25
-2.95
-4.72
-6.37
-7.74
-8.77
-9.51
-10.03
-10.33
-10.31
-9.75
-8.48
-6.49
-3.92
-1.07
1.79
4.48
6.96
9.19
11.12
12.67
13.77
14.45
14.85
15.16
15.54
16.05
16.71
17.51
18.48
19.60
20.86
22.08
23.05
23.50
23.32
22.57
21.50
20.39
19.44
18.72
18.15
17.54
16.66
15.19
12.79
9.13
4.14
-1.92
-8.39
-14.45
-19.33
-22.71
-24.81
-26.25
-27.72
-29.57
-31.71
-33.66
-34.91
-35.12
-34.27
-32.54
-30.12
-27.21
-24.01
-20.83
-18.10
-16.13
-14.92
-14.00
-12.70
-10.56
-7.75
-5.14
-3.86
-4.65
-7.38
-11.03
-14.23
-16.00
-16.16
-15.32
-14.22
-13.26
-12.19
-10.43
-7.63
-4.07
-0.63
1.62
2.06
0.92
-0.78
-1.61
-0.37
3.46
9.47
16.47
22.91
27.33
28.89
27.71
24.85
21.97
20.68
21.81
25.04
29.00
31.82
31.90
28.53
22.11
13.92
5.47
-2.02
-8.00
-12.55
-15.96
-18.39
-19.71
-19.62
-18.07
-15.44
-12.62
-10.59
-9.92
-10.46
-11.37
-11.58
-10.35
-7.69
-4.28
-1.08
1.15
2.18
2.36
2.32
2.57
3.31
4.32
5.13
5.28
4.50
2.83
0.64
-1.59
-3.39
-4.52
-5.01
-5.12
-5.29
-5.95
-7.41
-9.70
-12.50
-15.12
-16.77
-16.83
-15.25
-12.63
-10.03
-8.50
-8.53
-9.79
-11.25
-11.67
-10.25
-6.90
-2.32
2.39
6.27
8.78
10.01
10.42
10.61
10.99
11.71
12.66
13.63
14.47
15.19
15.90
16.67
17.49
18.14
18.33
17.84
16.65
15.02
13.36
12.05
11.27
10.87
10.51
9.86
8.73
7.20
5.53
3.97
2.66
1.55
0.49
-0.63
-1.90
-3.30
-4.77
-6.19
-7.43
-8.29
-8.57
-8.19
-7.23
-5.95
-4.71
-3.82
-3.38
-3.31
-3.31
-3.02
-2.13
-0.43
2.07
5.17
8.42
11.29
13.27
14.08
13.73
12.53
10.96
9.50
8.53
8.19
8.53
9.43
10.69
12.00
12.99
13.31
12.77
11.40
9.43
7.23
5.14
3.37
1.98
0.94
0.17
-0.46
-1.09
-1.89
-2.98
-4.38
-5.97
-7.53
-8.87
-9.92
-10.77
-11.65
-12.76
-14.21
-15.99
-17.92
-19.76
-21.24
-22.10
-22.08
-21.06
-19.06
-16.27
-13.05
-9.79
-6.80
-4.22
-2.07
-0.27
1.27
2.62
3.80
4.79
5.56
6.08
6.35
6.40
6.35
6.31
6.41
6.67
7.03
7.38
7.62
7.72
7.67
7.49
7.11
6.39
5.22
3.56
1.51
-0.64
-2.57
-4.03
-4.89
-5.28
-5.45
-5.74
-6.37
-7.41
-8.80
-10.44
-12.27
-14.29
-16.48
-18.73
-20.82
-22.50
-23.61
-24.12
-24.20
-23.99
-23.53
-22.70
-21.28
-19.16
-16.41
-13.33
-10.30
-7.63
-5.44
-3.65
-2.11
-0.67
0.77
2.17
3.45
4.49
5.15
5.41
5.36
5.22
5.29
5.78
6.72
7.87
8.82
9.20
8.83
7.83
6.52
5.24
4.29
3.85
4.08
5.12
6.88
8.91
10.32
10.11
7.70
3.41
-1.59
-5.82
-8.23
-8.75
-8.16
-7.45
-7.18
-7.13
-6.62
-5.10
-2.54
0.55
3.47
5.78
7.30
7.97
7.67
6.21
3.65
0.50
-2.29
-3.80
-3.57
-1.85
0.55
2.74
4.17
4.76
4.75
4.42
3.85
3.08
2.20
1.54
1.60
2.76
5.08
8.15
11.22
13.46
14.24
13.44
11.38
8.71
6.15
4.21
2.97
2.14
1.23
-0.14
-2.03
-4.10
-5.77
-6.52
-6.19
-5.04
-3.66
-2.68
-2.58
-3.47
-5.16
-7.17
-8.93
-9.95
-9.86
-8.62
-6.38
-3.53
-0.47
2.45
5.04
7.24
9.07
10.55
11.75
12.73
13.59
14.43
15.29
16.15
16.93
17.51
17.84
17.91
17.74
17.39
16.88
16.18
15.29
14.19
12.88
11.43
9.92
8.40
6.92
5.47
4.04
2.60
1.10
-0.51
-2.30
-4.31
-6.57
-9.08
-11.77
-14.50
-17.07
-19.32
-21.18
-22.66
-23.83
-24.74
-25.30
-25.26
-24.31
-22.23
-19.07
-15.16
-11.02
-7.14
-3.79
-0.92
1.73
4.43
7.29
10.19
12.81
14.73
15.64
15.39
14.10
12.14
10.03
8.31
7.38
7.30
7.81
8.39
8.55
7.92
6.44
4.33
1.96
-0.25
-1.98
-3.08
-3.62
-3.87
-4.22
-5.07
-6.64
-8.96
-11.77
-14.77
-17.68
-20.36
-22.71
-24.70
-26.20
-27.10
-27.33
-26.96
-26.14
-24.99
-23.54
-21.75
-19.52
-16.86
-13.94
-10.99
-8.16
-5.52
-2.98
-0.47
2.03
4.37
6.40
7.94
8.94
9.47
9.64
9.65
9.62
9.68
9.92
10.32
10.77
11.05
10.94
10.28
9.08
7.52
5.87
4.34
3.10
2.17
1.48
0.95
0.43
-0.24
-1.22
-2.60
-4.38
-6.40
-8.43
-10.20
-11.55
-12.46
-13.02
-13.33
-13.46
-13.35
-12.91
-11.99
-10.49
-8.34
-5.53
-2.13
1.71
5.70
9.45
12.57
14.79
16.11
16.76
17.07
17.38
17.83
18.32
18.67
18.71
18.45
18.05
17.72
17.54
17.46
17.24
16.64
15.56
14.06
12.40
10.89
9.75
8.98
8.43
7.76
6.65
4.95
2.75
0.35
-1.88
-3.61
-4.73
-5.32
-5.61
-5.85
-6.21
-6.76
-7.47
-8.19
-8.71
-8.74
-8.04
-6.45
-4.05
-1.14
1.87
4.57
6.78
8.58
10.26
12.15
14.40
16.90
19.31
21.17
22.10
21.98
20.97
19.41
17.73
16.23
15.05
14.16
13.43
12.72
11.91
10.89
9.54
7.69
5.22
2.13
-1.40
-5.03
-8.33
-10.96
-12.77
-13.85
-14.44
-14.85
-15.41
-16.35
-17.86
-19.98
-22.62
-25.59
-28.55
-31.15
-33.06
-34.03
-33.94
-32.73
-30.48
-27.28
-23.37
-19.03
-14.55
-10.21
-6.22
-2.68
0.38
2.98
5.18
6.97
8.32
9.19
9.58
9.54
9.20
8.73
8.32
8.03
7.85
7.70
7.45
7.06
6.51
5.81
4.97
3.95
2.68
1.16
-0.61
-2.51
-4.46
-6.34
-8.07
-9.57
-10.71
-11.40
-11.61
-11.48
-11.26
-11.32
-11.89
-13.03
-14.48
-15.85
-16.72
-16.82
-16.07
-14.59
-12.58
-10.22
-7.59
-4.77
-1.78
1.26
4.19
6.86
9.14
11.01
12.51
13.69
14.57
15.08
15.10
14.52
13.33
11.68
9.93
8.47
7.68
7.68
8.33
9.25
9.99
10.20
9.73
8.68
7.32
5.97
4.85
4.04
3.44
2.85
2.06
0.95
-0.46
-2.04
-3.58
-4.93
-5.98
-6.77
-7.43
-8.10
-8.89
-9.85
-10.92
-11.99
-12.94
-13.68
-14.16
-14.39
-14.35
-13.96
-13.11
-11.67
-9.58
-6.82
-3.48
0.36
4.58
9.02
13.45
17.48
20.68
22.68
23.35
22.85
21.64
20.31
19.35
19.01
19.21
19.63
19.82
19.40
18.18
16.26
13.98
11.76
9.93
8.59
7.62
6.76
5.78
4.66
3.53
2.56
1.81
1.18
0.37
-0.94
-3.01
-5.94
-9.62
-13.83
-18.20
-22.21
-25.28
-26.82
-26.36
-23.72
-19.18
-13.48
-7.76
-3.17
-0.64
-0.45
-2.19
-4.83
-7.02
-7.41
-4.96
0.87
10.13
22.39
36.91
52.51
67.59
80.02
87.44
87.76
79.96
64.65
44.22
22.19
1.99
-14.11
-25.53
-32.98
-37.52
-39.76
-39.63
-36.99
-32.33
-27.12
-23.40
-22.73
-25.43
-30.27
-35.17
-38.23
-38.64
-36.93
-34.46
-32.63
-32.30
-33.52
-35.83
-38.52
-41.00
-42.82
-43.66
-43.22
-41.35
-38.09
-33.75
-28.80
-23.73
-18.79
-13.96
-8.99
-3.60
2.25
8.27
13.85
18.32
21.18
22.31
22.07
21.08
20.01
19.35
19.24
19.57
20.12
20.67
21.09
21.33
21.31
20.90
19.96
18.44
16.47
14.30
12.30
10.77
9.85
9.47
9.40
9.29
8.83
7.80
6.07
3.64
0.65
-2.69
-6.15
-9.56
-12.89
-16.21
-19.70
-23.46
-27.49
-31.56
-35.30
-38.14
-39.48
-38.80
-35.80
-30.54
-23.50
-15.44
-7.27
0.27
6.77
12.11
16.39
19.77
22.25
23.84
24.56
24.59
24.24
23.85
23.61
23.50
23.32
22.86
22.06
21.03
20.01
19.17
18.55
18.00
17.33
16.41
15.28
14.06
12.90
11.81
10.67
9.35
7.76
5.92
3.97
2.02
0.08
-1.92
-4.13
-6.62
-9.37
-12.20
-14.91
-17.30
-19.21
-20.46
-20.86
-20.23
-18.40
-15.38
-11.33
-6.60
-1.62
3.25
7.73
11.71
15.13
17.96
20.10
21.41
21.80
21.34
20.32
19.18
18.37
18.22
18.76
19.75
20.75
21.30
21.07
19.95
18.03
15.53
12.72
9.86
7.14
4.61
2.25
-0.02
-2.30
-4.64
-6.99
-9.25
-11.29
-13.06
-14.65
-16.27
-18.15
-20.46
-23.13
-25.89
-28.34
-30.07
-30.77
-30.27
-28.44
-25.24
-20.69
-14.98
-8.49
-1.78
4.60
10.23
14.93
18.72
21.71
23.99
25.57
26.48
26.80
26.71
26.45
26.15
25.82
25.42
24.89
24.29
23.74
23.35
23.11
22.79
22.08
20.64
18.37
15.38
12.01
8.66
5.64
3.09
0.95
-0.90
-2.58
-4.18
-5.74
-7.32
-9.02
-11.04
-13.64
-17.03
-21.35
-26.54
-32.29
-38.07
-43.16
-46.83
-48.52
-47.97
-45.34
-41.14
-36.02
-30.60
-25.22
-19.84
-14.06
-7.31
0.78
9.99
19.25
26.80
30.66
29.42
22.90
12.38
0.29
-10.57
-17.78
-19.93
-16.71
-8.86
2.20
14.53
26.01
34.65
39.02
38.60
33.94
26.44
17.85
9.72
2.96
-2.24
-6.16
-9.18
-11.42
-12.71
-12.70
-11.33
-9.02
-6.83
-6.24
-8.59
-14.64
-24.10
-35.66
-47.29
-56.87
-62.72
-64.13
-61.32
-55.31
-47.35
-38.56
-29.67
-21.10
-13.15
-6.19
-0.65
3.21
5.55
7.07
8.74
11.40
15.33
20.16
24.95
28.70
30.76
31.05
30.03
28.39
26.73
25.32
24.14
22.97
21.65
20.20
18.78
17.62
16.79
16.18
15.49
14.38
12.67
10.42
7.91
5.56
3.69
2.42
1.66
1.15
0.57
-0.30
-1.60
-3.30
-5.32
-7.51
-9.70
-11.66
-13.13
-13.81
-13.37
-11.61
-8.50
-4.22
0.79
6.00
10.92
15.23
18.79
21.61
23.73
25.13
25.77
25.65
24.87
23.61
22.10
20.57
19.21
18.17
17.49
17.12
16.84
16.34
15.32
13.65
11.43
9.02
6.81
5.11
3.96
3.21
2.54
1.68
0.46
-1.16
-3.06
-5.10
-7.11
-8.96
-10.62
-12.16
-13.74
-15.57
-17.76
-20.25
-22.83
-25.15
-26.80
-27.38
-26.53
-24.05
-20.04
-14.88
-9.24
-3.85
0.69
4.09
6.47
8.15
9.47
10.63
11.61
12.33
12.69
12.68
12.36
11.81
11.10
10.31
9.55
8.96
8.63
8.56
8.62
8.56
8.16
7.29
5.99
4.43
2.83
1.36
0.05
-1.13
-2.31
-3.57
-4.96
-6.44
-7.95
-9.45
-10.94
-12.49
-14.19
-16.15
-18.36
-20.75
-23.11
-25.22
-26.86
-27.83
-28.02
-27.30
-25.63
-22.99
-19.46
-15.19
-10.47
-5.61
-0.85
3.62
7.78
11.64
15.18
18.29
20.71
22.16
22.44
21.56
19.78
17.56
15.30
13.25
11.38
9.44
7.14
4.39
1.33
-1.74
-4.50
-6.84
-8.79
-10.49
-12.00
-13.27
-14.13
-14.47
-14.29
-13.72
-12.92
-12.00
-11.00
-10.00
-9.24
-9.08
-9.90
-11.84
-14.62
-17.64
-20.16
-21.70
-22.18
-21.85
-21.17
-20.46
-19.82
-19.14
-18.22
-16.80
-14.66
-11.58
-7.33
-1.88
4.48
11.00
16.60
20.17
21.02
19.11
15.21
10.56
6.52
4.11
3.74
5.24
8.01
11.26
14.25
16.38
17.29
16.86
15.22
12.78
10.09
7.71
6.05
5.15
4.80
4.50
3.81
2.50
0.64
-1.45
-3.34
-4.76
-5.60
-6.00
-6.23
-6.58
-7.32
-8.64
-10.55
-12.85
-15.01
-16.32
-16.07
-13.80
-9.55
-3.89
2.33
8.24
13.27
17.22
20.16
22.21
23.44
23.83
23.44
22.49
21.41
20.60
20.28
20.31
20.21
19.53
18.06
16.04
14.03
12.58
11.92
11.79
11.61
10.86
9.36
7.36
5.41
4.00
3.36
3.41
3.81
4.21
4.30
3.89
2.90
1.36
-0.66
-3.01
-5.56
-8.20
-10.79
-13.13
-14.94
-15.88
-15.70
-14.38
-12.16
-9.45
-6.63
-3.97
-1.54
0.66
2.66
4.47
6.17
8.03
10.41
13.63
17.61
21.82
25.27
26.96
26.21
23.00
17.98
12.18
6.70
2.33
-0.55
-1.98
-2.25
-1.78
-1.02
-0.37
-0.25
-0.96
-2.63
-5.16
-8.22
-11.25
-13.73
-15.30
-15.94
-16.00
-16.02
-16.53
-17.80
-19.71
-21.86
-23.81
-25.29
-26.34
-27.22
-28.17
-29.31
-30.50
-31.50
-32.01
-31.84
-30.91
-29.18
-26.65
-23.35
-19.39
-15.02
-10.62
-6.56
-3.15
-0.42
1.86
4.07
6.51
9.21
11.85
13.86
14.75
14.40
13.09
11.32
9.51
7.72
5.73
3.33
0.68
-1.55
-2.41
-1.22
1.87
5.82
9.01
9.95
7.97
3.55
-1.97
-7.01
-10.41
-11.90
-11.96
-11.47
-11.16
-11.33
-11.88
-12.55
-13.21
-14.05
-15.37
-17.37
-19.93
-22.57
-24.57
-25.28
-24.34
-21.81
-18.13
-13.95
-9.89
-6.36
-3.45
-0.97
1.40
3.94
6.73
9.61
12.28
14.46
16.03
17.05
17.70
18.17
18.60
19.07
19.62
20.25
20.93
21.55
21.98
22.08
21.73
20.94
19.77
18.30
16.67
15.02
13.46
12.12
11.06
10.19
9.33
8.25
6.79
4.95
2.90
0.85
-1.08
-2.87
-4.66
-6.54
-8.52
-10.49
-12.25
-13.60
-14.40
-14.58
-14.07
-12.86
-10.93
-8.30
-5.09
-1.51
2.18
5.71
8.86
11.47
13.46
14.79
15.48
15.59
15.25
14.62
13.86
13.16
12.61
12.27
12.06
11.91
11.70
11.40
11.03
10.67
10.40
10.26
10.18
10.06
9.82
9.40
8.79
7.95
6.76
5.10
2.96
0.48
-2.01
-4.09
-5.55
-6.42
-6.96
-7.50
-8.24
-9.26
-10.57
-12.32
-14.80
-18.12
-22.00
-25.59
-27.77
-27.61
-24.98
-20.69
-16.22
-12.97
-11.66
-11.95
-12.74
-12.76
-11.15
-7.74
-2.97
2.46
7.95
13.09
17.57
21.09
23.29
23.84
22.64
19.93
16.28
12.35
8.67
5.50
2.84
0.50
-1.70
-3.83
-5.83
-7.52
-8.69
-9.20
-9.05
-8.42
-7.62
-7.05
-7.04
-7.81
-9.36
-11.56
-14.14
-16.81
-19.30
-21.41
-23.00
-23.99
-24.30
-23.83
-22.50
-20.23
-17.07
-13.20
-8.87
-4.37
0.04
4.17
7.90
11.15
13.87
16.01
17.58
18.64
19.30
19.72
20.05
20.38
20.72
21.05
21.32
21.52
21.62
21.62
21.47
21.12
20.48
19.48
18.08
16.31
14.23
11.98
9.76
7.75
6.09
4.79
3.73
2.68
1.40
-0.20
-2.07
-3.97
-5.65
-6.94
-7.89
-8.80
-10.15
-12.38
-15.69
-19.82
-24.07
-27.43
-28.96
-28.14
-25.13
-20.68
-15.90
-11.73
-8.69
-6.72
-5.32
-3.93
-2.15
0.06
2.44
4.55
5.90
6.04
4.71
1.90
-2.04
-6.34
-10.03
-12.25
-12.65
-11.60
-10.09
-9.23
-9.81
-11.84
-14.61
-17.06
-18.27
-17.91
-16.22
-13.83
-11.33
-9.03
-6.94
-4.98
-3.20
-1.90
-1.47
-2.13
-3.70
-5.55
-6.86
-7.02
-5.90
-3.96
-2.00
-0.78
-0.69
-1.60
-2.97
-4.10
-4.40
-3.58
-1.71
0.98
4.21
7.74
11.40
15.04
18.46
21.43
23.73
25.27
26.12
26.51
26.71
26.91
27.14
27.28
27.17
26.68
25.76
24.42
22.71
20.65
18.28
15.65
12.83
9.95
7.13
4.51
2.23
0.44
-0.80
-1.51
-1.90
-2.29
-3.00
-4.18
-5.79
-7.62
-9.49
-11.30
-13.06
-14.76
-16.29
-17.36
-17.66
-17.05
-15.63
-13.72
-11.64
-9.53
-7.21
-4.35
-0.68
3.78
8.66
13.35
17.24
19.97
21.53
22.22
22.50
22.77
23.23
23.81
24.26
24.30
23.79
22.82
21.64
20.53
19.63
18.84
17.93
16.64
14.89
12.72
10.27
7.65
4.82
1.72
-1.66
-5.13
-8.35
-10.99
-12.89
-14.23
-15.43
-16.96
-19.15
-22.02
-25.24
-28.31
-30.73
-32.21
-32.64
-32.11
-30.78
-28.73
-26.00
-22.60
-18.61
-14.25
-9.89
-5.92
-2.63
-0.11
1.80
3.39
4.94
6.57
8.19
9.57
10.44
10.68
10.38
9.80
9.26
8.99
8.97
9.06
9.03
8.75
8.23
7.56
6.87
6.17
5.39
4.40
3.08
1.43
-0.45
-2.37
-4.13
-5.57
-6.68
-7.53
-8.22
-8.92
-9.76
-10.84
-12.24
-13.99
-16.04
-18.21
-20.16
-21.43
-21.60
-20.43
-17.94
-14.47
-10.53
-6.63
-3.12
-0.16
2.25
4.25
5.93
7.41
8.66
9.66
10.30
10.47
10.10
9.26
8.09
6.86
5.80
5.02
4.47
3.96
3.26
2.24
0.97
-0.42
-1.74
-2.88
-3.91
-4.91
-5.95
-7.02
-8.05
-9.01
-9.97
-11.02
-12.21
-13.51
-14.80
-15.98
-17.05
-18.11
-19.28
-20.58
-21.81
-22.73
-23.14
-22.99
-22.39
-21.46
-20.24
-18.60
-16.37
-13.44
-9.91
-6.06
-2.26
1.20
4.18
6.71
8.92
10.90
12.66
14.09
15.04
15.40
15.17
14.51
13.68
12.95
12.52
12.42
12.55
12.75
12.86
12.79
12.55
12.20
11.79
11.35
10.88
10.41
9.97
9.58
9.22
8.83
8.24
7.31
5.93
4.16
2.13
0.07
-1.81
-3.41
-4.70
-5.68
-6.38
-6.85
-7.16
-7.37
-7.52
-7.55
-7.29
-6.46
-4.83
-2.27
1.06
4.80
8.47
11.61
13.97
15.52
16.40
16.87
17.12
17.26
17.32
17.29
17.21
17.21
17.42
17.93
18.60
19.16
19.25
18.64
17.31
15.48
13.49
11.61
9.93
8.39
6.88
5.33
3.78
2.32
0.97
-0.35
-1.77
-3.38
-5.18
-7.09
-9.01
-10.90
-12.77
-14.66
-16.51
-18.22
-19.59
-20.44
-20.56
-19.79
-18.02
-15.27
-11.70
-7.62
-3.47
0.35
3.58
6.10
7.97
9.27
10.12
10.61
10.80
10.78
10.59
10.21
9.64
8.85
7.91
6.98
6.23
5.77
5.56
5.45
5.20
4.64
3.71
2.42
0.91
-0.70
-2.22
-3.51
-4.42
-4.91
-5.08
-5.14
-5.36
-5.99
-7.19
-9.00
-11.42
-14.37
-17.69
-21.06
-24.06
-26.28
-27.48
-27.72
-27.27
-26.50
-25.62
-24.58
-23.07
-20.78
-17.50
-13.31
-8.54
-3.65
0.93
4.89
8.02
10.23
11.52
11.94
11.66
10.91
10.00
9.22
8.76
8.73
9.02
9.41
9.59
9.29
8.36
6.87
5.01
3.10
1.39
0.03
-1.01
-1.85
-2.68
-3.61
-4.69
-5.87
-7.08
-8.23
-9.28
-10.21
-11.05
-11.85
-12.70
-13.70
-14.86
-16.17
-17.49
-18.62
-19.40
-19.69
-19.52
-18.92
-17.96
-16.58
-14.65
-12.03
-8.69
-4.79
-0.67
3.29
6.79
9.72
12.12
14.12
15.80
17.17
18.19
18.85
19.25
19.53
19.85
20.29
20.83
21.33
21.64
21.70
21.47
21.00
20.33
19.44
18.33
17.01
15.50
13.86
12.15
10.43
8.75
7.14
5.64
4.27
3.03
1.92
0.89
-0.13
-1.18
-2.34
-3.62
-5.01
-6.42
-7.72
-8.81
-9.61
-10.15
-10.53
-10.82
-10.97
-10.81
-10.08
-8.55
-6.12
-2.89
0.89
4.89
8.82
12.41
15.45
17.77
19.28
19.98
20.05
19.75
19.39
19.17
19.13
19.13
18.99
18.55
17.72
16.57
15.22
13.80
12.46
11.24
10.18
9.30
8.58
8.00
7.50
6.97
6.27
5.27
3.90
2.25
0.50
-1.13
-2.48
-3.55
-4.51
-5.61
-7.06
-8.93
-11.15
-13.57
-16.02
-18.43
-20.79
-23.11
-25.32
-27.26
-28.67
-29.23
-28.68
-26.91
-24.02
-20.29
-16.10
-11.82
-7.77
-4.14
-1.03
1.51
3.48
4.94
6.01
6.82
7.49
8.06
8.50
8.74
8.72
8.48
8.14
7.85
7.71
7.71
7.72
7.60
7.23
6.61
5.81
4.95
4.04
3.07
1.98
0.73
-0.62
-1.90
-2.97
-3.78
-4.42
-5.10
-6.01
-7.21
-8.62
-10.05
-11.35
-12.46
-13.51
-14.75
-16.41
-18.58
-21.12
-23.69
-25.84
-27.19
-27.59
-27.11
-26.05
-24.76
-23.42
-22.00
-20.17
-17.41
-13.18
-7.12
0.76
9.93
19.36
27.69
33.58
35.99
34.49
29.35
21.60
12.69
4.27
-2.28
-6.16
-7.27
-6.22
-4.03
-1.80
-0.36
-0.17
-1.22
-3.28
-6.05
-9.29
-12.88
-16.73
-20.64
-24.18
-26.67
-27.29
-25.45
-21.13
-15.06
-8.62
-3.32
-0.20
0.50
-0.64
-2.59
-4.50
-5.99
-7.25
-8.67
-10.54
-12.77
-14.95
-16.62
-17.54
-17.71
-17.31
-16.44
-15.03
-12.85
-9.69
-5.53
-0.65
4.44
9.15
12.97
15.62
17.13
17.74
17.85
17.92
18.26
19.01
20.06
21.14
21.92
22.16
21.80
20.93
19.81
18.64
17.57
16.60
15.62
14.50
13.14
11.56
9.84
8.10
6.47
5.02
3.81
2.84
2.08
1.45
0.84
0.10
-0.89
-2.19
-3.79
-5.57
-7.39
-9.10
-10.62
-11.91
-12.97
-13.79
-14.32
-14.47
-14.06
-12.90
-10.88
-8.00
-4.39
-0.31
3.89
7.86
11.33
14.14
16.25
17.72
18.68
19.26
19.57
19.65
19.48
19.05
18.43
17.71
17.00
16.37
15.78
15.15
14.43
13.62
12.80
12.04
11.33
10.55
9.48
7.95
5.91
3.49
0.93
-1.50
-3.62
-5.41
-6.96
-8.41
-9.90
-11.50
-13.26
-15.20
-17.33
-19.65
-22.10
-24.54
-26.70
-28.33
-29.15
-28.96
-27.70
-25.41
-22.23
-18.40
-14.18
-9.82
-5.50
-1.40
2.37
5.68
8.38
10.39
11.69
12.38
12.62
12.60
12.42
12.13
11.77
11.43
11.17
11.00
10.85
10.54
9.97
9.19
8.35
7.53
6.61
5.22
2.96
-0.27
-4.08
-7.61
-9.90
-10.35
-9.12
-7.06
-5.34
-4.99
-6.40
-9.26
-12.73
-15.89
-18.11
-19.26
-19.66
-19.83
-20.26
-21.19
-22.56
-24.17
-25.70
-26.81
-27.12
-26.25
-23.88
-19.90
-14.52
-8.28
-1.95
3.75
8.27
11.44
13.36
14.32
14.65
14.62
14.41
14.15
13.90
13.67
13.43
13.10
12.59
11.89
11.02
10.11
9.29
8.65
8.20
7.79
7.27
6.48
5.37
4.01
2.56
1.20
0.03
-0.91
-1.72
-2.52
-3.42
-4.46
-5.62
-6.83
-8.05
-9.32
-10.72
-12.38
-14.39
-16.74
-19.28
-21.71
-23.67
-24.80
-24.82
-23.53
-20.96
-17.23
-12.65
-7.59
-2.40
2.62
7.31
11.59
15.42
18.71
21.38
23.29
24.38
24.75
24.62
24.26
23.96
23.85
23.90
23.98
23.93
23.65
23.16
22.50
21.78
21.00
20.12
19.07
17.79
16.32
14.75
13.17
11.64
10.17
8.74
7.31
5.85
4.30
2.68
1.01
-0.59
-2.03
-3.25
-4.34
-5.52
-7.00
-8.90
-11.12
-13.38
-15.27
-16.40
-16.48
-15.37
-13.04
-9.60
-5.25
-0.32
4.78
9.65
13.93
17.40
19.98
21.71
22.70
23.11
23.08
22.74
22.16
21.41
20.60
19.85
19.30
19.03
18.92
18.78
18.34
17.46
16.16
14.60
13.00
11.47
9.97
8.36
6.55
4.53
2.43
0.42
-1.41
-3.06
-4.67
-6.35
-8.18
-10.12
-12.09
-14.03
-15.96
-17.99
-20.27
-22.91
-25.90
-29.07
-32.13
-34.73
-36.55
-37.35
-36.98
-35.38
-32.55
-28.59
-23.75
-18.34
-12.77
-7.43
-2.68
1.25
4.26
6.39
7.82
8.82
9.70
10.70
11.91
13.28
14.66
16.00
17.35
18.85
20.59
22.49
24.21
25.30
25.36
24.19
21.87
18.69
15.03
11.23
7.47
3.83
0.28
-3.19
-6.60
-9.90
-12.95
-15.59
-17.62
-18.86
-19.21
-18.71
-17.60
-16.34
-15.51
-15.62
-16.95
-19.39
-22.46
-25.43
-27.66
-28.78
-28.71
-27.63
-25.79
-23.31
-20.18
-16.32
-11.73
-6.52
-1.03
4.29
8.97
12.63
15.10
16.41
16.74
16.33
15.42
14.15
12.66
11.09
9.64
8.57
8.05
8.14
8.67
9.30
9.66
9.51
8.80
7.70
6.45
5.25
4.15
3.02
1.70
0.08
-1.72
-3.45
-4.76
-5.41
-5.36
-4.83
-4.21
-3.94
-4.36
-5.58
-7.49
-9.78
-12.09
-14.14
-15.83
-17.19
-18.35
-19.40
-20.28
-20.82
-20.77
-19.92
-18.13
-15.38
-11.70
-7.20
-2.10
3.28
8.54
13.22
16.98
19.64
21.21
21.85
21.84
21.43
20.84
20.24
19.74
19.45
19.46
19.76
20.29
20.89
21.34
21.45
21.17
20.53
19.61
18.51
17.21
15.68
13.88
11.83
9.63
7.42
5.28
3.22
1.20
-0.83
-2.85
-4.75
-6.44
-7.88
-9.11
-10.28
-11.54
-12.99
-14.59
-16.24
-17.78
-19.07
-19.96
-20.27
-19.79
-18.27
-15.55
-11.66
-6.84
-1.56
3.65
8.36
12.34
15.53
17.98
19.72
20.69
20.86
20.23
18.98
17.42
15.87
14.65
13.89
13.57
13.53
13.56
13.49
13.20
12.65
11.88
10.95
9.91
8.75
7.43
5.92
4.18
2.28
0.33
-1.53
-3.26
-4.88
-6.52
-8.31
-10.32
-12.50
-14.71
-16.85
-18.91
-21.04
-23.39
-26.10
-29.14
-32.27
-35.11
-37.21
-38.17
-37.70
-35.72
-32.33
-27.81
-22.54
-16.94
-11.40
-6.22
-1.67
2.06
4.83
6.61
7.50
7.73
7.63
7.49
7.49
7.63
7.78
7.79
7.58
7.14
6.56
5.90
5.17
4.34
3.34
2.17
0.87
-0.44
-1.70
-2.93
-4.22
-5.72
-7.52
-9.59
-11.76
-13.87
-15.76
-17.38
-18.78
-20.07
-21.32
-22.51
-23.62
-24.63
-25.63
-26.81
-28.38
-30.45
-32.91
-35.40
-37.40
-38.40
-38.03
-36.19
-33.01
-28.81
-23.99
-18.93
-13.93
-9.22
-4.92
-1.12
2.14
4.84
6.90
8.27
8.87
8.79
8.30
7.84
7.98
9.09
11.27
14.21
17.42
20.42
22.94
25.00
26.78
28.37
29.64
30.35
30.28
29.47
28.23
27.04
26.30
26.12
26.34
26.61
26.53
25.81
24.30
21.98
18.96
15.43
11.61
7.69
3.76
-0.16
-4.09
-7.98
-11.64
-14.68
-16.66
-17.16
-15.95
-13.07
-8.88
-3.90
1.25
6.05
10.12
13.30
15.53
16.85
17.28
16.80
15.42
13.25
10.57
7.79
5.37
3.70
2.98
3.19
4.16
5.59
7.21
8.78
10.13
11.14
11.71
11.87
11.69
11.32
10.87
10.35
9.66
8.56
6.87
4.57
1.87
-0.84
-3.15
-4.88
-6.12
-7.20
-8.50
-10.24
-12.37
-14.58
-16.38
-17.34
-17.08
-15.42
-12.33
-7.93
-2.48
3.61
9.80
15.54
20.38
24.07
26.57
27.95
28.30
27.61
25.80
22.87
19.08
15.14
12.11
10.98
12.20
15.35
19.11
21.80
22.20
20.07
16.37
12.73
10.64
10.68
12.25
13.78
13.38
9.56
1.78
-9.35
-22.18
-34.44
-43.99
-49.47
-50.80
-49.16
-46.62
-45.34
-46.81
-51.29
-57.79
-64.39
-68.84
-69.27
-64.77
-55.61
-43.16
-29.35
-16.17
-5.09
3.10
8.35
11.07
12.00
12.01
12.02
12.85
15.01
18.70
23.74
29.62
35.70
41.32
45.95
49.18
50.69
50.15
47.38
42.49
36.07
29.20
23.23
19.31
17.90
18.53
20.08
21.42
21.95
21.82
21.50
21.03
19.68
16.26
9.95
1.17
-8.31
-16.11
-20.51
-21.33
-20.15
-19.38
-21.08
-25.94
-33.11
-40.88
-47.56
-52.26
-55.04
-56.52
-57.41
-58.11
-58.58
-58.57
-57.80
-56.06
-53.13
-48.68
-42.25
-33.39
-21.95
-8.34
6.39
20.73
33.17
42.58
48.52
51.29
51.75
50.98
49.95
49.16
48.44
47.02
43.91
38.52
31.08
22.68
14.79
8.49
3.96
0.53
-2.79
-6.63
-10.89
-14.95
-18.24
-20.72
-22.81
-24.97
-27.13
-28.45
-27.75
-24.07
-17.35
-8.43
1.35
10.70
18.83
25.47
30.59
34.06
35.51
34.54
31.11
25.77
19.68
14.26
10.65
9.27
9.74
11.13
12.44
13.06
12.91
12.29
11.62
11.06
10.44
9.33
7.36
4.46
0.93
-2.68
-5.81
-8.12
-9.59
-10.47
-11.12
-11.87
-12.95
-14.51
-16.67
-19.47
-22.82
-26.37
-29.52
-31.55
-31.79
-29.89
-25.89
-20.31
-13.87
-7.35
-1.41
3.55
7.42
10.29
12.44
14.15
15.74
17.47
19.51
21.95
24.77
27.79
30.67
32.94
34.10
33.80
31.93
28.69
24.53
20.03
15.73
12.05
9.16
7.02
5.38
3.87
2.12
-0.17
-3.09
-6.57
-10.39
-14.29
-18.08
-21.70
-25.21
-28.73
-32.27
-35.60
-38.21
-39.37
-38.33
-34.68
-28.50
-20.39
-11.38
-2.51
5.38
11.87
16.89
20.59
23.14
24.63
25.12
24.69
23.50
21.83
20.04
18.45
17.26
16.52
16.14
15.95
15.75
15.46
15.00
14.35
13.43
12.11
10.21
7.61
4.29
0.41
-3.78
-7.93
-11.77
-15.12
-17.95
-20.38
-22.66
-25.13
-28.09
-31.70
-35.80
-39.93
-43.30
-44.97
-44.11
-40.22
-33.33
-23.99
-13.20
-2.19
7.89
16.19
22.33
26.31
28.50
29.33
29.22
28.45
27.25
25.76
24.17
22.65
21.25
19.95
18.67
17.33
15.97
14.69
13.62
12.75
11.87
10.64
8.64
5.62
1.58
-3.13
-7.83
-11.61
-13.51
-12.77
-9.11
-2.97
4.51
11.66
16.63
17.84
14.35
6.05
-6.31
-21.19
-36.56
-50.18
-59.93
-64.21
-62.16
-53.89
-40.48
-23.83
-6.26
9.89
22.72
31.15
35.05
35.11
32.60
28.87
25.10
22.01
19.93
18.84
18.56
18.81
19.35
19.96
20.49
20.85
20.99
20.93
20.66
20.23
19.67
18.98
18.11
16.95
15.38
13.28
10.64
7.50
3.98
0.23
-3.63
-7.52
-11.39
-15.14
-18.75
-22.24
-25.74
-29.45
-33.53
-37.92
-42.23
-45.75
-47.54
-46.72
-42.74
-35.54
-25.72
-14.32
-2.63
8.12
17.01
23.56
27.74
29.83
30.33
29.71
28.41
26.76
25.00
23.35
21.98
21.05
20.61
20.63
20.92
21.25
21.40
21.23
20.69
19.81
18.61
17.06
15.03
12.44
9.33
5.86
2.32
-0.99
-3.93
-6.56
-9.07
-11.66
-14.36
-17.03
-19.47
-21.53
-23.30
-25.08
-27.26
-30.16
-33.79
-37.77
-41.42
-43.83
-44.13
-41.65
-36.18
-27.99
-17.83
-6.79
3.96
13.41
20.88
26.06
28.94
29.75
28.80
26.57
23.59
20.53
18.07
16.74
16.75
17.94
19.84
21.87
23.55
24.63
25.11
25.08
24.58
23.56
21.82
19.27
15.95
12.11
8.14
4.45
1.26
-1.37
-3.60
-5.70
-7.85
-10.17
-12.65
-15.19
-17.65
-19.91
-21.90
-23.69
-25.57
-27.98
-31.32
-35.67
-40.60
-45.02
-47.51
-46.72
-41.88
-33.11
-21.46
-8.56
3.81
14.17
21.75
26.49
28.96
29.98
30.25
30.14
29.61
28.44
26.52
24.01
21.36
19.13
17.76
17.44
18.04
19.25
20.65
21.85
22.49
22.33
21.25
19.28
16.60
13.45
10.03
6.54
3.15
-0.00
-2.84
-5.37
-7.70
-10.06
-12.61
-15.40
-18.31
-21.13
-23.71
-26.10
-28.50
-31.19
-34.34
-37.78
-40.97
-43.12
-43.34
-40.98
-35.81
-28.12
-18.71
-8.69
0.80
8.80
14.77
18.59
20.50
20.93
20.33
19.09
17.54
15.93
14.48
13.35
12.69
12.51
12.76
13.30
13.96
14.58
15.02
15.11
14.70
13.66
11.94
9.60
6.81
3.83
0.86
-1.98
-4.67
-7.27
-9.85
-12.43
-15.01
-17.50
-19.83
-21.92
-23.73
-25.26
-26.59
-27.93
-29.56
-31.75
-34.66
-38.19
-41.93
-45.10
-46.77
-46.09
-42.52
-36.07
-27.33
-17.29
-7.10
2.27
10.23
16.55
21.30
24.63
26.63
27.33
26.80
25.21
22.94
20.41
18.04
16.19
15.10
14.90
15.60
17.07
19.00
20.89
22.20
22.50
21.62
19.75
17.29
14.72
12.40
10.38
8.51
6.56
4.36
1.90
-0.71
-3.32
-5.83
-8.21
-10.52
-12.88
-15.36
-18.10
-21.22
-24.85
-28.97
-33.35
-37.49
-40.65
-42.12
-41.34
-38.10
-32.56
-25.23
-16.83
-8.21
-0.22
6.44
11.32
14.23
15.28
14.78
13.22
11.21
9.40
8.42
8.71
10.41
13.32
16.94
20.63
23.82
26.14
27.46
27.82
27.30
25.97
23.87
21.04
17.62
13.80
9.85
6.06
2.70
-0.04
-2.04
-3.27
-3.77
-3.75
-3.46
-3.20
-3.21
-3.67
-4.68
-6.31
-8.57
-11.41
-14.63
-17.75
-20.13
-21.07
-20.11
-17.23
-12.90
-8.03
-3.63
-0.54
0.91
1.01
0.56
0.64
2.14
5.37
9.91
14.64
18.25
19.65
18.48
15.17
10.75
6.40
3.09
1.35
1.30
2.65
4.85
7.17
8.79
9.00
7.40
4.08
-0.41
-5.21
-9.45
-12.53
-14.27
-14.89
-14.88
-14.80
-15.12
-16.06
-17.58
-19.40
-21.07
-22.20
-22.56
-22.27
-21.71
-21.48
-22.10
-23.86
-26.57
-29.59
-31.92
-32.57
-30.79
-26.33
-19.57
-11.33
-2.68
5.40
12.17
17.29
20.83
23.06
24.39
25.19
25.68
25.97
26.08
26.06
25.97
25.89
25.84
25.79
25.63
25.29
24.76
24.09
23.35
22.53
21.48
19.98
17.83
15.02
11.78
8.49
5.56
3.21
1.41
-0.07
-1.56
-3.28
-5.33
-7.59
-9.82
-11.80
-13.42
-14.70
-15.88
-17.29
-19.28
-22.08
-25.57
-29.26
-32.34
-33.96
-33.43
-30.53
-25.50
-18.93
-11.59
-4.18
2.74
8.78
13.66
17.28
19.66
20.98
21.55
21.64
21.53
21.35
21.15
20.95
20.71
20.42
20.10
19.74
19.34
18.86
18.25
17.43
16.35
15.02
13.46
11.71
9.79
7.70
5.46
3.11
0.78
-1.40
-3.36
-5.12
-6.80
-8.53
-10.40
-12.34
-14.23
-15.96
-17.46
-18.81
-20.22
-21.92
-24.14
-26.96
-30.27
-33.76
-36.88
-38.99
-39.49
-37.96
-34.31
-28.79
-21.95
-14.51
-7.18
-0.48
5.24
9.93
13.66
16.61
18.90
20.57
21.65
22.09
21.96
21.39
20.58
19.75
19.09
18.70
18.59
18.68
18.78
18.71
18.30
17.44
16.14
14.51
12.67
10.76
8.85
6.98
5.17
3.46
1.87
0.41
-0.96
-2.30
-3.70
-5.18
-6.72
-8.26
-9.80
-11.32
-12.85
-14.42
-16.03
-17.77
-19.78
-22.28
-25.41
-29.15
-33.15
-36.72
-39.02
-39.34
-37.33
-33.11
-27.24
-20.51
-13.66
-7.23
-1.50
3.48
7.75
11.36
14.33
16.59
18.06
18.74
18.71
18.16
17.33
16.44
15.70
15.22
15.00
15.03
15.19
15.38
15.44
15.26
14.72
13.81
12.53
10.98
9.27
7.50
5.75
4.07
2.49
1.01
-0.33
-1.50
-2.44
-3.18
-3.73
-4.23
-4.81
-5.65
-6.87
-8.47
-10.36
-12.38
-14.43
-16.45
-18.53
-20.74
-23.09
-25.39
-27.30
-28.40
-28.27
-26.68
-23.60
-19.21
-13.85
-7.94
-1.90
3.88
9.09
13.54
17.11
19.76
21.50
22.45
22.76
22.63
22.28
21.90
21.59
21.43
21.44
21.62
21.90
22.18
22.29
22.03
21.28
20.05
18.48
16.79
15.19
13.76
12.46
11.17
9.78
8.24
6.60
4.98
3.47
2.06
0.68
-0.79
-2.45
-4.30
-6.26
-8.18
-9.97
-11.61
-13.21
-14.90
-16.81
-19.04
-21.61
-24.44
-27.42
-30.33
-32.89
-34.72
-35.44
-34.69
-32.29
-28.26
-22.88
-16.59
-9.95
-3.48
2.37
7.30
11.17
13.99
15.93
17.18
17.95
18.39
18.60
18.66
18.67
18.81
19.25
20.13
21.43
22.92
24.24
24.97
24.68
23.13
20.28
16.31
11.65
6.85
2.54
-0.79
-2.89
-3.89
-4.26
-4.68
-5.81
-8.03
-11.26
-14.95
-18.34
-20.77
-21.95
-22.09
-21.74
-21.55
-21.91
-22.90
-24.31
-25.86
-27.39
-28.91
-30.46
-32.02
-33.37
-34.09
-33.83
-32.30
-29.50
-25.64
-21.00
-15.91
-10.59
-5.23
0.02
4.91
9.20
12.67
15.23
16.91
17.88
18.39
18.67
18.86
19.02
19.12
19.11
19.02
18.95
19.07
19.45
20.04
20.58
20.72
20.20
18.93
17.11
15.10
13.23
11.70
10.49
9.41
8.23
6.80
5.13
3.28
1.38
-0.50
-2.31
-4.04
-5.70
-7.28
-8.77
-10.12
-11.32
-12.42
-13.56
-14.92
-16.68
-18.89
-21.49
-24.26
-26.95
-29.27
-30.98
-31.85
-31.58
-29.88
-26.57
-21.68
-15.57
-8.84
-2.20
3.73
8.56
12.17
14.58
15.92
16.33
16.00
15.17
14.17
13.34
12.96
13.10
13.67
14.40
15.06
15.45
15.52
15.31
14.87
14.30
13.62
12.86
12.03
11.12
10.12
9.01
7.75
6.35
4.83
3.27
1.72
0.22
-1.23
-2.60
-3.89
-5.06
-6.14
-7.23
-8.43
-9.84
-11.46
-13.24
-15.11
-17.09
-19.27
-21.75
-24.49
-27.28
-29.67
-31.15
-31.28
-29.82
-26.83
-22.55
-17.32
-11.53
-5.53
0.32
5.68
10.25
13.80
16.25
17.66
18.26
18.30
18.06
17.73
17.47
17.37
17.52
17.96
18.69
19.58
20.44
21.03
21.20
20.92
20.28
19.44
18.51
17.51
16.35
14.96
13.34
11.55
9.74
8.07
6.62
5.40
4.38
3.49
2.64
1.75
0.74
-0.50
-2.02
-3.83
-5.87
-8.11
-10.51
-13.13
-16.02
-19.22
-22.63
-26.05
-29.15
-31.61
-33.08
-33.27
-31.98
-29.11
-24.74
-19.19
-13.00
-6.82
-1.25
3.35
6.89
9.51
11.40
12.72
13.55
13.98
14.23
14.59
15.33
16.51
17.91
19.12
19.75
19.64
18.94
17.94
16.89
15.81
14.51
12.70
10.23
7.22
4.00
1.01
-1.39
-3.05
-4.02
-4.47
-4.65
-4.78
-5.02
-5.48
-6.19
-7.18
-8.43
-9.95
-11.70
-13.65
-15.73
-17.89
-20.06
-22.25
-24.46
-26.71
-28.97
-31.07
-32.68
-33.40
-32.79
-30.56
-26.63
-21.24
-14.84
-8.04
-1.44
4.49
9.47
13.41
16.35
18.36
19.55
19.98
19.76
19.07
18.12
17.20
16.55
16.35
16.62
17.23
17.98
18.62
18.95
18.86
18.31
17.36
16.13
14.75
13.35
11.97
10.61
9.16
7.49
5.55
3.36
1.05
-1.17
-3.13
-4.72
-5.99
-7.10
-8.23
-9.52
-11.02
-12.71
-14.54
-16.49
-18.60
-20.90
-23.35
-25.81
-28.05
-29.76
-30.62
-30.34
-28.71
-25.66
-21.31
-15.96
-10.06
-4.08
1.56
6.57
10.82
14.24
16.76
18.34
18.96
18.74
17.91
16.82
15.85
15.29
15.23
15.61
16.20
16.72
16.97
16.85
16.37
15.65
14.81
13.93
13.02
12.06
10.99
9.82
8.55
7.27
6.03
4.87
3.81
2.77
1.69
0.53
-0.70
-1.94
-3.11
-4.19
-5.23
-6.34
-7.66
-9.27
-11.21
-13.44
-15.88
-18.40
-20.90
-23.16
-24.93
-25.87
-25.61
-23.86
-20.57
-15.91
-10.29
-4.30
1.53
6.78
11.26
14.96
17.94
20.23
21.77
22.51
22.45
21.79
20.87
20.08
19.66
19.62
19.79
19.92
19.85
19.59
19.22
18.83
18.32
17.48
16.09
14.07
11.56
8.83
6.15
3.66
1.32
-0.93
-3.07
-4.93
-6.24
-6.83
-6.81
-6.57
-6.64
-7.48
-9.19
-11.45
-13.65
-15.21
-15.87
-15.81
-15.65
-16.12
-17.70
-20.40
-23.74
-26.93
-29.17
-29.90
-28.89
-26.21
-22.15
-17.04
-11.27
-5.28
0.47
5.49
9.43
12.09
13.55
14.08
14.06
13.85
13.70
13.71
13.88
14.17
14.52
14.91
15.31
15.66
15.85
15.77
15.32
14.48
13.32
11.92
10.40
8.82
7.21
5.54
3.76
1.88
-0.15
-2.31
-4.56
-6.76
-8.70
-10.14
-10.89
-10.94
-10.50
-9.89
-9.49
-9.51
-10.03
-10.96
-12.15
-13.54
-15.19
-17.25
-19.86
-23.01
-26.38
-29.35
-31.10
-30.92
-28.45
-23.93
-18.12
-12.04
-6.64
-2.41
0.64
2.94
5.02
7.31
9.95
12.79
15.52
17.83
19.46
20.33
20.45
19.98
19.17
18.24
17.43
16.84
16.52
16.38
16.28
16.07
15.62
14.86
13.82
12.55
11.15
9.74
8.43
7.29
6.32
5.47
4.60
3.58
2.34
0.93
-0.51
-1.82
-2.91
-3.81
-4.66
-5.60
-6.75
-8.17
-9.87
-11.90
-14.29
-17.04
-20.05
-23.01
-25.52
-27.14
-27.47
-26.29
-23.52
-19.29
-13.89
-7.81
-1.63
4.01
8.64
12.02
14.19
15.42
16.08
16.44
16.61
16.56
16.18
15.44
14.43
13.36
12.46
11.96
11.95
12.40
13.18
14.06
14.86
15.36
15.47
15.14
14.45
13.51
12.47
11.41
10.38
9.34
8.28
7.28
6.40
5.68
5.11
4.64
4.35
4.39
5.01
6.26
7.93
9.43
9.96
8.73
5.22
-0.65
-8.52
-17.60
-26.84
-35.00
-40.84
-43.38
-42.11
-37.21
-29.55
-20.45
-11.31
-3.30
2.89
7.03
9.35
10.36
10.68
10.86
11.16
11.47
11.31
10.10
7.52
3.81
-0.19
-3.31
-4.61
-3.80
-1.34
1.74
4.40
5.95
6.25
5.58
4.31
2.70
0.84
-1.28
-3.55
-5.74
-7.50
-8.57
-8.89
-8.68
-8.32
-8.28
-8.88
-10.19
-12.03
-14.03
-15.73
-16.82
-17.22
-17.09
-16.83
-16.80
-17.23
-18.10
-19.14
-19.96
-20.18
-19.52
-17.83
-15.09
-11.43
-7.08
-2.32
2.47
6.97
10.90
14.09
16.49
18.11
19.04
19.36
19.22
18.80
18.28
17.85
17.59
17.49
17.42
17.23
16.77
15.97
14.86
13.54
12.10
10.62
9.14
7.63
6.11
4.60
3.12
1.72
0.37
-0.99
-2.48
-4.19
-6.12
-8.18
-10.22
-12.06
-13.61
-14.83
-15.77
-16.48
-17.04
-17.55
-18.15
-19.00
-20.23
-21.81
-23.53
-24.99
-25.72
-25.36
-23.71
-20.82
-16.89
-12.22
-7.19
-2.19
2.43
6.37
9.50
11.81
13.44
14.56
15.29
15.69
15.78
15.60
15.22
14.79
14.48
14.37
14.42
14.49
14.40
13.98
13.18
12.10
10.92
9.88
9.17
8.92
9.13
9.68
10.33
10.76
10.63
9.66
7.77
5.13
2.05
-1.07
-3.91
-6.35
-8.52
-10.65
-13.01
-15.69
-18.57
-21.37
-23.70
-25.26
-25.87
-25.53
-24.26
-22.09
-19.02
-15.02
-10.15
-4.57
1.39
7.41
13.09
18.18
22.43
25.72
27.94
29.05
29.02
27.92
25.95
23.42
20.73
18.33
16.55
15.55
15.26
15.40
15.59
15.45
14.75
13.43
11.60
9.49
7.37
5.44
3.80
2.40
1.09
-0.28
-1.78
-3.41
-5.07
-6.67
-8.14
-9.46
-10.73
-12.12
-13.79
-15.83
-18.20
-20.64
-22.76
-24.09
-24.21
-22.84
-19.96
-15.80
-10.76
-5.31
0.08
5.03
9.27
12.65
15.10
16.66
17.47
17.75
17.74
17.66
17.62
17.58
17.45
17.14
16.63
15.98
15.29
14.57
13.74
12.67
11.23
9.38
7.24
4.97
2.80
0.87
-0.75
-2.08
-3.23
-4.34
-5.53
-6.89
-8.42
-10.06
-11.66
-13.12
-14.40
-15.67
-17.18
-19.19
-21.81
-24.91
-28.06
-30.71
-32.26
-32.23
-30.41
-26.87
-21.96
-16.24
-10.32
-4.74
0.17
4.29
7.73
10.70
13.33
15.69
17.67
19.10
19.85
19.89
19.32
18.36
17.31
16.43
15.92
15.80
15.87
15.75
14.94
13.08
10.08
6.21
1.98
-1.98
-5.21
-7.52
-9.00
-9.90
-10.41
-10.69
-10.76
-10.65
-10.42
-10.16
-9.97
-9.87
-9.85
-9.97
-10.44
-11.68
-14.11
-17.94
-22.96
-28.51
-33.63
-37.41
-39.24
-38.92
-36.58
-32.55
-27.18
-20.83
-13.99
-7.20
-1.08
3.99
7.94
11.05
13.77
16.43
19.02
21.15
22.29
22.04
20.34
17.59
14.44
11.55
9.37
7.99
7.26
6.88
6.64
6.47
6.43
6.62
7.05
7.61
8.12
8.38
8.30
7.89
7.22
6.34
5.23
3.89
2.34
0.73
-0.72
-1.80
-2.44
-2.73
-2.88
-3.14
-3.69
-4.62
-5.91
-7.51
-9.31
-11.19
-13.05
-14.75
-16.15
-17.13
-17.52
-17.16
-15.91
-13.66
-10.39
-6.22
-1.37
3.76
8.75
13.14
16.63
19.08
20.58
21.33
21.63
21.70
21.70
21.68
21.62
21.51
21.33
21.10
20.86
20.60
20.30
19.91
19.34
18.52
17.37
15.90
14.17
12.27
10.31
8.41
6.63
5.00
3.50
2.06
0.60
-0.95
-2.57
-4.18
-5.62
-6.80
-7.72
-8.57
-9.63
-11.16
-13.27
-15.82
-18.43
-20.62
-21.97
-22.14
-21.05
-18.71
-15.30
-11.13
-6.52
-1.86
2.54
6.42
9.69
12.35
14.48
16.10
17.22
17.82
17.91
17.55
16.91
16.20
15.58
15.16
14.93
14.79
14.65
14.43
14.10
13.68
13.17
12.55
11.73
10.57
8.98
6.94
4.57
2.11
-0.16
-1.97
-3.18
-3.86
-4.24
-4.67
-5.44
-6.72
-8.47
-10.54
-12.73
-14.94
-17.20
-19.62
-22.27
-25.09
-27.88
-30.24
-31.79
-32.17
-31.15
-28.67
-24.83
-19.91
-14.29
-8.49
-2.99
1.79
5.58
8.33
10.16
11.30
12.02
12.54
12.96
13.32
13.56
13.62
13.45
13.05
12.48
11.83
11.21
10.73
10.46
10.40
10.46
10.48
10.22
9.46
8.10
6.12
3.69
1.01
-1.67
-4.13
-6.22
-7.89
-9.19
-10.21
-11.09
-11.95
-12.81
-13.63
-14.38
-15.10
-15.97
-17.25
-19.10
-21.49
-24.17
-26.73
-28.83
-30.33
-31.25
-31.73
-31.71
-30.93
-28.96
-25.41
-20.28
-13.99
-7.38
-1.39
3.25
6.24
7.78
8.40
8.71
9.17
9.92
10.87
11.81
12.62
13.29
13.95
14.69
15.54
16.42
17.23
17.90
18.44
18.87
19.21
19.41
19.40
19.13
18.67
18.12
17.67
17.48
17.59
17.90
18.08
17.66
16.12
13.16
8.95
4.18
-0.11
-2.96
-3.96
-3.51
-2.72
-2.94
-5.13
-9.37
-14.79
-19.89
-23.19
-23.76
-21.56
-17.37
-12.28
-7.24
-2.73
1.27
4.98
8.48
11.51
13.55
14.09
12.97
10.48
7.25
3.98
1.20
-0.85
-2.19
-2.93
-3.12
-2.74
-1.73
-0.13
1.86
3.90
5.59
6.57
6.75
6.25
5.44
4.71
4.31
4.21
4.13
3.69
2.61
0.84
-1.39
-3.74
-5.88
-7.60
-8.90
-9.89
-10.77
-11.73
-12.98
-14.59
-16.61
-18.89
-21.17
-23.08
-24.23
-24.29
-23.09
-20.62
-17.07
-12.70
-7.82
-2.77
2.12
6.58
10.34
13.25
15.22
16.30
16.64
16.45
15.92
15.26
14.58
13.95
13.41
12.98
12.67
12.45
12.25
12.01
11.66
11.14
10.43
9.49
8.29
6.76
4.91
2.83
0.72
-1.20
-2.76
-3.97
-4.98
-6.03
-7.30
-8.81
-10.46
-12.08
-13.54
-14.82
-16.00
-17.22
-18.59
-20.17
-21.93
-23.83
-25.70
-27.28
-28.17
-27.91
-26.20
-22.98
-18.54
-13.37
-8.03
-2.97
1.61
5.62
8.98
11.58
13.24
13.87
13.61
12.85
12.07
11.66
11.69
11.96
12.13
11.96
11.43
10.78
10.26
9.95
9.75
9.47
8.95
8.20
7.33
6.38
5.26
3.74
1.71
-0.66
-2.85
-4.24
-4.42
-3.49
-2.10
-1.14
-1.37
-3.00
-5.64
-8.48
-10.73
-11.98
-12.35
-12.40
-12.75
-13.76
-15.30
-16.85
-17.75
-17.47
-15.80
-12.91
-9.17
-4.96
-0.59
3.80
8.09
12.15
15.74
18.53
20.24
20.74
20.16
18.93
17.58
16.60
16.25
16.49
17.04
17.53
17.68
17.33
16.50
15.28
13.76
12.03
10.14
8.14
6.08
4.01
1.97
-0.04
-2.04
-4.04
-6.09
-8.18
-10.26
-12.22
-14.00
-15.57
-17.01
-18.49
-20.21
-22.27
-24.61
-26.97
-28.91
-30.00
-29.84
-28.19
-24.99
-20.42
-14.85
-8.81
-2.90
2.39
6.72
10.01
12.37
14.00
15.10
15.83
16.33
16.79
17.51
18.84
20.98
23.87
27.13
30.19
32.56
34.00
34.56
34.48
33.93
32.85
31.02
28.16
24.16
19.12
13.33
7.13
0.87
-5.14
-10.47
-14.57
-16.81
-16.70
-14.19
-9.87
-5.00
-1.24
-0.10
-2.36
-7.66
-14.66
-21.57
-26.94
-30.21
-31.70
-32.13
-32.00
-31.30
-29.67
-26.88
-23.33
-20.01
-18.10
-18.29
-20.32
-23.05
-24.98
-25.01
-22.96
-19.67
-16.63
-15.29
-16.48
-20.05
-24.97
-29.84
-33.56
-35.85
-37.33
-39.20
-42.62
-48.17
-55.50
-63.65
-71.45
-78.08
-83.35
-87.75
-92.08
-97.25
-104.11
-113.33
-125.05
-138.24
-150.19
-156.74
-153.43
-137.43
-109.17
-72.56
-33.46
2.81
33.74
60.20
85.12
111.15
138.76
165.95
189.42
206.37
215.61
217.53
213.29
204.08
191.16
176.63
163.77
156.67
158.66
170.41
189.05
208.85
223.47
228.45
222.72
208.41
189.26
168.80
149.24
131.58
116.23
103.75
94.79
89.60
87.45
86.70
85.35
81.89
75.84
67.81
58.99
50.60
43.31
37.04
31.17
24.93
17.87
10.27
3.04
-2.68
-6.27
-8.03
-9.11
-11.02
-14.79
-20.55
-27.49
-34.41
-40.34
-44.96
-48.52
-51.49
-54.11
-56.28
-57.62
-57.80
-56.85
-55.24
-53.78
-53.37
-54.66
-57.79
-62.26
-67.00
-70.74
-72.45
-71.80
-69.31
-66.11
-63.41
-62.04
-62.14
-63.29
-64.77
-65.87
-65.96
-64.53
-61.13
-55.62
-48.51
-41.18
-35.51
-33.06
-33.94
-36.28
-36.82
-32.30
-21.20
-4.56
14.62
33.10
49.09
62.86
75.78
88.38
98.86
102.91
95.24
72.12
33.38
-17.05
-72.34
-125.17
-169.94
-204.10
-228.01
-243.88
-254.37
-261.42
-265.84
-267.29
-264.90
-257.93
-246.34
-231.07
-213.97
-197.23
-182.75
-171.54
-163.34
-156.50
-148.21
-134.96
-113.48
-81.92
-40.95
5.63
51.47
89.44
114.01
123.24
119.35
107.58
93.86
82.54
75.27
71.24
68.55
65.47
61.15
55.59
49.11
41.99
34.33
26.32
18.40
11.40
6.21
3.43
3.15
4.90
7.95
11.67
15.76
20.28
25.39
31.06
36.85
41.88
45.10
45.66
43.38
38.88
33.59
29.40
28.14
30.80
36.92
44.32
49.52
48.93
40.37
24.21
3.59
-16.66
-31.89
-39.44
-39.42
-34.35
-27.70
-22.40
-19.99
-20.55
-23.38
-27.68
-32.90
-38.59
-44.12
-48.55
-50.75
-49.82
-45.53
-38.50
-30.05
-21.74
-14.80
-9.74
-6.30
-3.82
-1.67
0.38
2.11
3.05
2.89
1.69
-0.13
-1.98
-3.39
-4.09
-4.01
-3.14
-1.48
0.94
4.00
7.45
10.99
14.25
16.96
18.88
19.90
20.02
19.48
18.72
18.30
18.70
20.10
22.32
24.88
27.23
28.98
30.02
30.50
30.64
30.55
30.14
29.21
27.62
25.40
22.78
20.13
17.72
15.60
13.60
11.42
8.81
5.79
2.55
-0.57
-3.32
-5.65
-7.75
-9.90
-12.36
-15.31
-18.73
-22.52
-26.50
-30.41
-33.85
-36.29
-37.18
-36.07
-32.80
-27.60
-21.03
-13.77
-6.45
0.50
6.83
12.40
17.10
20.84
23.55
25.27
26.17
26.52
26.68
27.00
27.79
29.21
31.24
33.63
35.90
37.47
37.83
36.71
34.28
31.03
27.60
24.58
22.25
20.58
19.34
18.27
17.22
16.12
14.96
13.63
11.97
9.86
7.36
4.68
2.11
-0.19
-2.31
-4.56
-7.31
-10.78
-14.86
-19.14
-22.98
-25.67
-26.61
-25.41
-22.00
-16.60
-9.69
-1.98
5.82
13.06
19.29
24.32
28.10
30.74
32.39
33.18
33.25
32.76
31.95
31.09
30.48
30.29
30.52
30.98
31.36
31.38
30.91
29.99
28.83
27.61
26.47
25.49
24.65
23.98
23.54
23.45
23.81
24.61
25.71
26.84
27.63
27.69
26.71
24.52
21.16
16.88
12.17
7.56
3.49
0.22
-2.32
-4.54
-7.07
-10.54
-15.41
-21.67
-28.77
-35.62
-40.87
-43.30
-42.32
-38.14
-31.71
-24.31
-16.96
-10.13
-3.64
2.93
9.83
16.74
22.90
27.43
29.78
29.97
28.51
26.08
23.21
20.13
16.89
13.58
10.45
7.89
6.28
5.76
6.16
7.08
8.05
8.72
8.93
8.69
8.06
7.17
6.13
5.02
3.86
2.62
1.23
-0.37
-2.22
-4.21
-6.23
-8.12
-9.74
-11.01
-11.89
-12.40
-12.65
-12.92
-13.58
-15.03
-17.55
-21.12
-25.36
-29.63
-33.13
-35.11
-35.04
-32.70
-28.21
-22.01
-14.75
-7.20
-0.13
5.88
10.50
13.68
15.63
16.66
17.05
17.05
16.89
16.88
17.47
19.11
22.11
26.46
31.77
37.45
42.94
47.96
52.46
56.46
59.81
62.03
62.45
60.46
55.78
48.69
39.90
30.37
21.02
12.53
5.26
-0.79
-5.93
-10.62
-15.28
-20.11
-24.86
-28.92
-31.55
-32.24
-31.06
-28.70
-26.32
-25.08
-25.71
-28.27
-32.22
-36.66
-40.70
-43.62
-45.03
-44.79
-42.94
-39.61
-34.76
-28.06
-18.83
-6.21
10.28
30.19
51.83
72.55
89.47
100.48
104.80
102.98
96.37
86.29
73.61
58.68
41.70
23.18
4.06
-14.43
-31.15
-45.37
-56.66
-64.61
-68.45
-67.14
-59.91
-46.96
-29.95
-11.91
3.57
13.38
15.77
10.55
-1.26
-18.03
-37.99
-59.36
-80.28
-98.80
-113.12
-122.07
-125.34
-123.48
-117.45
-108.26
-96.63
-83.07
-68.09
-52.34
-36.62
-21.69
-8.17
3.58
13.38
21.15
26.90
30.77
33.10
34.31
34.82
34.86
34.41
33.31
31.46
28.97
26.28
23.99
22.60
22.35
23.08
24.31
25.42
25.85
25.21
23.34
20.21
15.98
10.90
5.33
-0.28
-5.46
-9.91
-13.45
-16.11
-17.93
-18.91
-18.89
-17.65
-14.98
-10.73
-4.91
2.27
10.38
18.70
26.28
32.11
35.45
36.06
34.36
31.29
27.95
25.27
23.72
23.35
23.93
25.21
27.06
29.43
32.31
35.59
39.03
42.25
44.83
46.38
46.60
45.35
42.59
38.47
33.20
27.04
20.34
13.46
6.76
0.57
-4.90
-9.54
-13.39
-16.58
-19.26
-21.49
-23.22
-24.38
-24.96
-25.09
-25.04
-25.08
-25.38
-25.90
-26.38
-26.42
-25.66
-23.88
-21.07
-17.42
-13.24
-8.93
-4.81
-1.16
1.83
4.08
5.58
6.39
6.66
6.63
6.51
6.49
6.66
6.97
7.27
7.38
7.20
6.69
5.95
5.06
4.07
2.95
1.61
-0.00
-1.86
-3.83
-5.69
-7.26
-8.41
-9.09
-9.32
-9.11
-8.50
-7.59
-6.59
-5.83
-5.73
-6.57
-8.44
-11.11
-14.09
-16.72
-18.40
-18.67
-17.37
-14.64
-10.85
-6.54
-2.22
1.61
4.67
6.85
8.17
8.77
8.83
8.55
8.09
7.60
7.22
7.02
7.02
7.21
7.49
7.80
8.08
8.28
8.37
8.29
7.96
7.27
6.17
4.58
2.53
0.07
-2.66
-5.50
-8.23
-10.71
-12.87
-14.80
-16.68
-18.73
-21.03
-23.46
-25.69
-27.23
-27.57
-26.37
-23.56
-19.33
-14.09
-8.33
-2.52
2.94
7.77
11.73
14.61
16.27
16.70
16.01
14.55
12.76
11.12
9.95
9.35
9.25
9.41
9.64
9.82
9.91
9.94
9.90
9.75
9.38
8.62
7.34
5.51
3.25
0.78
-1.63
-3.77
-5.57
-7.13
-8.61
-10.25
-12.20
-14.49
-17.08
-19.81
-22.38
-24.36
-25.24
-24.56
-22.11
-17.99
-12.65
-6.72
-0.86
4.42
8.82
12.23
14.60
15.90
16.18
15.53
14.21
12.61
11.15
10.16
9.79
9.98
10.51
11.15
11.69
12.05
12.23
12.23
11.92
11.11
9.58
7.21
4.12
0.64
-2.74
-5.59
-7.75
-9.41
-11.09
-13.38
-16.77
-21.38
-26.94
-32.87
-38.43
-42.99
-46.13
-47.84
-48.46
-48.68
-49.25
-50.77
-53.41
-56.73
-59.63
-60.47
-57.34
-48.61
-33.32
-11.53
15.67
46.43
78.59
110.15
139.60
165.99
188.77
207.50
221.77
231.29
236.10
236.83
234.61
230.76
226.41
222.09
217.68
212.60
206.20
198.07
188.00
175.86
161.20
143.07
120.28
92.00
58.39
21.13
-16.85
-52.10
-81.82
-104.64
-120.80
-131.52
-137.96
-140.53
-138.83
-132.20
-120.59
-105.13
-87.99
-71.72
-58.30
-48.54
-42.07
-38.01
-35.66
-35.04
-36.74
-41.29
-48.48
-57.01
-64.96
-70.57
-73.13
-73.16
-72.09
-71.35
-71.65
-72.71
-73.75
-74.09
-73.54
-72.38
-71.05
-69.86
-69.00
-68.65
-68.98
-70.24
-72.55
-75.71
-78.98
-81.18
-81.04
-77.95
-72.27
-65.42
-59.46
-56.35
-56.97
-60.50
-64.45
-65.66
-62.19
-53.86
-42.25
-29.63
-17.81
-7.49
1.66
10.32
18.86
25.98
30.27
31.19
29.67
27.57
26.56
27.20
28.96
30.81
30.28
25.59
15.83
0.82
-19.64
-46.28
-79.87
-120.23
-165.41
-214.24
-265.00
-315.70
-363.69
-405.54
-437.13
-454.11
-453.03
-420.15
-351.01
-252.80
-143.46
-43.06
36.04
93.25
135.68
171.29
204.22
232.01
250.46
257.38
254.94
248.29
242.77
241.33
243.54
246.58
245.78
239.39
228.14
216.00
207.53
205.07
207.08
208.64
203.99
188.24
160.19
121.54
78.87
39.51
9.25
-8.65
-13.90
-9.14
-0.09
5.09
0.57
-16.47
-45.32
-81.55
-118.25
-148.15
-165.62
-168.42
-157.64
-136.69
-109.85
-80.96
-52.68
-26.57
-3.72
14.61
26.96
32.71
31.71
24.99
14.47
2.45
-9.19
-19.43
-28.05
-35.19
-41.04
-45.39
-47.50
-46.13
-39.90
-28.00
-11.21
7.67
24.22
33.76
33.09
21.79
2.34
-21.22
-44.99
-66.67
-85.93
-103.66
-120.95
-138.14
-154.65
-169.28
-180.98
-189.41
-195.12
-199.15
-202.34
-204.67
-204.92
-200.99
-190.67
-172.57
-146.55
-113.69
-75.86
-35.31
5.42
43.63
76.52
101.56
117.05
122.54
119.01
108.48
93.37
75.86
57.56
39.71
23.59
11.05
4.41
5.93
16.74
36.23
61.98
90.77
119.95
148.69
178.17
210.48
246.86
286.14
324.38
355.81
374.79
377.69
364.02
336.36
299.25
257.74
215.94
176.49
140.54
108.40
80.15
55.96
35.94
19.91
7.20
-3.22
-12.27
-20.18
-26.28
-29.26
-27.85
-21.62
-11.53
0.27
11.09
18.56
21.25
18.99
12.54
3.17
-7.80
-19.32
-30.53
-40.71
-49.23
-55.60
-59.59
-61.29
-61.11
-59.63
-57.38
-54.71
-51.76
-48.52
-44.94
-41.06
-36.95
-32.69
-28.29
-23.74
-19.07
-14.44
-10.11
-6.48
-3.88
-2.49
-2.22
-2.71
-3.45
-3.93
-3.86
-3.26
-2.46
-1.97
-2.24
-3.46
-5.32
-7.08
-7.56
-5.62
-0.41
8.23
19.68
32.68
45.69
57.27
66.39
72.61
75.91
76.64
75.32
72.61
69.34
66.39
64.58
64.40
65.89
68.57
71.59
74.00
75.00
74.08
71.08
66.05
59.17
50.63
40.69
29.57
17.43
4.27
-10.07
-25.72
-42.50
-59.62
-75.66
-88.89
-97.86
-102.06
-102.26
-100.29
-98.43
-98.59
-101.69
-107.42
-114.57
-121.52
-126.76
-129.17
-128.09
-123.22
-114.55
-102.38
-87.47
-71.00
-54.51
-39.51
-27.17
-17.96
-11.72
-7.81
-5.48
-4.14
-3.44
-3.21
-3.27
-3.28
-2.70
-0.93
2.50
7.66
14.06
20.69
26.29
29.72
30.43
28.63
25.27
21.68
19.00
17.83
18.01
18.82
19.44
19.37
18.62
17.75
17.64
19.17
22.91
29.03
37.16
46.44
55.65
63.49
69.07
72.25
73.82
75.22
77.92
82.56
88.54
93.87
95.71
91.31
78.95
58.71
32.47
3.35
-25.35
-51.20
-73.19
-91.61
-107.40
-121.32
-133.43
-143.23
-150.18
-154.35
-156.56
-158.06
-159.82
-161.92
-163.50
-163.29
-160.31
-154.45
-146.55
-138.00
-130.12
-123.59
-118.32
-113.69
-108.96
-103.69
-97.95
-92.25
-87.34
-83.88
-82.23
-82.29
-83.49
-84.85
-85.38
-84.43
-81.97
-78.43
-74.39
-70.19
-65.90
-61.55
-57.44
-54.20
-52.44
-52.11
-52.09
-50.43
-45.10
-35.05
-20.83
-4.50
11.28
24.33
33.76
40.00
44.27
47.84
51.46
55.22
58.70
61.40
63.01
63.48
62.87
61.22
58.49
54.69
50.03
44.89
39.78
34.99
30.49
25.97
21.09
15.92
11.17
8.18
8.69
14.31
26.03
43.77
66.30
91.34
116.10
137.88
154.80
166.17
172.57
175.33
175.85
175.03
172.92
168.94
162.30
152.58
140.03
125.66
110.94
97.36
85.97
77.10
70.32
64.67
59.03
52.53
44.79
35.94
26.50
17.06
8.13
0.03
-7.07
-13.14
-18.19
-22.40
-26.07
-29.61
-33.37
-37.44
-41.51
-44.81
-46.40
-45.44
-41.60
-35.30
-27.68
-20.21
-14.30
-10.81
-9.83
-10.83
-12.96
-15.39
-17.55
-19.11
-19.88
-19.64
-18.20
-15.46
-11.59
-7.07
-2.62
1.11
3.73
5.31
6.20
6.80
7.34
7.77
7.86
7.34
6.10
4.14
1.53
-1.78
-5.94
-11.04
-16.98
-23.40
-29.72
-35.39
-39.99
-43.23
-44.91
-44.73
-42.26
-37.13
-29.25
-19.05
-7.48
4.22
14.81
23.37
29.49
33.15
34.59
34.17
32.27
29.33
25.87
22.49
19.73
17.92
17.03
16.72
16.49
15.91
14.79
13.21
11.41
9.55
7.63
5.48
2.91
-0.14
-3.50
-6.88
-10.05
-12.98
-15.86
-19.01
-22.62
-26.68
-30.93
-35.08
-39.04
-42.95
-47.09
-51.54
-55.88
-59.01
-59.44
-55.74
-47.28
-34.67
-19.87
-5.69
5.11
10.80
11.27
8.04
3.65
0.64
0.68
3.91
8.77
12.37
11.06
1.38
-18.85
-49.43
-86.96
-124.99
-155.33
-170.48
-166.36
-143.98
-109.40
-71.62
-39.25
-17.61
-7.52
-6.01
-8.57
-11.48
-13.09
-13.63
-14.03
-14.73
-15.24
-14.62
-12.39
-9.19
-6.63
-6.54
-9.84
-15.89
-22.62
-27.31
-27.76
-23.16
-14.39
-3.52
7.07
15.62
21.58
25.51
28.62
31.92
35.77
39.65
42.53
43.49
42.19
39.11
35.37
32.23
30.63
30.87
32.57
34.92
36.95
37.94
37.58
36.03
33.79
31.44
29.44
27.93
26.75
25.55
24.01
22.04
19.76
17.44
15.32
13.49
11.84
10.10
7.99
5.32
2.06
-1.67
-5.64
-9.48
-12.80
-15.15
-16.06
-15.16
-12.30
-7.59
-1.55
5.07
11.41
16.78
20.84
23.59
25.29
26.22
26.57
26.38
25.69
24.63
23.49
22.63
22.36
22.71
23.46
24.20
24.55
24.32
23.52
22.34
20.96
19.45
17.77
15.83
13.58
11.11
8.57
6.13
3.89
1.83
-0.15
-2.11
-4.06
-5.96
-7.74
-9.43
-11.17
-13.20
-15.67
-18.62
-21.79
-24.63
-26.47
-26.70
-24.95
-21.25
-16.05
-10.01
-3.90
1.69
6.38
10.05
12.70
14.43
15.31
15.47
15.08
14.40
13.74
13.32
13.27
13.55
14.06
14.70
15.40
16.10
16.75
17.19
17.22
16.71
15.63
14.13
12.43
10.71
9.01
7.27
5.39
3.31
1.09
-1.22
-3.54
-5.89
-8.38
-11.05
-13.89
-16.75
-19.46
-21.78
-23.50
-24.38
-24.13
-22.47
-19.23
-14.51
-8.74
-2.66
2.97
7.53
10.81
12.96
14.37
15.40
16.22
16.80
17.01
16.81
16.35
15.86
15.60
15.72
16.18
16.82
17.41
17.74
17.69
17.19
16.25
14.98
13.48
11.90
10.35
8.89
7.53
6.18
4.77
3.22
1.48
-0.43
-2.45
-4.46
-6.37
-8.09
-9.65
-11.14
-12.71
-14.54
-16.77
-19.40
-22.23
-24.82
-26.53
-26.72
-24.94
-21.11
-15.62
-9.18
-2.67
3.17
7.88
11.36
13.74
15.29
16.28
16.90
17.20
17.23
17.03
16.74
16.51
16.46
16.56
16.64
16.44
15.81
14.76
13.53
12.41
11.63
11.15
10.71
9.96
8.68
6.86
4.78
2.77
1.13
-0.08
-0.99
-1.80
-2.62
-3.44
-4.11
-4.55
-4.80
-5.10
-5.78
-7.13
-9.25
-11.99
-15.01
-17.89
-20.22
-21.65
-21.92
-20.90
-18.53
-14.87
-10.05
-4.28
2.17
8.95
15.60
21.61
26.46
29.77
31.45
31.71
31.04
30.13
29.63
30.03
31.59
34.13
36.94
38.77
38.03
33.43
24.61
12.50
-0.84
-12.98
-22.16
-27.90
-31.02
-33.04
-35.26
-38.06
-40.89
-42.61
-42.15
-38.95
-33.16
-25.59
-17.43
-10.05
-4.66
-2.06
-2.38
-5.15
-9.54
-14.60
-19.64
-24.29
-28.37
-31.77
-34.28
-35.66
-35.70
-34.33
-31.61
-27.67
-22.73
-17.02
-10.84
-4.61
1.21
6.18
10.00
12.54
13.90
14.33
14.17
13.81
13.64
14.04
15.28
17.43
20.26
23.36
26.16
28.23
29.36
29.62
29.31
28.83
28.47
28.36
28.38
28.27
27.76
26.71
25.16
23.34
21.53
19.90
18.47
17.03
15.31
13.07
10.32
7.30
4.37
1.87
-0.07
-1.59
-3.08
-4.98
-7.62
-11.01
-14.77
-18.18
-20.41
-20.83
-19.19
-15.77
-11.24
-6.40
-2.00
1.52
4.06
5.81
7.06
8.13
9.19
10.25
11.21
11.80
11.75
10.88
9.19
6.91
4.41
2.04
-0.00
-1.75
-3.37
-5.03
-6.78
-8.51
-10.01
-11.07
-11.51
-11.19
-9.93
-7.60
-4.21
-0.10
4.02
7.19
8.53
7.56
4.48
0.03
-4.77
-9.08
-12.49
-15.11
-17.33
-19.50
-21.77
-23.92
-25.49
-26.01
-25.07
-22.46
-18.20
-12.51
-5.79
1.39
8.35
14.42
19.03
21.84
22.85
22.33
20.74
18.67
16.59
14.85
13.59
12.77
12.22
11.72
11.07
10.07
8.64
6.76
4.54
2.13
-0.28
-2.56
-4.67
-6.60
-8.38
-9.96
-11.30
-12.24
-12.53
-11.96
-10.36
-7.79
-4.64
-1.59
0.55
1.16
0.04
-2.45
-5.52
-8.26
-9.88
-9.89
-8.13
-4.64
0.39
6.59
13.37
19.87
25.12
28.26
28.77
26.71
22.69
17.65
12.62
8.37
5.30
3.37
2.22
1.41
0.61
-0.20
-0.74
-0.59
0.61
2.97
6.24
9.94
13.51
16.54
18.83
20.38
21.28
21.59
21.32
20.52
19.32
18.03
17.05
16.73
17.26
18.56
20.28
21.93
23.05
23.33
22.72
21.33
19.47
17.42
15.44
13.69
12.20
10.89
9.55
7.92
5.79
3.05
-0.25
-3.89
-7.64
-11.32
-14.86
-18.34
-21.94
-25.80
-30.05
-34.67
-39.58
-44.54
-49.22
-53.28
-56.39
-58.42
-59.50
-60.00
-60.45
-61.46
-63.51
-66.81
-71.23
-76.23
-81.00
-84.56
-85.99
-84.61
-80.11
-72.59
-62.45
-50.38
-37.18
-23.78
-11.10
0.08
9.22
16.16
21.10
24.52
26.95
28.88
30.52
31.93
33.01
33.62
33.67
33.11
31.90
30.01
27.49
24.42
21.03
17.62
14.52
11.99
10.10
8.76
7.75
6.82
5.79
4.64
3.42
2.19
0.95
-0.45
-2.15
-4.29
-6.82
-9.55
-12.13
-14.27
-15.81
-16.81
-17.51
-18.25
-19.37
-21.05
-23.29
-25.93
-28.72
-31.33
-33.44
-34.72
-34.91
-33.83
-31.45
-27.89
-23.46
-18.51
-13.42
-8.47
-3.81
0.50
4.46
8.11
11.48
14.63
17.61
20.48
23.27
25.95
28.40
30.44
31.92
32.72
32.86
32.40
31.47
30.17
28.55
26.61
24.36
21.82
19.01
16.01
12.87
9.67
6.52
3.63
1.14
-0.85
-2.34
-3.48
-4.46
-5.43
-6.47
-7.56
-8.60
-9.40
-9.78
-9.57
-8.68
-7.12
-5.01
-2.59
-0.12
2.12
3.92
5.15
5.84
6.09
6.06
5.89
5.69
5.52
5.42
5.46
5.68
6.09
6.63
7.11
7.35
7.20
6.67
5.94
5.25
4.80
4.66
4.71
4.77
4.65
4.25
3.59
2.80
2.00
1.32
0.77
0.29
-0.23
-0.88
-1.67
-2.59
-3.58
-4.60
-5.59
-6.44
-7.04
-7.15
-6.56
-5.11
-2.80
0.15
3.34
6.30
8.63
10.12
10.80
10.85
10.49
9.87
9.07
8.08
6.97
5.83
4.88
4.30
4.17
4.41
4.88
5.39
5.82
6.12
6.29
6.34
6.25
6.02
5.67
5.26
4.88
4.58
4.32
4.01
3.51
2.72
1.60
0.22
-1.31
-2.85
-4.29
-5.55
-6.64
-7.61
-8.55
-9.54
-10.56
-11.48
-12.02
-11.88
-10.81
-8.78
-5.99
-2.85
0.14
2.63
4.44
5.58
6.17
6.32
6.05
5.40
4.43
3.33
2.40
1.91
2.03
2.70
3.70
4.74
5.61
6.20
6.56
6.75
6.82
6.76
6.54
6.11
5.48
4.67
3.70
2.61
1.41
0.12
-1.16
-2.29
-3.18
-3.77
-4.09
-4.25
-4.37
-4.57
-4.95
-5.57
-6.46
-7.62
-8.93
-10.17
-10.96
-10.93
-9.82
-7.67
-4.76
-1.59
1.36
3.79
5.58
6.80
7.56
7.95
7.95
7.57
6.88
6.04
5.28
4.83
4.77
5.06
5.57
6.08
6.40
6.42
6.07
5.40
4.56
3.68
2.90
2.29
1.81
1.38
0.88
0.21
-0.61
-1.54
-2.49
-3.37
-4.13
-4.79
-5.37
-5.92
-6.48
-7.14
-7.94
-8.92
-10.01
-11.07
-11.91
-12.33
-12.16
-11.31
-9.83
-7.86
-5.59
-3.29
-1.19
0.55
1.87
2.78
3.37
3.69
3.79
3.66
3.33
2.89
2.45
2.16
2.12
2.35
2.80
3.38
4.06
4.79
5.55
6.30
6.94
7.34
7.40
7.09
6.47
5.70
4.98
4.48
4.26
4.25
4.25
4.02
3.38
2.22
0.65
-1.13
-2.85
-4.28
-5.30
-5.94
-6.35
-6.73
-7.26
-7.97
-8.71
-9.20
-9.16
-8.40
-6.88
-4.79
-2.42
-0.13
1.84
3.34
4.37
5.08
5.62
6.17
6.82
7.55
8.28
8.88
9.25
9.41
9.43
9.46
9.58
9.78
9.97
10.04
9.91
9.58
9.18
8.81
8.54
8.36
8.23
8.08
7.89
7.65
7.32
6.86
6.18
5.24
4.05
2.69
1.24
-0.25
-1.77
-3.35
-4.95
-6.41
-7.51
-7.97
-7.64
-6.50
-4.72
-2.58
-0.41
1.52
3.05
4.10
4.69
4.87
4.70
4.25
3.62
2.93
2.31
1.80
1.41
1.09
0.80
0.54
0.35
0.30
0.40
0.58
0.71
0.65
0.37
-0.09
-0.68
-1.36
-2.11
-2.95
-3.87
-4.72
-5.34
-5.57
-5.35
-4.82
-4.28
-4.09
-4.57
-5.86
-7.85
-10.15
-12.23
-13.56
-13.83
-13.02
-11.44
-9.57
-7.87
-6.61
-5.84
-5.41
-5.13
-4.77
-4.20
-3.27
-1.98
-0.39
1.32
2.84
3.88
4.18
3.67
2.42
0.65
-1.37
-3.33
-4.98
-6.15
-6.77
-6.88
-6.64
-6.27
-5.95
-5.81
-5.81
-5.87
-5.92
-5.96
-6.05
-6.27
-6.65
-7.12
-7.60
-8.04
-8.53
-9.21
-10.21
-11.50
-12.90
-14.04
-14.52
-14.07
-12.54
-10.05
-6.85
-3.30
0.19
3.27
5.74
7.56
8.82
9.74
10.46
11.08
11.63
12.14
12.65
13.27
14.07
15.04
16.07
17.01
17.77
18.35
18.85
19.42
20.11
20.87
21.56
22.10
22.52
22.99
23.75
24.92
26.47
28.11
29.50
30.36
30.63
30.56
30.51
30.82
31.58
32.62
33.47
33.48
31.82
27.70
20.41
9.61
-4.37
-20.41
-36.70
-51.23
-62.33
-69.11
-71.64
-70.78
-67.76
-63.82
-59.91
-56.64
-54.19
-52.35
-50.56
-48.04
-44.01
-37.96
-29.88
-20.38
-10.50
-1.47
5.55
9.83
11.20
10.05
7.17
3.53
-0.01
-2.88
-4.85
-6.00
-6.59
-6.88
-7.11
-7.36
-7.63
-7.87
-7.97
-7.90
-7.69
-7.41
-7.19
-7.10
-7.09
-6.91
-6.24
-4.76
-2.33
0.94
4.70
8.45
11.75
14.32
16.07
17.07
17.48
17.47
17.14
16.64
16.10
15.69
15.57
15.81
16.40
17.20
18.05
18.80
19.39
19.85
20.19
20.43
20.54
20.50
20.34
20.17
20.17
20.53
21.41
22.75
24.29
25.53
25.76
24.31
20.74
15.03
7.64
-0.71
-9.31
-17.72
-25.76
-33.36
-40.36
-46.40
-51.03
-53.87
-54.79
-53.91
-51.53
-48.01
-43.71
-39.00
-34.28
-29.95
-26.27
-23.28
-20.79
-18.48
-16.04
-13.33
-10.28
-6.94
-3.35
0.47
4.41
8.27
11.73
14.44
16.14
16.74
16.42
15.53
14.50
13.65
13.08
12.64
12.06
11.08
9.64
7.88
6.12
4.66
3.60
2.84
2.08
1.00
-0.59
-2.59
-4.70
-6.51
-7.63
-7.89
-7.33
-6.22
-4.89
-3.59
-2.43
-1.35
-0.21
1.06
2.35
3.40
3.90
3.70
2.94
2.01
1.39
1.45
2.26
3.58
5.06
6.37
7.35
8.03
8.51
8.87
9.10
9.15
9.06
8.99
9.24
10.09
11.66
13.77
15.95
17.61
18.25
17.68
16.07
13.80
11.24
8.58
5.89
3.23
0.94
-0.39
-0.13
2.11
6.12
11.13
16.09
20.09
22.72
24.13
24.81
25.28
25.78
26.25
26.45
26.21
25.58
24.73
23.89
23.15
22.42
21.53
20.43
19.19
18.03
17.17
16.66
16.37
16.04
15.42
14.39
13.06
11.70
10.63
10.08
10.12
10.62
11.26
11.66
11.53
10.73
9.39
7.76
6.18
4.87
3.91
3.19
2.54
1.77
0.83
-0.28
-1.46
-2.53
-3.32
-3.65
-3.47
-2.89
-2.25
-1.99
-2.55
-4.14
-6.65
-9.71
-12.84
-15.64
-17.94
-19.78
-21.29
-22.59
-23.70
-24.52
-24.94
-24.99
-24.84
-24.74
-24.93
-25.47
-26.22
-26.87
-27.09
-26.70
-25.78
-24.68
-23.88
-23.90
-25.03
-27.31
-30.48
-34.06
-37.49
-40.20
-41.75
-41.93
-40.80
-38.64
-35.94
-33.18
-30.77
-28.90
-27.50
-26.32
-25.08
-23.53
-21.57
-19.22
-16.56
-13.68
-10.66
-7.61
-4.69
-2.12
-0.10
1.27
2.06
2.44
2.60
2.67
2.64
2.37
1.75
0.74
-0.53
-1.84
-2.88
-3.39
-3.28
-2.63
-1.71
-0.89
-0.52
-0.77
-1.65
-2.96
-4.52
-6.21
-8.06
-10.14
-12.46
-14.83
-16.87
-18.11
-18.16
-16.84
-14.24
-10.66
-6.48
-2.14
1.98
5.60
8.53
10.74
12.29
13.35
14.08
14.60
14.99
15.37
15.88
16.68
17.83
19.25
20.71
21.89
22.55
22.67
22.39
21.91
21.38
20.78
19.98
18.88
17.47
15.91
14.48
13.41
12.81
12.62
12.57
12.37
11.74
10.54
8.84
6.87
4.92
3.24
1.94
0.90
-0.13
-1.41
-3.14
-5.29
-7.63
-9.77
-11.16
-11.32
-9.93
-6.96
-2.71
2.18
7.00
11.10
14.07
15.85
16.57
16.52
15.92
14.94
13.70
12.39
11.29
10.71
10.93
11.97
13.64
15.54
17.21
18.28
18.56
18.01
16.74
14.90
12.72
10.49
8.55
7.12
6.25
5.72
5.10
3.91
1.84
-1.10
-4.59
-8.19
-11.46
-14.13
-16.18
-17.73
-18.98
-20.09
-21.17
-22.16
-22.88
-23.05
-22.36
-20.59
-17.82
-14.39
-10.84
-7.67
-5.20
-3.46
-2.26
-1.36
-0.57
0.23
1.07
2.02
3.18
4.65
6.42
8.40
10.39
12.22
13.78
15.07
16.10
16.92
17.50
17.75
17.53
16.73
15.26
13.14
10.51
7.61
4.71
2.09
-0.05
-1.66
-2.79
-3.59
-4.23
-4.82
-5.46
-6.23
-7.21
-8.56
-10.43
-12.93
-16.04
-19.57
-23.08
-25.93
-27.46
-27.09
-24.57
-20.04
-14.03
-7.30
-0.69
5.14
9.80
13.17
15.33
16.47
16.78
16.48
15.75
14.75
13.63
12.51
11.52
10.75
10.35
10.47
11.19
12.45
14.03
15.56
16.65
17.04
16.65
15.60
14.11
12.36
10.47
8.46
6.35
4.20
2.17
0.41
-1.00
-2.11
-3.05
-3.97
-4.98
-6.09
-7.24
-8.41
-9.66
-11.09
-12.83
-14.86
-16.93
-18.56
-19.19
-18.38
-16.01
-12.30
-7.76
-3.01
1.41
5.17
8.13
10.34
11.91
12.93
13.49
13.63
13.39
12.85
12.13
11.41
10.84
10.52
10.47
10.60
10.81
10.96
10.96
10.71
10.13
9.20
7.97
6.56
5.13
3.79
2.59
1.47
0.35
-0.86
-2.16
-3.53
-4.92
-6.29
-7.62
-8.94
-10.23
-11.55
-12.97
-14.56
-16.38
-18.42
-20.45
-22.15
-23.11
-22.97
-21.49
-18.66
-14.65
-9.80
-4.59
0.53
5.13
8.91
11.74
13.62
14.64
14.98
14.84
14.45
14.07
13.89
14.05
14.61
15.52
16.73
18.14
19.62
21.04
22.24
23.09
23.52
23.48
22.98
22.00
20.51
18.43
15.73
12.46
8.79
4.93
1.07
-2.63
-6.08
-9.21
-11.97
-14.33
-16.35
-18.21
-20.13
-22.25
-24.46
-26.43
-27.64
-27.59
-25.98
-22.87
-18.64
-13.82
-8.99
-4.56
-0.82
2.11
4.22
5.56
6.20
6.27
5.94
5.41
4.83
4.37
4.12
4.16
4.47
4.99
5.60
6.16
6.55
6.70
6.56
6.10
5.31
4.12
2.59
0.82
-0.97
-2.56
-3.75
-4.50
-4.90
-5.14
-5.41
-5.82
-6.41
-7.17
-8.05
-9.06
-10.28
-11.82
-13.77
-16.12
-18.63
-20.87
-22.26
-22.30
-20.71
-17.57
-13.29
-8.44
-3.63
0.66
4.13
6.68
8.32
9.20
9.58
9.77
10.00
10.39
10.87
11.21
11.15
10.60
9.68
8.76
8.26
8.48
9.41
10.77
12.10
12.96
13.05
12.35
11.01
9.31
7.47
5.67
3.95
2.29
0.63
-1.07
-2.80
-4.49
-6.07
-7.52
-8.89
-10.24
-11.67
-13.20
-14.79
-16.41
-18.05
-19.70
-21.36
-22.90
-24.04
-24.45
-23.79
-21.90
-18.85
-14.94
-10.59
-6.23
-2.24
1.13
3.71
5.42
6.31
6.46
6.07
5.33
4.44
3.58
2.89
2.45
2.29
2.38
2.62
2.85
2.99
2.99
2.91
2.82
2.78
2.77
2.74
2.61
2.36
2.01
1.58
1.10
0.56
-0.04
-0.71
-1.37
-1.95
-2.35
-2.57
-2.70
-2.97
-3.61
-4.84
-6.72
-9.12
-11.75
-14.20
-16.01
-16.72
-16.05
-13.85
-10.28
-5.73
-0.82
3.78
7.49
10.02
11.37
11.79
11.60
11.08
10.41
9.67
8.92
8.22
7.65
7.31
7.24
7.43
7.85
8.41
9.04
9.59
9.90
9.85
9.33
8.36
7.00
5.43
3.79
2.26
0.91
-0.23
-1.17
-1.96
-2.65
-3.28
-3.89
-4.54
-5.21
-5.94
-6.69
-7.44
-8.23
-9.11
-10.21
-11.65
-13.47
-15.58
-17.72
-19.52
-20.60
-20.63
-19.47
-17.16
-13.95
-10.20
-6.31
-2.62
0.64
3.36
5.51
7.09
8.08
8.48
8.34
7.83
7.20
6.74
6.67
7.07
7.82
8.72
9.53
10.13
10.53
10.84
11.14
11.43
11.58
11.39
10.75
9.67
8.32
6.96
5.90
5.25
4.94
4.75
4.35
3.47
2.06
0.25
-1.71
-3.55
-5.12
-6.46
-7.78
-9.31
-11.25
-13.59
-16.15
-18.58
-20.42
-21.18
-20.49
-18.21
-14.47
-9.71
-4.56
0.34
4.51
7.75
10.13
11.87
13.19
14.18
14.79
14.97
14.71
14.16
13.57
13.15
13.01
13.10
13.27
13.43
13.59
13.81
14.14
14.50
14.68
14.42
13.55
12.11
10.30
8.44
6.81
5.54
4.58
3.72
2.70
1.28
-0.67
-3.12
-5.84
-8.45
-10.55
-11.88
-12.44
-12.52
-12.64
-13.34
-14.95
-17.46
-20.49
-23.35
-25.28
-25.68
-24.29
-21.19
-16.82
-11.78
-6.64
-1.88
2.21
5.49
7.95
9.62
10.63
11.16
11.43
11.60
11.81
12.13
12.58
13.14
13.76
14.41
15.05
15.65
16.20
16.69
17.06
17.22
17.06
16.46
15.38
13.94
12.31
10.73
9.34
8.19
7.24
6.37
5.47
4.43
3.20
1.75
0.15
-1.47
-2.95
-4.19
-5.16
-5.98
-6.89
-8.18
-10.03
-12.48
-15.32
-18.15
-20.40
-21.49
-20.97
-18.70
-14.87
-10.00
-4.76
0.24
4.55
8.02
10.68
12.65
14.01
14.85
15.22
15.23
15.03
14.76
14.55
14.43
14.39
14.42
14.50
14.64
14.83
15.08
15.33
15.54
15.60
15.46
14.98
14.06
12.57
10.51
7.95
5.08
2.19
-0.57
-3.13
-5.58
-8.11
-10.85
-13.79
-16.77
-19.52
-21.82
-23.55
-24.76
-25.61
-26.29
-26.95
-27.66
-28.39
-29.05
-29.47
-29.45
-28.76
-27.19
-24.63
-21.15
-17.02
-12.66
-8.52
-4.97
-2.21
-0.27
0.96
1.64
1.95
2.03
1.99
1.92
1.91
2.01
2.28
2.75
3.43
4.32
5.40
6.62
7.87
9.00
9.88
10.38
10.46
10.14
9.52
8.68
7.71
6.67
5.60
4.55
3.58
2.77
2.15
1.70
1.33
0.91
0.32
-0.56
-1.81
-3.46
-5.51
-7.93
-10.61
-13.34
-15.76
-17.42
-17.90
-16.91
-14.46
-10.88
-6.72
-2.57
1.07
3.99
6.16
7.70
8.74
9.35
9.54
9.38
8.96
8.44
7.94
7.51
7.15
6.79
6.43
6.10
5.90
5.90
6.09
6.38
6.62
6.67
6.43
5.84
4.93
3.78
2.49
1.23
0.13
-0.72
-1.30
-1.73
-2.17
-2.83
-3.78
-5.03
-6.42
-7.74
-8.90
-9.85
-10.72
-11.64
-12.74
-14.03
-15.39
-16.62
-17.46
-17.66
-16.96
-15.23
-12.45
-8.83
-4.77
-0.80
2.63
5.29
7.20
8.56
9.58
10.37
10.90
11.09
10.97
10.74
10.72
11.16
12.08
13.16
13.95
14.07
13.39
12.16
10.81
9.75
9.17
8.94
8.71
8.16
7.11
5.63
3.97
2.42
1.16
0.27
-0.34
-0.86
-1.44
-2.19
-3.15
-4.23
-5.36
-6.47
-7.55
-8.67
-9.92
-11.34
-12.95
-14.66
-16.32
-17.71
-18.59
-18.73
-17.97
-16.27
-13.74
-10.65
-7.32
-4.10
-1.26
1.05
2.80
4.01
4.77
5.13
5.10
4.70
3.99
3.13
2.36
1.97
2.14
2.94
4.22
5.73
7.14
8.22
8.81
8.93
8.66
8.11
7.38
6.50
5.52
4.47
3.41
2.44
1.60
0.87
0.20
-0.55
-1.46
-2.57
-3.81
-5.06
-6.18
-7.10
-7.85
-8.56
-9.42
-10.57
-12.04
-13.63
-14.95
-15.54
-15.03
-13.24
-10.31
-6.58
-2.48
1.55
5.21
8.26
10.58
12.09
12.84
12.96
12.65
12.14
11.60
11.12
10.72
10.43
10.27
10.32
10.62
11.12
11.69
12.19
12.43
12.32
11.83
11.03
10.01
8.84
7.59
6.29
4.96
3.61
2.29
1.00
-0.24
-1.41
-2.57
-3.72
-4.91
-6.13
-7.39
-8.73
-10.16
-11.75
-13.51
-15.39
-17.26
-18.83
-19.72
-19.54
-18.06
-15.26
-11.43
-7.06
-2.75
0.99
3.85
5.77
6.88
7.39
7.49
7.35
7.09
6.78
6.52
6.42
6.54
6.89
7.43
8.02
8.51
8.82
8.93
8.86
8.67
8.39
7.98
7.39
6.57
5.55
4.40
3.24
2.14
1.10
0.09
-0.98
-2.13
-3.35
-4.60
-5.83
-7.03
-8.23
-9.50
-10.92
-12.54
-14.43
-16.53
-18.68
-20.56
-21.74
-21.78
-20.42
-17.65
-13.78
-9.31
-4.79
-0.72
2.64
5.16
6.88
7.89
8.36
8.46
8.38
8.28
8.23
8.23
8.25
8.27
8.32
8.49
8.83
9.32
9.84
10.25
10.42
10.28
9.85
9.11
8.09
6.79
5.29
3.68
2.12
0.70
-0.59
-1.83
-3.08
-4.36
-5.61
-6.74
-7.73
-8.60
-9.50
-10.49
-11.62
-12.90
-14.33
-15.94
-17.69
-19.40
-20.68
-21.04
-20.02
-17.47
-13.65
-9.14
-4.69
-0.88
2.00
3.97
5.25
6.06
6.58
6.89
7.05
7.16
7.32
7.66
8.21
8.92
9.65
10.29
10.76
11.06
11.26
11.40
11.48
11.44
11.16
10.50
9.46
8.07
6.48
4.85
3.34
2.02
0.90
-0.06
-0.95
-1.83
-2.78
-3.84
-5.02
-6.31
-7.73
-9.26
-10.86
-12.58
-14.38
-16.21
-17.90
-19.21
-19.85
-19.54
-18.15
-15.71
-12.44
-8.66
-4.76
-1.08
2.09
4.54
6.13
6.79
6.56
5.57
4.08
2.45
1.10
0.44
0.74
2.05
4.16
6.70
9.20
11.28
12.70
13.38
13.37
12.80
11.82
10.58
9.26
8.03
7.00
6.17
5.44
4.67
3.71
2.48
1.03
-0.50
-1.96
-3.22
-4.24
-5.09
-5.96
-7.05
-8.55
-10.51
-12.78
-15.00
-16.69
-17.40
-16.82
-14.92
-11.94
-8.32
-4.54
-1.03
1.95
4.30
6.04
7.31
8.22
8.91
9.42
9.81
10.07
10.25
10.39
10.55
10.76
11.04
11.37
11.71
12.02
12.20
12.17
11.89
11.36
10.64
9.81
8.95
8.09
7.17
6.10
4.82
3.31
1.64
-0.04
-1.61
-2.96
-4.05
-4.91
-5.59
-6.23
-6.99
-8.05
-9.58
-11.63
-14.11
-16.75
-19.13
-20.76
-21.24
-20.34
-18.06
-14.71
-10.72
-6.56
-2.68
0.66
3.31
5.23
6.44
7.06
7.22
7.08
6.82
6.57
6.43
6.46
6.71
7.18
7.83
8.59
9.34
9.98
10.47
10.77
10.92
10.89
10.64
10.10
9.22
8.03
6.65
5.20
3.82
2.57
1.43
0.32
-0.83
-2.11
-3.47
-4.84
-6.10
-7.15
-7.99
-8.75
-9.65
-10.93
-12.73
-15.04
-17.61
-20.04
-21.84
-22.57
-21.96
-20.00
-16.89
-13.01
-8.82
-4.76
-1.17
1.74
3.90
5.34
6.19
6.61
6.75
6.74
6.62
6.40
6.10
5.76
5.48
5.38
5.54
5.95
6.50
7.04
7.39
7.44
7.16
6.56
5.70
4.67
3.57
2.51
1.57
0.78
0.06
-0.69
-1.58
-2.66
-3.88
-5.12
-6.25
-7.16
-7.84
-8.37
-8.92
-9.70
-10.92
-12.63
-14.70
-16.78
-18.32
-18.81
-17.88
-15.44
-11.73
-7.25
-2.61
1.61
5.02
7.41
8.82
9.45
9.58
9.48
9.35
9.29
9.33
9.47
9.71
10.06
10.51
11.02
11.55
12.03
12.38
12.49
12.23
11.52
10.31
8.69
6.84
5.02
3.47
2.33
1.59
1.08
0.58
-0.09
-1.05
-2.30
-3.74
-5.22
-6.63
-7.94
-9.21
-10.64
-12.41
-14.67
-17.43
-20.49
-23.43
-25.69
-26.68
-25.94
-23.30
-19.01
-13.62
-7.94
-2.70
1.58
4.74
6.95
8.53
9.80
10.88
11.77
12.36
12.58
12.51
12.31
12.19
12.29
12.59
12.99
13.34
13.55
13.60
13.51
13.30
12.96
12.42
11.61
10.51
9.24
7.94
6.79
5.85
5.05
4.19
3.03
1.45
-0.49
-2.55
-4.48
-6.06
-7.30
-8.39
-9.59
-11.12
-13.05
-15.27
-17.54
-19.53
-20.89
-21.25
-20.35
-18.06
-14.50
-10.06
-5.30
-0.83
2.86
5.57
7.36
8.48
9.21
9.71
10.01
10.10
10.00
9.87
9.92
10.33
11.13
12.12
13.04
13.62
13.78
13.59
13.23
12.86
12.50
12.06
11.41
10.42
9.13
7.64
6.12
4.71
3.48
2.44
1.49
0.58
-0.31
-1.22
-2.11
-2.99
-3.88
-4.86
-6.03
-7.51
-9.32
-11.45
-13.77
-16.11
-18.26
-19.98
-21.01
-21.07
-19.99
-17.70
-14.37
-10.33
-6.05
-1.99
1.48
4.16
6.00
7.03
7.41
7.29
6.85
6.30
5.79
5.45
5.42
5.78
6.56
7.71
9.04
10.32
11.30
11.82
11.83
11.39
10.62
9.56
8.25
6.74
5.14
3.62
2.35
1.45
0.88
0.46
-0.03
-0.75
-1.74
-2.87
-3.96
-4.88
-5.62
-6.38
-7.44
-8.99
-11.05
-13.38
-15.52
-16.92
-17.19
-16.10
-13.73
-10.35
-6.36
-2.18
1.79
5.28
8.07
10.04
11.17
11.52
11.19
10.40
9.38
8.43
7.77
7.54
7.77
8.31
9.00
9.66
10.15
10.41
10.41
10.11
9.52
8.68
7.63
6.46
5.22
3.93
2.59
1.20
-0.23
-1.66
-3.06
-4.38
-5.61
-6.73
-7.75
-8.71
-9.72
-10.91
-12.39
-14.19
-16.14
-17.96
-19.19
-19.42
-18.33
-15.85
-12.14
-7.63
-2.87
1.57
5.22
7.89
9.61
10.59
11.12
11.39
11.48
11.38
11.06
10.57
10.02
9.55
9.21
9.03
8.94
8.86
8.79
8.76
8.79
8.86
8.83
8.56
7.92
6.90
5.60
4.19
2.80
1.47
0.19
-1.13
-2.57
-4.15
-5.83
-7.50
-9.04
-10.33
-11.34
-12.11
-12.76
-13.49
-14.48
-15.79
-17.36
-18.96
-20.27
-20.89
-20.50
-18.84
-15.90
-11.87
-7.21
-2.52
1.59
4.68
6.64
7.65
8.10
8.39
8.80
9.39
10.06
10.70
11.23
11.68
12.11
12.51
12.78
12.82
12.56
12.01
11.31
10.63
10.05
9.54
9.00
8.27
7.31
6.18
5.00
3.86
2.77
1.71
0.64
-0.44
-1.49
-2.48
-3.42
-4.33
-5.23
-6.09
-6.87
-7.51
-8.09
-8.81
-9.91
-11.57
-13.76
-16.17
-18.34
-19.73
-19.94
-18.79
-16.38
-13.00
-9.08
-5.07
-1.33
1.86
4.34
6.05
7.00
7.30
7.13
6.71
6.27
5.97
5.87
5.94
6.12
6.35
6.62
6.91
7.16
7.32
7.36
7.26
7.11
6.97
6.85
6.68
6.31
5.64
4.72
3.74
2.95
2.52
2.39
2.31
1.96
1.15
-0.11
-1.58
-2.97
-4.05
-4.83
-5.48
-6.28
-7.42
-8.96
-10.80
-12.74
-14.52
-15.89
-16.63
-16.50
-15.38
-13.27
-10.34
-6.98
-3.62
-0.67
1.62
3.22
4.27
4.96
5.47
5.89
6.26
6.58
6.84
7.03
7.13
7.12
7.00
6.78
6.55
6.42
6.46
6.67
6.97
7.21
7.21
6.88
6.21
5.26
4.18
3.12
2.16
1.33
0.57
-0.20
-1.03
-1.94
-2.89
-3.82
-4.72
-5.62
-6.59
-7.68
-8.91
-10.22
-11.49
-12.68
-13.80
-14.90
-16.00
-16.97
-17.52
-17.23
-15.80
-13.18
-9.67
-5.83
-2.28
0.53
2.48
3.74
4.60
5.29
5.87
6.25
6.32
6.10
5.73
5.48
5.54
6.00
6.71
7.47
8.02
8.25
8.22
8.08
8.01
8.08
8.22
8.29
8.11
7.57
6.66
5.47
4.11
2.72
1.38
0.07
-1.25
-2.66
-4.15
-5.65
-7.06
-8.28
-9.30
-10.23
-11.23
-12.50
-14.10
-15.96
-17.84
-19.42
-20.37
-20.45
-19.52
-17.59
-14.79
-11.38
-7.70
-4.15
-1.04
1.44
3.30
4.69
5.83
6.87
7.79
8.43
8.58
8.11
7.12
5.92
4.98
4.67
5.17
6.37
7.91
9.34
10.31
10.65
10.42
9.81
9.04
8.26
7.49
6.69
5.78
4.79
3.78
2.82
1.95
1.12
0.22
-0.81
-1.99
-3.23
-4.43
-5.56
-6.69
-7.91
-9.35
-11.00
-12.70
-14.14
-14.92
-14.70
-13.30
-10.76
-7.36
-3.55
0.18
3.40
5.88
7.58
8.65
9.26
9.53
9.57
9.41
9.12
8.82
8.64
8.65
8.86
9.21
9.59
9.90
10.09
10.19
10.19
10.10
9.82
9.27
8.37
7.16
5.78
4.40
3.20
2.20
1.26
0.21
-1.10
-2.66
-4.32
-5.86
-7.14
-8.16
-9.07
-10.07
-11.31
-12.87
-14.71
-16.70
-18.61
-20.10
-20.77
-20.21
-18.19
-14.76
-10.34
-5.57
-1.19
2.19
4.29
5.17
5.14
4.65
4.11
3.82
3.92
4.44
5.28
6.27
7.22
7.97
8.40
8.49
8.35
8.08
7.80
7.53
7.21
6.71
5.92
4.81
3.46
2.05
0.77
-0.26
-0.95
-1.41
-1.84
-2.53
-3.74
-5.56
-7.92
-10.58
-13.20
-15.49
-17.34
-18.83
-20.17
-21.59
-23.18
-24.83
-26.22
-26.94
-26.62
-25.05
-22.28
-18.56
-14.30
-9.93
-5.78
-2.04
1.22
4.04
6.47
8.55
10.29
11.67
12.74
13.57
14.30
15.02
15.82
16.66
17.43
18.00
18.28
18.28
18.04
17.61
16.97
16.04
14.78
13.19
11.36
9.44
7.54
5.69
3.89
2.13
0.40
-1.25
-2.79
-4.22
-5.55
-6.84
-8.15
-9.55
-11.14
-13.02
-15.21
-17.53
-19.61
-20.92
-20.95
-19.46
-16.55
-12.64
-8.36
-4.27
-0.73
2.08
4.22
5.85
7.16
8.36
9.60
10.90
12.21
13.35
14.11
14.35
14.05
13.31
12.32
11.27
10.33
9.59
9.13
9.00
9.16
9.54
9.95
10.21
10.10
9.49
8.34
6.75
4.82
2.71
0.57
-1.52
-3.43
-5.11
-6.53
-7.72
-8.73
-9.66
-10.57
-11.54
-12.65
-13.94
-15.43
-17.00
-18.42
-19.32
-19.32
-18.18
-15.85
-12.62
-8.91
-5.21
-1.90
0.87
3.14
4.99
6.53
7.79
8.71
9.24
9.41
9.34
9.24
9.29
9.61
10.16
10.81
11.38
11.77
11.97
11.98
11.83
11.51
10.99
10.24
9.30
8.26
7.24
6.27
5.39
4.58
3.83
3.14
2.49
1.80
0.98
-0.07
-1.37
-2.87
-4.43
-5.92
-7.26
-8.46
-9.64
-10.90
-12.37
-14.06
-15.87
-17.52
-18.61
-18.69
-17.43
-14.76
-10.93
-6.48
-2.03
1.87
4.91
7.00
8.26
8.87
9.03
8.94
8.77
8.70
8.88
9.40
10.24
11.31
12.40
13.28
13.78
13.83
13.52
13.07
12.74
12.70
13.01
13.54
14.07
14.41
14.44
14.20
13.83
13.47
13.19
12.97
12.71
12.32
11.76
11.07
10.39
9.91
9.75
9.94
10.37
10.83
11.12
11.09
10.72
10.17
9.73
9.73
10.45
12.03
14.38
17.29
20.42
23.44
26.10
28.27
29.91
31.09
31.86
32.29
32.38
32.09
31.32
30.02
28.18
25.87
23.20
20.25
17.09
13.71
10.14
6.50
2.93
-0.39
-3.37
-6.04
-8.47
-10.79
-13.06
-15.31
-17.50
-19.63
-21.72
-23.80
-25.91
-28.07
-30.29
-32.56
-34.86
-37.18
-39.48
-41.75
-43.97
-46.13
-48.21
-50.12
-51.71
-52.77
-53.05
-52.37
-50.58
-47.64
-43.51
-38.21
-31.88
-24.78
-17.36
-10.20
-3.94
0.89
3.99
5.33
5.13
3.76
1.65
-0.80
-3.26
-5.46
-7.19
-8.29
-8.70
-8.47
-7.82
-7.08
-6.62
-6.73
-7.53
-8.92
-10.57
-12.09
-13.15
-13.52
-13.19
-12.27
-10.98
-9.57
-8.30
-7.34
-6.81
-6.73
-7.03
-7.54
-8.01
-8.15
-7.70
-6.53
-4.67
-2.26
0.44
3.21
5.93
8.55
11.06
13.40
15.47
17.20
18.59
19.80
21.06
22.47
23.90
24.96
25.13
24.01
21.59
18.21
14.54
11.30
8.97
7.70
7.28
7.30
7.32
7.07
6.48
5.64
4.72
3.80
2.86
1.80
0.57
-0.77
-2.00
-2.92
-3.40
-3.50
-3.47
-3.64
-4.18
-5.04
-6.02
-6.84
-7.34
-7.56
-7.72
-8.09
-8.88
-10.13
-11.73
-13.45
-15.05
-16.28
-16.94
-16.87
-15.93
-14.09
-11.43
-8.18
-4.67
-1.27
1.67
3.96
5.51
6.37
6.67
6.55
6.15
5.60
5.04
4.64
4.52
4.77
5.36
6.12
6.86
7.39
7.65
7.73
7.75
7.77
7.77
7.62
7.19
6.47
5.53
4.55
3.67
2.91
2.21
1.44
0.50
-0.65
-1.96
-3.38
-4.83
-6.21
-7.45
-8.51
-9.43
-10.31
-11.34
-12.67
-14.30
-16.04
-17.52
-18.30
-18.08
-16.75
-14.44
-11.44
-8.06
-4.59
-1.24
1.79
4.31
6.13
7.09
7.17
6.48
5.31
4.07
3.14
2.78
3.12
4.08
5.43
6.89
8.18
9.09
9.56
9.62
9.37
8.96
8.54
8.23
8.13
8.24
8.53
8.83
8.93
8.59
7.61
5.92
3.59
0.85
-2.00
-4.61
-6.66
-8.02
-8.76
-9.14
-9.59
-10.48
-11.98
-13.99
-16.09
-17.73
-18.42
-17.85
-15.96
-12.96
-9.23
-5.20
-1.30
2.17
4.99
7.07
8.46
9.28
9.68
9.83
9.88
9.95
10.13
10.43
10.78
11.05
11.15
11.05
10.82
10.58
10.43
10.38
10.31
10.10
9.59
8.75
7.64
6.38
5.14
4.01
3.03
2.17
1.35
0.50
-0.42
-1.44
-2.51
-3.60
-4.64
-5.61
-6.54
-7.56
-8.79
-10.34
-12.21
-14.22
-16.02
-17.17
-17.30
-16.24
-14.03
-10.89
-7.18
-3.28
0.45
3.72
6.30
8.12
9.19
9.64
9.65
9.42
9.06
8.67
8.29
7.97
7.73
7.61
7.67
7.89
8.26
8.73
9.22
9.62
9.80
9.66
9.16
8.36
7.35
6.29
5.29
4.40
3.59
2.77
1.81
