1565120998.00
64.000000
-0.00
-0.00
-0.00
-0.00
-0.00
-0.00
-0.00
-0.00
-0.00
-0.00
0.00
0.01
0.01
-0.00
-0.03
-0.05
-0.05
0.00
0.13
0.36
0.66
1.01
1.37
1.72
2.06
2.40
2.79
3.24
3.80
4.42
5.06
5.66
6.20
6.68
7.15
7.68
8.31
9.14
10.09
11.04
11.88
12.56
13.14
13.76
14.65
15.96
17.91
20.32
22.90
25.38
27.58
29.57
31.68
34.32
37.81
42.54
48.15
54.10
59.83
64.97
69.58
74.14
79.34
85.71
93.76
103.00
112.62
121.73
129.77
136.75
143.30
150.75
157.77
166.64
177.95
191.79
206.97
220.57
228.25
225.36
208.53
176.87
132.76
80.05
23.07
-34.95
-92.44
-149.15
-205.22
-260.34
-313.69
-363.79
-409.71
-450.73
-486.27
-515.44
-536.85
-548.77
-549.44
-537.77
-513.55
-477.96
-433.12
-381.66
-326.20
-269.01
-211.78
-155.79
-102.07
-51.45
-4.94
36.61
72.53
102.55
126.82
145.83
160.31
170.95
178.39
183.03
185.14
184.96
182.76
178.89
173.74
167.74
161.24
154.47
147.58
140.62
133.63
126.65
119.73
112.92
106.29
99.92
93.83
88.03
82.52
77.30
72.36
67.75
63.45
59.50
55.93
52.74
49.87
47.17
44.47
41.50
37.95
33.45
27.75
20.66
12.13
2.15
-9.02
-20.97
-33.13
-44.76
-55.16
-63.48
-68.92
-70.90
-69.10
-63.50
-54.43
-42.51
-28.19
-12.79
2.55
16.94
29.68
40.39
48.92
55.38
59.99
63.03
64.65
65.08
64.53
63.00
60.28
56.10
50.15
42.16
31.95
19.28
4.34
-12.44
-30.56
-49.43
-68.36
-86.63
-103.44
-117.22
-127.51
-134.63
-137.82
-136.47
-130.38
-119.64
-104.73
-86.44
-65.83
-44.20
-22.22
-1.28
17.50
33.38
46.03
55.41
61.79
65.55
67.05
66.80
65.36
63.15
60.43
57.27
53.59
49.18
43.90
37.49
29.94
21.44
12.35
3.14
-5.66
-13.57
-20.15
-25.05
-28.08
-29.08
-27.99
-24.73
-19.68
-13.38
-6.54
0.02
5.56
9.54
11.84
12.77
12.87
12.70
12.68
12.81
12.71
11.88
9.95
6.99
3.59
0.65
-1.06
-1.19
-0.18
1.02
1.26
-0.21
-3.39
-7.39
-10.85
-12.70
-12.39
-10.45
-7.94
-6.09
-5.80
-7.68
-12.05
-18.71
-26.25
-31.64
-30.80
-19.90
2.49
33.88
68.17
97.91
117.24
124.03
120.53
110.43
97.47
83.74
69.41
54.04
37.75
21.78
7.62
-3.07
-10.22
-14.89
-18.57
-22.54
-27.07
-31.52
-34.80
-35.96
-34.68
-31.66
-28.00
-24.95
-23.27
-23.06
-23.72
-24.36
-24.23
-22.95
-20.80
-18.35
-16.27
-14.97
-14.47
-14.50
-14.59
-14.37
-13.66
-12.62
-11.50
-10.60
-10.13
-10.08
-10.34
-10.74
-11.14
-11.48
-11.78
-12.14
-12.64
-13.31
-14.13
-15.10
-16.21
-17.45
-18.83
-20.32
-21.95
-23.63
-25.37
-27.08
-28.83
-30.71
-32.79
-35.17
-37.83
-40.77
-43.83
-46.89
-49.76
-52.37
-54.69
-56.59
-57.83
-57.99
-56.64
-53.17
-47.10
-38.08
-26.10
-11.57
4.84
22.37
40.32
57.95
74.80
89.64
101.94
110.94
115.71
115.51
110.10
100.85
88.42
74.13
59.35
45.05
31.53
18.36
5.03
-8.42
-21.04
-31.20
-36.80
-36.29
-29.29
-16.97
-1.71
13.61
26.96
37.56
45.99
54.00
63.48
74.97
89.07
104.72
118.69
126.11
121.51
100.61
62.82
12.74
-39.98
-83.13
-106.33
-105.41
-83.04
-47.82
-10.85
18.70
36.36
42.57
40.32
33.96
26.39
19.01
12.75
8.79
8.37
11.11
14.20
13.10
3.80
-14.86
-40.24
-67.02
-89.54
-103.90
-108.81
-105.14
-94.73
-79.41
-61.41
-42.50
-25.05
-11.68
-4.26
-3.04
-6.34
-11.00
-13.29
-10.34
-0.65
15.07
34.14
52.82
67.61
76.27
78.02
73.64
64.52
53.15
42.97
38.09
42.31
57.27
80.69
105.89
123.44
124.07
103.44
63.96
13.89
-36.04
-76.89
-104.42
-119.51
-126.05
-128.17
-128.48
-127.02
-123.14
-116.71
-109.17
-101.95
-95.83
-90.23
-83.40
-73.25
-58.34
-39.03
-17.25
4.63
23.73
38.31
48.17
54.34
58.38
61.63
64.45
66.41
66.56
64.12
58.90
51.47
42.92
34.45
27.00
20.90
15.94
11.68
7.64
3.71
0.10
-2.81
-4.59
-5.00
-4.08
-2.17
0.29
2.77
4.88
6.38
7.06
6.87
5.85
4.04
1.52
-1.60
-5.22
-9.20
-13.38
-17.79
-22.35
-27.00
-31.71
-36.48
-41.36
-46.44
-51.80
-57.50
-63.72
-70.38
-77.31
-84.24
-90.91
-97.01
-102.22
-106.20
-108.62
-109.37
-108.12
-104.50
-98.22
-89.12
-77.27
-62.92
-46.53
-27.26
-6.33
14.72
34.50
51.97
66.47
77.70
85.63
90.43
92.43
91.80
89.11
85.01
80.15
75.04
70.01
65.19
60.60
56.11
51.49
46.73
41.99
37.54
33.58
30.24
27.39
24.75
21.99
18.76
15.05
11.18
7.63
4.86
3.03
1.93
0.96
-0.56
-3.15
-6.80
-10.95
-14.70
-17.21
-18.16
-17.94
-17.55
-18.12
-20.47
-24.57
-29.53
-33.99
-36.84
-37.58
-36.67
-35.23
-34.47
-35.26
-38.31
-43.95
-51.99
-61.01
-67.99
-68.73
-59.32
-38.21
-7.73
26.36
56.92
78.35
88.79
90.22
86.72
82.10
78.22
74.90
71.18
66.69
62.09
58.70
57.31
57.57
58.09
57.09
53.13
45.89
36.42
25.71
14.91
4.62
-5.26
-15.26
-25.96
-37.52
-49.30
-60.35
-68.94
-73.82
-74.43
-70.84
-63.83
-54.50
-43.83
-32.51
-20.93
-9.38
1.93
12.70
21.82
29.30
34.99
38.83
41.03
41.97
42.07
41.73
41.27
40.85
40.59
40.45
40.33
40.20
40.25
40.15
39.71
38.77
37.13
34.74
31.70
27.70
22.68
16.72
9.98
2.75
-4.65
-11.85
-18.47
-24.45
-29.30
-32.76
-34.74
-35.34
-34.64
-32.82
-30.12
-26.76
-22.97
-19.07
-15.41
-12.22
-9.72
-7.97
-6.95
-6.81
-7.17
-7.86
-8.70
-9.60
-10.48
-11.24
-11.91
-12.42
-12.69
-12.63
-12.22
-11.48
-10.53
-9.49
-8.57
-7.86
-7.33
-6.85
-6.16
-5.11
-3.65
-1.95
-0.31
0.96
1.64
1.81
1.80
2.06
2.94
4.50
6.46
8.25
9.30
9.29
8.40
7.28
6.81
7.65
9.95
13.23
16.48
18.74
19.40
18.60
17.12
16.08
16.39
18.66
22.99
28.86
35.02
39.49
39.96
34.54
22.61
5.44
-13.92
-31.57
-44.22
-50.24
-50.02
-45.57
-39.08
-32.28
-25.92
-19.92
-13.81
-7.22
-0.25
6.38
11.39
13.19
10.41
2.70
-9.05
-22.65
-35.53
-45.49
-51.36
-53.19
-51.75
-48.22
-43.67
-39.00
-35.23
-33.74
-35.93
-42.59
-52.45
-61.83
-65.41
-58.27
-38.48
-8.52
25.11
54.43
73.35
80.06
77.09
69.28
60.62
53.60
47.96
42.29
35.96
29.90
26.06
25.95
29.59
35.11
39.85
41.36
38.83
33.39
27.75
25.00
27.28
34.74
45.01
53.96
57.16
51.83
38.09
18.76
-2.01
-20.59
-35.20
-45.81
-53.18
-57.77
-59.30
-57.51
-53.25
-48.50
-45.38
-44.72
-45.21
-44.62
-41.87
-38.63
-38.61
-44.43
-54.80
-63.57
-62.21
-44.45
-10.25
33.16
74.38
102.90
113.54
107.72
91.47
71.80
53.93
40.11
30.39
23.95
19.84
17.45
15.99
14.34
11.35
6.35
-1.04
-11.07
-23.88
-38.88
-53.99
-64.74
-65.55
-52.27
-24.57
13.34
54.13
90.57
117.65
134.41
142.00
140.91
129.55
105.49
68.32
21.77
-26.43
-67.52
-95.23
-108.41
-110.49
-107.18
-103.32
-101.07
-100.16
-99.25
-97.45
-94.57
-91.89
-89.31
-86.47
-82.75
-77.35
-69.89
-60.63
-50.41
-40.17
-30.66
-22.12
-14.43
-7.12
0.34
8.22
16.78
25.22
32.74
38.86
43.58
47.08
49.72
51.91
53.84
55.45
56.41
56.47
55.58
54.09
52.37
50.90
50.17
50.43
51.75
53.88
56.48
59.21
61.80
63.79
64.76
64.30
62.05
57.74
51.10
42.20
31.33
19.10
6.03
-7.28
-20.16
-31.97
-42.05
-49.26
-53.44
-55.38
-54.75
-51.70
-46.71
-40.50
-33.91
-27.90
-23.53
-21.42
-22.06
-25.52
-31.78
-40.62
-51.59
-64.10
-76.37
-88.21
-99.23
-109.13
-117.46
-123.94
-128.26
-130.08
-129.12
-125.11
-119.30
-110.97
-99.84
-86.05
-70.16
-52.89
-35.10
-17.65
-1.27
13.33
26.01
36.68
45.65
52.91
58.69
63.30
67.03
70.05
72.40
74.21
75.36
75.76
75.27
73.91
71.72
68.84
65.41
61.57
57.58
53.55
49.57
45.64
41.83
38.18
34.71
31.51
28.64
26.08
23.73
21.52
19.35
17.25
15.23
13.35
11.70
10.31
9.15
8.16
7.21
6.20
5.12
4.03
3.11
2.50
2.28
2.39
2.65
2.79
2.58
2.02
1.25
0.65
0.59
1.25
2.51
3.96
5.00
5.16
4.37
3.04
1.91
1.80
3.10
5.59
8.41
10.43
10.77
9.30
6.78
4.58
4.02
5.63
8.87
12.19
13.75
12.17
7.11
-0.72
-9.94
-18.90
-26.12
-30.30
-30.58
-26.60
-19.07
-9.92
-1.99
1.98
0.71
-4.88
-11.79
-16.33
-16.00
-10.76
-3.21
2.73
3.99
-0.04
-7.09
-13.19
-14.80
-10.66
-2.53
5.80
10.52
9.74
4.58
-1.68
-5.47
-5.04
-1.41
2.51
3.66
0.81
-4.62
-9.41
-10.51
-6.97
-0.70
4.50
5.18
0.27
-8.16
-15.87
-18.90
-15.74
-8.22
-0.38
3.88
2.93
-1.80
-6.78
-8.55
-5.60
0.79
7.45
11.02
10.03
5.65
0.82
-1.32
0.84
6.41
12.71
16.65
16.06
11.00
4.02
-1.19
-1.80
2.35
8.35
11.87
9.63
1.68
-7.88
-12.92
-8.69
5.15
23.99
40.13
46.82
41.41
26.71
9.86
-1.76
-5.02
-2.86
-2.52
-11.71
-34.22
-68.61
-108.25
-142.80
-161.79
-157.70
-127.88
-74.67
-5.15
69.86
136.40
181.08
195.87
181.34
146.36
105.57
74.77
65.12
78.27
103.93
124.52
124.14
95.50
42.19
-23.38
-85.53
-131.83
-150.40
-138.30
-108.39
-79.17
-59.87
-47.80
-36.34
-22.33
-7.98
1.64
1.81
-8.12
-22.82
-34.13
-36.19
-28.31
-14.29
-0.12
9.14
10.40
3.86
-6.41
-14.73
-17.14
-13.13
-5.09
3.35
9.13
10.34
6.94
1.15
-3.82
-5.74
-4.25
-0.55
3.59
6.67
7.74
6.69
4.42
2.30
1.25
1.48
2.55
3.85
4.88
5.32
5.14
4.54
3.90
3.46
3.29
3.32
3.47
3.71
4.00
4.36
4.71
5.01
5.21
5.35
5.48
5.71
6.07
6.46
6.89
7.26
7.52
7.62
7.62
7.65
7.83
8.23
8.78
9.37
9.74
9.73
9.30
8.64
8.13
8.19
9.04
10.59
12.44
13.93
14.55
14.14
13.12
12.30
12.58
14.47
17.79
21.63
24.76
26.17
25.66
24.02
22.78
23.43
26.69
31.99
37.66
41.58
42.37
40.05
36.15
32.93
32.13
34.26
38.55
43.79
48.96
53.30
55.36
52.46
41.08
18.73
-14.05
-53.01
-91.66
-124.52
-149.71
-169.49
-188.05
-208.47
-230.78
-252.41
-270.87
-286.42
-302.92
-325.17
-354.79
-387.30
-412.18
-416.98
-392.45
-337.26
-257.22
-163.86
-70.90
10.07
72.31
115.25
143.84
165.96
189.40
218.95
254.55
292.16
326.25
352.71
370.35
380.29
384.34
383.18
376.02
360.89
335.67
298.71
249.58
189.92
124.19
59.86
5.55
-32.31
-52.69
-60.68
-65.01
-73.56
-89.66
-111.22
-133.00
-150.40
-162.34
-171.48
-181.62
-194.89
-210.32
-224.22
-232.04
-230.24
-217.61
-194.12
-159.97
-115.06
-59.54
4.78
72.74
136.12
185.37
213.83
220.69
211.13
193.94
177.73
167.67
164.50
165.81
168.34
169.87
169.62
167.48
163.36
156.85
147.58
135.60
121.43
105.75
88.94
70.12
47.37
17.77
-20.05
-64.12
-108.56
-144.95
-165.18
-164.35
-142.69
-107.03
-68.31
-38.15
-25.48
-34.12
-62.40
-104.09
-150.14
-190.85
-217.37
-222.87
-203.53
-159.56
-95.82
-21.60
51.07
110.13
146.81
158.48
149.09
127.20
102.46
82.02
68.73
61.30
55.76
47.03
30.60
3.67
-33.88
-78.34
-122.80
-158.99
-180.30
-183.32
-171.34
-152.62
-136.46
-129.24
-132.08
-141.26
-150.61
-154.21
-147.81
-129.75
-98.37
-52.99
4.71
69.42
132.60
184.84
218.80
232.51
230.23
220.15
210.02
204.00
201.63
199.04
191.54
176.47
152.47
119.70
79.29
32.42
-20.00
-77.01
-136.76
-195.57
-247.61
-285.95
-304.53
-300.50
-275.54
-234.97
-185.54
-132.96
-81.48
-34.68
2.96
25.97
29.30
10.98
-25.14
-68.97
-106.77
-125.97
-119.82
-89.53
-42.88
9.28
57.25
94.94
121.43
139.86
154.48
167.99
180.28
189.58
194.19
194.07
190.89
187.01
183.87
181.09
177.06
170.03
159.35
145.93
131.68
118.53
107.59
98.58
90.07
81.28
70.47
56.98
41.43
25.38
10.45
-2.17
-12.06
-19.69
-25.88
-31.44
-36.63
-41.14
-44.46
-46.30
-46.67
-45.85
-44.42
-42.79
-41.28
-39.77
-37.95
-35.46
-32.27
-28.60
-23.86
-17.86
-10.42
-1.39
9.40
21.89
35.52
49.01
60.80
69.67
74.95
76.87
76.28
74.32
71.83
69.25
65.75
60.25
52.07
41.53
30.19
20.47
14.62
13.85
17.96
24.28
29.47
30.93
27.79
21.38
14.11
8.14
4.16
1.04
-5.43
-20.30
-48.30
-92.65
-154.40
-232.03
-321.21
-414.60
-492.50
-536.12
-533.15
-483.75
-400.88
-304.09
-211.04
-132.00
-69.14
-19.47
19.51
48.76
67.94
77.22
78.71
76.48
74.75
76.34
81.81
88.63
93.21
92.72
86.29
75.37
62.90
51.75
43.63
38.73
35.19
30.55
22.80
11.21
-3.50
-19.53
-35.21
-49.49
-62.23
-74.34
-87.15
-101.75
-118.64
-137.54
-157.36
-176.78
-194.46
-209.10
-219.68
-225.44
-225.80
-220.49
-210.75
-196.53
-177.85
-154.99
-128.61
-99.92
-70.83
-43.71
-21.25
-5.88
1.14
-0.05
-7.59
-18.26
-28.28
-34.29
-33.90
-26.06
-10.57
12.53
43.32
82.15
129.26
184.43
245.48
309.99
375.04
436.78
489.75
526.80
540.46
525.69
482.58
417.51
341.83
267.91
205.00
156.93
122.30
97.05
77.34
61.23
48.36
38.76
31.56
24.77
16.42
5.45
-7.52
-20.84
-32.57
-41.63
-48.14
-53.25
-58.58
-65.18
-73.05
-81.01
-87.25
-90.02
-88.39
-82.56
-73.45
-62.90
-52.56
-43.43
-35.71
-29.02
-22.76
-16.48
-10.13
-4.00
1.40
5.73
8.91
11.26
13.29
15.58
18.69
22.66
27.25
31.94
36.20
39.70
42.41
44.70
47.07
50.06
53.83
57.98
61.55
63.29
62.04
57.10
48.59
36.82
22.46
6.03
-12.44
-33.24
-56.73
-82.71
-109.86
-135.74
-157.17
-171.10
-175.39
-169.42
-154.09
-131.51
-104.34
-75.54
-48.21
-24.99
-7.09
6.38
18.47
32.96
52.34
75.82
99.13
115.96
120.87
112.15
92.55
67.64
43.08
22.46
6.65
-5.17
-14.10
-20.21
-22.93
-21.79
-17.37
-11.25
-5.43
-1.63
-0.42
-1.18
-2.31
-2.29
-0.22
3.77
8.74
13.38
16.66
18.23
18.17
17.57
17.47
18.46
20.52
23.13
25.57
27.26
28.03
28.11
28.04
28.28
29.12
30.50
32.20
33.86
35.21
36.11
36.63
36.94
37.17
37.38
37.52
37.51
37.21
36.51
35.33
33.60
31.31
28.39
24.76
20.39
15.24
9.24
2.38
-5.44
-14.32
-24.39
-35.81
-48.73
-63.22
-79.33
-97.12
-116.54
-137.60
-160.31
-184.65
-210.35
-237.27
-265.03
-293.22
-321.37
-349.04
-375.94
-401.92
-426.74
-450.00
-471.12
-488.95
-501.85
-508.15
-505.39
-491.05
-462.97
-419.84
-361.65
-289.92
-207.58
-118.70
-27.83
60.46
142.06
213.68
273.21
319.66
353.21
374.98
386.83
390.74
388.86
382.98
374.35
363.75
351.51
337.71
322.34
305.21
286.17
265.31
242.73
218.65
193.39
167.33
140.93
114.66
89.00
64.42
41.31
19.99
0.63
-16.74
-32.17
-45.85
-57.98
-68.86
-78.73
-87.82
-96.30
-104.26
-111.76
-118.79
-125.29
-131.16
-136.27
-140.45
-143.52
-145.32
-145.71
-144.60
-141.96
-137.82
-132.22
-125.27
-117.06
-107.96
-98.24
-88.20
-78.13
-68.29
-58.93
-50.22
-42.30
-35.28
-29.21
-24.11
-19.97
-16.86
-14.86
-14.08
-14.64
-16.73
-20.46
-25.91
-33.09
-41.88
-52.08
-63.35
-75.27
-87.34
-98.97
-109.52
-118.33
-124.75
-128.22
-128.31
-124.79
-117.62
-106.91
-92.93
-75.97
-56.37
-34.48
-10.76
14.21
39.64
64.55
87.87
108.55
125.70
138.70
147.24
151.23
150.71
145.84
136.89
124.33
108.93
91.86
74.67
59.07
46.65
38.57
35.40
37.09
43.18
52.92
65.61
80.81
98.47
119.04
143.49
173.06
208.55
249.65
294.43
339.59
381.30
416.34
443.04
461.72
474.42
484.22
494.48
508.34
527.66
553.70
586.84
626.40
670.46
715.95
758.97
795.25
820.55
831.09
823.99
797.44
750.90
685.07
601.82
504.01
395.21
279.41
160.82
43.63
-68.31
-171.77
-264.39
-344.73
-412.22
-467.03
-509.84
-541.65
-563.49
-576.39
-581.36
-579.40
-571.51
-558.73
-542.10
-522.59
-501.07
-478.22
-454.56
-430.44
-406.15
-381.88
-357.84
-334.22
-311.21
-288.96
-267.61
-247.25
-227.89
-209.55
-192.20
-175.81
-160.37
-145.87
-132.28
-119.61
-107.83
-96.92
-86.83
-77.53
-68.97
-61.13
-53.98
-47.50
-41.59
-36.28
-31.53
-27.33
-23.64
-20.43
-17.66
-15.27
-13.23
-11.48
-10.01
-8.78
-7.74
-6.86
-6.11
-5.49
-4.95
-4.49
-4.09
-3.76
-3.47
-3.22
-3.00
-2.80
-2.62
-2.46
-2.31
-2.18
-2.06
-1.95
-1.86
-1.76
-1.68
-1.60
-1.53
-1.46
-1.40
-1.34
-1.28
-1.23
-1.18
-1.14
-1.10
-1.06
-1.02
-0.98
-0.95
-0.92
-0.89
-0.86
-0.84
-0.81
-0.79
-0.75
-0.73
-0.71
-0.69
-0.67
-0.65
-0.64
-0.61
-0.60
-0.58
-0.57
-0.54
-0.53
-0.51
-0.50
-0.48
-0.47
-0.47
-0.48
-0.50
-0.54
-0.60
-0.67
-0.75
-0.83
-0.91
-0.97
-1.03
-1.06
-1.05
-1.02
-0.98
-0.91
-0.82
-0.73
-0.65
-0.58
-0.52
-0.49
-0.48
-0.48
-0.50
-0.53
-0.58
-0.63
-0.72
-0.82
-0.94
-1.08
-1.25
-1.43
-1.61
-1.79
-1.96
-2.13
-2.29
-2.44
-2.59
-2.73
-2.85
-2.93
-2.97
-2.95
-2.90
-2.80
-2.62
-2.40
-2.12
-1.79
-1.35
-0.82
-0.17
0.45
1.01
1.51
1.96
2.51
3.45
5.28
8.59
14.09
22.27
33.48
47.75
64.64
83.20
102.16
119.80
134.19
143.60
146.57
142.26
130.49
111.85
87.69
59.71
30.66
2.86
-21.77
-41.94
-57.16
-67.63
-74.09
-77.35
-78.47
-77.82
-75.85
-72.85
-69.20
-65.46
-62.27
-60.25
-59.48
-59.64
-59.98
-59.79
-58.51
-56.13
-53.28
-50.96
-50.12
-51.14
-53.66
-56.61
-58.81
-59.45
-58.40
-56.29
-54.14
-52.90
-53.29
-55.72
-60.29
-66.35
-72.03
-74.14
-68.94
-53.85
-29.10
1.64
32.30
56.74
71.20
75.54
72.62
66.41
59.88
54.14
48.84
43.34
37.70
32.84
29.82
28.99
29.69
30.58
30.31
28.17
24.46
20.21
16.65
14.66
14.35
15.11
15.92
15.88
14.55
12.14
9.32
6.90
5.41
4.95
5.17
5.45
5.32
4.50
3.13
1.51
0.07
-0.94
-1.48
-1.75
-2.04
-2.59
-3.48
-4.70
-6.12
-7.61
-9.04
-10.43
-11.72
-13.03
-14.40
-15.90
-17.62
-19.85
-23.01
-27.55
-34.10
-43.01
-54.59
-68.57
-84.12
-99.88
-113.94
-124.56
-129.54
-127.08
-116.22
-97.09
-70.74
-39.26
-5.57
27.15
55.55
76.89
89.23
91.72
84.60
69.30
48.16
23.83
-0.66
-22.65
-39.78
-50.30
-53.17
-48.10
-35.49
-16.28
7.59
34.02
60.35
84.08
103.20
116.06
121.95
120.85
113.19
99.39
80.23
56.26
28.33
-2.03
-32.98
-61.75
-85.23
-100.77
-106.74
-102.18
-87.85
-65.60
-37.64
-6.55
25.96
58.53
89.69
117.49
140.24
155.53
161.67
161.03
153.63
141.21
126.22
111.16
95.68
83.34
76.31
74.61
75.65
74.12
64.41
42.97
10.50
-27.58
-62.48
-86.93
-97.25
-94.23
-82.08
-65.48
-47.55
-29.31
-10.58
9.18
28.60
46.09
59.43
67.33
69.75
67.29
60.83
51.04
38.75
24.34
8.29
-8.88
-26.60
-44.27
-61.13
-76.80
-91.57
-106.05
-121.14
-136.77
-150.96
-159.62
-157.50
-140.92
-110.10
-69.92
-28.20
6.92
30.20
40.71
41.38
37.03
31.80
27.76
25.22
23.79
23.08
23.24
24.26
25.82
27.31
28.07
27.54
25.68
22.41
17.29
9.58
-1.80
-17.71
-38.18
-62.14
-87.72
-111.66
-130.13
-139.28
-136.24
-120.52
-94.93
-65.36
-38.49
-20.61
-13.40
-13.72
-15.54
-13.27
-4.57
8.98
23.34
34.68
41.44
44.62
46.27
47.79
49.17
49.33
47.33
43.31
38.17
33.59
31.23
31.55
33.78
36.54
38.59
39.47
39.78
40.66
43.62
49.63
58.58
69.09
79.09
86.66
90.54
90.82
88.23
84.07
79.70
75.84
72.47
68.77
63.60
56.02
45.68
32.53
16.87
-1.10
-21.61
-45.06
-71.86
-101.79
-133.34
-163.37
-188.04
-203.26
-205.97
-194.99
-171.21
-137.56
-98.20
-57.87
-21.28
7.52
25.91
33.80
33.87
31.01
30.47
35.43
45.32
56.30
63.41
63.39
56.14
44.41
32.07
21.97
14.83
9.63
5.02
0.41
-3.54
-5.77
-5.74
-3.91
-1.71
-0.81
-2.28
-6.16
-11.68
-17.68
-23.43
-28.71
-34.27
-41.18
-50.22
-61.32
-73.35
-84.72
-93.16
-97.12
-95.44
-87.99
-75.52
-59.25
-40.51
-20.44
-0.02
19.97
38.65
55.10
68.36
77.55
82.10
81.82
77.06
68.53
57.25
44.17
30.27
16.34
3.16
-8.45
-17.60
-23.39
-25.02
-22.15
-15.07
-4.78
7.19
18.96
28.78
35.56
38.90
39.33
38.32
37.96
40.30
46.46
56.13
66.52
74.86
78.41
75.33
65.27
49.36
29.93
9.94
-7.64
-20.33
-26.76
-27.21
-23.42
-17.95
-13.16
-10.35
-9.53
-9.92
-10.61
-11.13
-11.56
-12.10
-12.66
-12.91
-12.46
-11.19
-9.40
-7.69
-6.59
-6.30
-6.71
-7.37
-7.82
-7.71
-6.95
-5.68
-4.24
-3.10
-2.46
-2.37
-2.62
-2.87
-2.46
-0.58
3.79
11.58
23.07
38.09
55.84
74.77
92.92
108.33
118.59
121.69
116.12
100.56
74.24
37.50
-7.94
-58.46
-108.67
-152.34
-183.12
-196.32
-190.03
-165.58
-127.13
-80.72
-32.84
10.20
42.96
61.79
65.82
57.42
41.76
26.35
17.02
16.30
22.27
29.97
34.03
31.21
20.99
5.21
-13.77
-34.82
-57.39
-80.89
-103.84
-124.45
-139.74
-147.82
-147.64
-139.47
-124.02
-101.96
-73.82
-39.79
-1.51
39.49
80.93
119.33
149.74
166.57
165.67
146.37
112.61
72.44
35.41
8.48
-5.76
-9.38
-6.98
-2.66
1.74
6.43
12.78
21.84
33.01
45.29
57.91
71.04
85.36
101.36
117.90
132.24
140.80
139.99
127.93
104.96
73.64
37.44
0.87
-33.04
-62.75
-87.81
-108.90
-126.96
-143.10
-158.30
-171.67
-181.19
-183.96
-177.40
-161.07
-138.33
-115.50
-99.73
-95.87
-104.19
-120.31
-137.26
-148.25
-149.01
-138.61
-118.44
-90.90
-58.35
-22.40
14.31
49.35
80.60
106.51
126.01
138.92
145.80
147.63
146.71
144.53
142.83
143.19
146.47
152.35
159.94
168.35
175.39
178.74
175.27
162.15
138.01
104.54
66.74
31.52
4.94
-10.39
-16.10
-17.49
-20.90
-31.18
-49.78
-74.48
-100.14
-120.79
-132.07
-131.88
-121.11
-102.88
-81.44
-60.62
-42.34
-26.80
-13.44
-1.92
8.07
16.73
25.15
35.10
48.42
66.22
87.70
110.50
130.68
144.47
148.96
143.02
127.43
104.49
77.32
48.60
20.86
-4.84
-28.21
-49.39
-68.25
-84.22
-96.43
-104.08
-106.57
-104.75
-100.37
-95.54
-91.97
-90.26
-89.91
-90.46
-91.50
-92.99
-95.10
-96.87
-95.46
-87.44
-70.61
-45.80
-18.14
5.61
20.21
23.91
19.24
10.62
1.20
-9.16
-23.23
-43.82
-70.64
-99.35
-123.81
-139.29
-145.48
-146.16
-146.08
-147.57
-147.54
-139.59
-117.92
-81.40
-34.54
13.96
55.38
84.66
101.94
112.33
121.56
132.64
145.14
156.82
165.21
169.11
170.32
170.07
170.37
172.72
177.16
182.71
187.67
190.33
189.36
183.60
171.26
150.50
120.06
80.40
35.03
-9.98
-47.44
-70.68
-76.74
-67.95
-50.41
-31.45
-16.53
-7.52
-3.56
-3.09
-4.61
-8.61
-16.83
-30.58
-49.30
-70.10
-88.68
-100.99
-105.56
-102.58
-94.62
-84.79
-75.82
-69.66
-67.54
-70.32
-76.45
-86.23
-97.56
-105.94
-105.79
-92.67
-66.47
-31.91
3.22
31.20
47.15
51.28
47.27
39.78
32.46
26.55
21.65
17.43
13.90
11.23
9.93
9.91
10.13
9.18
5.44
-2.09
-13.63
-29.13
-48.23
-69.93
-92.74
-115.41
-135.35
-149.80
-156.28
-153.13
-139.79
-116.70
-85.17
-47.09
-4.34
39.42
81.03
118.28
150.10
176.17
195.93
207.60
208.00
194.14
165.31
124.86
79.84
38.90
8.99
-7.19
-11.75
-9.63
-5.57
-2.18
0.67
4.30
9.77
17.10
25.55
34.15
43.02
52.86
64.38
77.83
91.89
103.60
109.54
106.92
94.19
71.82
42.19
8.97
-23.36
-51.49
-73.18
-87.67
-95.42
-97.87
-96.99
-94.24
-90.84
-86.83
-82.35
-77.56
-72.83
-68.58
-65.56
-64.35
-65.05
-67.70
-71.36
-75.71
-80.35
-84.70
-88.42
-91.02
-92.71
-94.38
-97.11
-100.81
-102.97
-101.49
-93.52
-77.81
-55.17
-28.94
-4.02
14.59
23.59
22.30
12.13
-2.73
-17.01
-25.05
-23.05
-10.55
9.36
31.32
50.32
64.31
74.92
84.94
96.93
111.43
126.81
140.65
153.54
164.13
172.39
177.83
178.51
171.70
154.89
126.85
88.52
43.79
-2.45
-44.32
-76.80
-97.03
-103.68
-97.12
-78.98
-51.92
-18.88
16.47
50.43
78.64
96.29
99.72
86.93
58.32
16.47
-33.38
-84.72
-130.73
-165.81
-187.09
-193.22
-184.50
-159.13
-120.57
-74.29
-25.83
20.31
60.96
93.14
115.64
128.43
132.43
129.60
122.79
115.01
108.84
106.32
108.15
114.73
124.70
134.54
139.65
136.68
125.24
108.51
93.98
84.70
82.68
86.38
91.41
92.31
85.39
69.89
46.17
18.65
-9.74
-36.94
-61.97
-84.03
-102.08
-114.79
-121.18
-121.08
-115.55
-107.32
-98.73
-91.60
-86.59
-83.36
-80.74
-77.52
-72.85
-66.72
-60.32
-54.69
-50.56
-48.04
-46.60
-45.36
-43.39
-40.47
-36.76
-33.19
-30.60
-29.40
-29.46
-30.32
-31.39
-32.27
-33.39
-35.31
-39.02
-45.13
-53.59
-63.89
-75.34
-88.15
-100.75
-111.56
-118.48
-119.22
-112.20
-97.36
-76.42
-52.39
-28.17
-5.55
14.80
33.01
49.52
64.25
76.60
85.94
91.64
93.60
92.23
87.94
81.25
73.00
63.98
54.65
44.82
34.07
22.46
10.93
1.00
-6.63
-12.55
-18.47
-25.87
-34.47
-41.81
-44.68
-41.56
-34.11
-27.27
-26.47
-34.24
-48.16
-61.89
-68.34
-63.17
-46.76
-22.96
3.39
29.13
53.84
79.32
107.42
137.81
167.90
189.83
198.46
191.04
167.45
130.28
84.71
37.76
-3.34
-32.93
-48.62
-51.28
-45.28
-36.10
-28.00
-22.67
-19.50
-17.32
-15.70
-15.46
-17.13
-20.90
-25.72
-29.68
-30.96
-28.94
-24.52
-19.61
-16.34
-15.69
-17.53
-20.73
-23.72
-25.27
-24.95
-23.32
-21.51
-20.76
-21.59
-23.97
-27.32
-30.64
-33.29
-35.00
-36.10
-37.31
-39.53
-43.48
-49.77
-58.85
-70.77
-85.55
-102.92
-122.23
-142.34
-162.20
-179.31
-191.00
-194.86
-189.10
-172.89
-146.50
-111.43
-70.11
-25.41
18.86
59.43
93.85
120.57
139.08
149.81
153.83
152.42
147.17
139.57
130.86
122.47
114.47
106.95
99.94
93.43
87.15
81.03
75.10
69.42
64.08
59.02
54.27
49.80
45.53
41.37
37.33
33.42
29.74
26.36
23.23
20.40
17.83
15.44
13.14
10.96
8.91
7.09
5.57
4.34
3.35
2.50
1.64
0.65
-0.42
-1.42
-2.12
-2.30
-1.91
-1.08
-0.11
0.68
0.97
0.87
0.69
0.82
1.68
3.47
5.93
8.61
11.04
12.99
15.02
18.05
23.19
31.31
42.74
56.76
71.89
86.76
99.42
108.80
114.40
116.22
114.50
109.75
102.69
94.33
85.31
75.18
62.47
44.91
21.05
-8.47
-40.30
-69.50
-91.43
-103.68
-106.87
-103.41
-96.46
-88.48
-80.62
-73.31
-67.22
-63.82
-64.75
-70.95
-81.37
-93.75
-105.21
-112.89
-114.97
-110.86
-101.43
-88.60
-74.60
-60.86
-48.58
-38.06
-28.59
-19.16
-8.39
4.98
21.93
42.91
68.26
96.82
126.37
154.03
176.43
190.44
193.80
185.50
163.28
130.88
93.00
54.22
18.29
-12.27
-36.22
-53.26
-63.98
-69.30
-69.99
-67.59
-63.55
-58.91
-54.34
-50.24
-46.64
-43.58
-40.95
-38.16
-35.77
-34.54
-35.21
-38.42
-44.62
-53.55
-64.54
-78.25
-91.76
-103.15
-110.60
-112.52
-107.89
-96.40
-78.37
-54.84
-27.38
2.24
31.57
58.30
80.70
97.64
108.78
114.80
117.06
117.51
118.20
120.43
125.21
132.89
143.07
154.90
167.44
179.78
191.30
201.29
208.59
212.02
210.43
202.50
187.34
164.53
133.77
98.55
61.82
25.86
-8.02
-39.74
-70.31
-101.02
-132.48
-164.34
-195.12
-223.09
-246.91
-266.22
-282.09
-296.88
-313.26
-333.05
-355.91
-379.14
-398.41
-408.79
-406.24
-388.75
-356.52
-311.70
-257.89
-199.70
-142.46
-90.92
-47.37
-10.53
23.37
58.21
95.12
131.37
161.75
180.81
186.82
183.41
178.30
179.09
189.60
208.42
229.92
247.46
254.97
250.00
234.38
213.21
192.01
173.97
159.19
145.06
128.78
107.31
80.26
49.86
19.06
-11.08
-42.60
-79.67
-125.89
-169.08
-196.74
-201.69
-186.44
-159.88
-131.55
-108.20
-93.06
-86.05
-84.19
-84.99
-86.25
-85.99
-83.17
-78.16
-72.33
-67.29
-64.31
-63.71
-66.38
-72.18
-78.25
-79.57
-70.61
-48.20
-13.43
28.07
68.39
99.46
116.82
121.08
116.55
108.41
99.95
91.90
83.28
73.53
63.04
53.51
46.90
44.11
44.25
44.93
43.39
37.72
27.95
16.05
4.89
-2.78
-5.73
-4.93
-3.45
-4.84
-12.37
-27.54
-49.25
-74.90
-100.97
-124.01
-141.52
-153.38
-159.79
-162.85
-165.59
-170.38
-177.68
-185.17
-188.17
-179.95
-156.24
-114.99
-58.05
9.18
79.15
143.79
196.58
234.08
256.21
265.32
264.24
254.57
234.45
201.73
156.63
103.94
52.00
9.68
-17.44
-29.31
-31.02
-29.74
-31.14
-37.35
-46.88
-56.14
-60.99
-58.14
-45.84
-24.48
3.09
32.25
57.68
75.46
84.17
85.18
81.39
75.55
68.93
61.45
52.73
43.17
34.21
27.65
24.67
25.03
27.31
29.54
29.96
27.78
23.34
17.73
12.41
8.81
7.81
9.50
13.08
17.22
20.07
20.38
17.67
12.92
8.18
5.68
7.20
13.19
23.22
36.09
51.16
67.63
84.13
98.79
108.25
109.94
103.38
91.33
77.11
63.20
49.04
31.47
6.29
-26.85
-64.38
-101.03
-129.30
-143.99
-143.08
-129.56
-109.77
-89.10
-71.00
-55.61
-40.54
-22.67
-1.80
18.17
29.93
25.56
2.87
-34.81
-78.89
-120.60
-152.68
-172.13
-179.27
-175.73
-162.84
-140.06
-107.17
-65.48
-18.41
29.18
71.23
102.82
121.84
128.16
124.90
115.62
103.63
90.71
77.61
63.96
49.20
33.77
18.06
3.88
-7.69
-16.63
-23.99
-30.61
-36.21
-39.39
-38.56
-34.69
-29.13
-24.84
-25.51
-33.90
-50.09
-71.32
-92.77
-109.26
-118.13
-116.09
-102.19
-80.03
-56.74
-39.80
-33.73
-39.92
-53.34
-65.47
-62.39
-31.34
32.96
127.58
243.08
367.32
488.11
595.00
657.61
656.49
594.36
492.87
377.36
263.21
155.66
55.49
-35.99
-115.63
-180.28
-225.74
-251.35
-261.06
-261.86
-260.99
-264.59
-268.68
-273.35
-274.47
-266.15
-244.60
-210.69
-170.07
-130.08
-96.11
-70.14
-51.64
-35.61
-17.18
5.00
28.86
50.73
67.89
80.01
88.39
93.02
94.28
91.37
82.10
64.33
36.80
0.37
-41.25
-82.65
-118.63
-139.52
-141.37
-125.14
-94.55
-55.44
-13.62
27.10
64.61
98.14
128.69
157.01
182.54
203.83
217.87
221.83
215.10
198.38
172.77
137.38
94.11
47.09
2.30
-35.22
-64.99
-86.44
-101.61
-115.02
-130.85
-151.71
-175.35
-196.15
-210.87
-219.02
-222.77
-227.15
-238.40
-251.68
-266.47
-281.95
-283.67
-265.24
-228.39
-180.95
-131.86
-86.30
-44.55
-6.44
29.19
63.64
95.34
122.67
144.90
162.41
176.25
189.48
201.74
212.14
219.73
221.61
215.13
198.50
171.41
132.10
86.05
37.75
-9.17
-52.08
-89.64
-119.49
-137.68
-139.94
-124.05
-91.77
-50.74
-10.70
20.21
37.67
42.33
38.46
31.05
23.64
17.61
12.01
5.91
-0.63
-6.98
-13.04
-19.49
-27.80
-39.46
-54.92
-73.48
-92.88
-110.59
-123.16
-128.32
-125.27
-114.58
-97.62
-75.90
-51.29
-25.43
0.56
25.91
49.72
71.28
89.95
105.92
120.31
133.78
146.63
159.13
171.15
181.95
190.70
196.23
197.74
195.65
190.03
181.65
172.88
167.02
166.87
173.02
182.00
187.26
181.67
158.42
114.45
51.65
-24.56
-108.73
-192.87
-271.77
-342.68
-392.85
-411.60
-395.73
-351.84
-291.71
-226.36
-162.68
-105.38
-56.03
-13.58
22.38
52.49
78.01
100.54
121.44
143.20
164.66
183.89
199.01
207.10
205.43
192.80
169.76
135.31
95.09
53.90
15.49
-17.68
-45.10
-67.13
-84.23
-96.45
-103.54
-105.11
-102.45
-97.29
-91.35
-86.41
-83.60
-83.06
-83.92
-84.66
-83.84
-81.38
-77.75
-73.64
-69.79
-66.80
-65.36
-66.11
-69.26
-73.48
-75.91
-72.10
-57.72
-31.05
5.56
45.72
81.62
106.85
119.21
120.44
115.02
107.58
100.87
95.73
91.98
90.05
90.72
93.96
97.48
96.68
86.31
63.04
27.92
-13.51
-52.90
-83.24
-101.62
-109.99
-113.86
-118.22
-126.28
-138.41
-153.59
-168.75
-181.65
-190.73
-194.69
-192.11
-181.54
-162.24
-133.15
-97.32
-57.97
-18.74
17.09
47.29
70.90
88.18
100.17
108.01
112.05
113.07
111.61
108.36
104.36
100.86
99.02
99.72
103.16
108.41
114.68
121.12
127.15
132.58
136.72
138.35
135.67
126.30
108.10
80.03
42.73
-1.03
-46.81
-89.55
-124.63
-148.48
-159.26
-156.88
-142.59
-119.31
-90.95
-61.72
-34.99
-12.18
7.69
26.79
46.56
66.30
82.29
90.07
86.74
72.77
52.03
30.06
11.43
-1.86
-10.33
-15.93
-20.02
-23.01
-24.22
-23.14
-20.05
-16.32
-13.62
-13.10
-15.03
-18.55
-22.25
-24.76
-25.50
-24.82
-23.63
-23.09
-23.89
-26.27
-29.69
-33.31
-36.41
-38.83
-41.05
-44.12
-49.42
-57.67
-69.21
-83.50
-99.26
-114.59
-127.56
-135.58
-136.33
-127.97
-109.36
-80.42
-42.20
2.87
51.19
98.34
139.81
171.50
190.56
195.82
187.52
167.74
139.65
106.95
73.42
42.38
16.21
-3.90
-17.63
-26.15
-31.01
-34.10
-37.47
-42.76
-50.90
-61.82
-74.63
-87.63
-98.91
-106.58
-108.93
-105.37
-96.24
-82.76
-66.46
-49.04
-31.73
-15.57
-1.17
11.13
20.69
27.32
31.11
33.11
35.13
39.82
49.81
64.96
85.49
109.86
135.43
158.93
177.64
189.81
195.08
194.04
187.92
178.81
168.91
160.19
153.42
147.32
138.42
122.59
97.59
65.08
31.43
5.24
-6.83
-2.67
14.68
37.78
58.43
70.64
71.83
62.15
43.29
16.15
-18.81
-61.30
-108.93
-158.93
-209.21
-256.53
-297.62
-329.37
-349.99
-358.51
-354.80
-339.16
-312.17
-274.67
-228.08
-175.16
-118.88
-62.45
-7.46
46.28
99.94
154.20
207.20
254.26
284.40
290.90
272.25
232.88
180.96
124.88
71.04
22.39
-20.53
-58.66
-91.36
-117.67
-136.30
-146.25
-148.75
-144.08
-132.55
-114.54
-90.94
-62.20
-30.21
2.15
31.09
51.88
58.92
49.36
23.26
-16.87
-64.91
-115.85
-164.37
-205.58
-235.74
-252.42
-254.21
-241.26
-215.27
-176.78
-129.13
-76.26
-22.12
29.65
75.95
114.85
148.22
175.34
195.34
207.54
212.39
210.92
204.23
193.18
178.98
162.29
143.54
123.93
105.16
89.99
81.60
83.31
93.91
113.06
139.08
168.26
195.80
216.60
226.93
225.44
213.45
194.23
172.34
151.53
133.61
118.86
106.20
93.87
79.98
62.95
41.58
15.69
-14.18
-46.82
-80.01
-111.30
-138.42
-160.03
-174.04
-178.70
-173.36
-159.28
-140.63
-120.86
-102.19
-85.26
-69.20
-51.78
-30.89
-5.33
24.56
56.79
88.37
116.06
137.60
152.07
160.03
162.73
161.43
157.20
150.52
141.47
129.72
114.90
96.91
76.21
53.47
28.83
1.93
-27.71
-59.59
-91.59
-120.03
-140.78
-150.93
-150.10
-140.80
-127.47
-114.96
-106.95
-105.20
-109.84
-119.91
-133.84
-149.75
-165.55
-178.57
-186.01
-185.11
-173.80
-151.51
-119.29
-79.93
-37.41
3.92
40.05
68.01
86.01
93.88
92.81
85.11
73.76
61.71
51.47
44.76
42.15
42.96
45.47
47.48
47.32
44.71
40.94
38.31
38.97
43.57
50.84
58.14
62.80
63.38
60.29
55.33
50.47
46.72
43.64
39.79
33.60
24.07
10.83
-6.33
-27.63
-52.87
-80.57
-107.38
-128.05
-137.04
-130.53
-108.12
-73.46
-32.92
6.63
39.91
64.37
80.12
88.85
92.58
92.86
90.53
86.26
80.95
75.69
71.36
67.74
63.19
54.73
39.19
14.78
-17.80
-55.16
-92.00
-122.44
-141.85
-148.03
-141.38
-124.34
-100.46
-73.44
-46.66
-23.05
-5.26
4.35
4.52
-3.66
-15.85
-25.30
-24.96
-10.70
16.52
50.67
82.72
104.40
111.33
103.81
85.57
61.16
34.26
7.24
-18.23
-40.29
-56.48
-64.76
-64.73
-58.69
-51.75
-50.26
-59.59
-82.05
-115.85
-155.06
-191.42
-216.97
-226.94
-221.89
-205.85
-184.19
-161.27
-139.65
-120.65
-105.74
-97.43
-98.97
-114.39
-144.83
-187.89
-238.36
-289.85
-336.59
-373.61
-396.21
-400.10
-383.96
-347.93
-294.48
-228.28
-155.12
-81.04
-11.34
49.79
109.97
168.43
219.37
255.75
274.41
278.21
272.91
263.42
252.02
238.33
219.71
195.59
168.05
137.65
108.29
82.76
62.25
46.98
36.18
27.78
20.74
14.78
10.15
7.33
5.74
4.10
3.64
4.20
4.69
4.70
4.35
4.02
4.39
5.42
6.69
7.82
8.17
6.99
4.13
-0.34
-6.29
-13.42
-21.86
-31.85
-43.35
-56.21
-69.67
-82.38
-92.47
-97.89
-96.82
-88.09
-71.43
-47.38
-17.48
16.39
52.03
87.29
120.16
148.83
171.80
187.84
196.35
197.32
191.68
181.25
168.20
154.54
141.28
128.32
114.38
97.71
76.82
51.17
21.55
-10.03
-40.68
-67.45
-88.00
-101.58
-109.37
-114.27
-120.03
-129.71
-144.17
-161.06
-175.25
-180.22
-170.34
-142.70
-98.07
-40.64
23.79
89.62
153.30
213.88
272.17
329.12
384.24
434.58
474.95
499.28
502.22
480.70
434.78
367.62
285.28
195.91
108.57
31.74
-28.43
-69.23
-91.33
-97.66
-91.64
-76.23
-53.72
-26.69
1.33
25.71
41.76
46.64
40.94
28.52
15.09
5.55
1.92
3.03
5.71
6.92
5.75
4.09
5.74
13.94
29.32
49.35
69.60
85.99
96.33
100.29
99.43
95.59
89.34
79.52
64.19
42.24
14.75
-15.08
-43.84
-67.03
-80.19
-80.32
-67.02
-42.82
-12.24
19.18
45.82
59.97
55.98
30.71
-16.75
-85.67
-174.03
-277.89
-391.36
-506.85
-618.36
-716.99
-791.08
-828.50
-820.77
-766.66
-673.26
-554.58
-409.54
-251.66
-101.71
21.09
107.47
159.21
183.75
189.10
181.94
167.78
148.59
126.84
105.85
87.95
73.62
60.96
47.25
30.48
10.37
-13.63
-41.02
-69.06
-95.87
-119.05
-137.52
-151.02
-159.23
-160.94
-155.42
-143.83
-126.22
-103.56
-78.00
-53.06
-32.64
-19.75
-15.29
-17.68
-26.78
-38.88
-49.43
-53.74
-47.65
-27.81
5.21
50.80
108.45
172.18
237.26
298.26
349.81
387.39
407.96
410.37
384.25
348.94
305.18
256.33
204.98
153.02
102.07
53.63
9.49
-27.15
-51.22
-62.87
-61.37
-47.96
-25.35
3.50
35.85
69.84
106.04
146.68
189.93
234.02
275.29
309.38
332.77
343.92
343.72
336.87
329.88
326.88
331.82
346.60
370.80
401.75
434.18
449.19
430.65
369.48
268.04
142.17
13.98
-97.61
-182.82
-241.75
-280.30
-303.53
-314.43
-314.33
-304.41
-287.62
-268.60
-251.98
-240.58
-234.68
-231.16
-226.10
-216.58
-201.91
-183.93
-165.86
-150.74
-140.15
-133.89
-129.60
-124.61
-117.08
-106.67
-94.68
-83.11
-73.64
-66.98
-62.74
-59.44
-55.71
-50.78
-44.64
-37.90
-30.96
-23.58
-14.92
-3.81
10.70
28.41
47.77
66.71
82.25
91.96
94.46
89.39
76.93
57.60
31.77
-0.11
-37.12
-77.65
-119.60
-160.99
-199.41
-231.91
-254.59
-262.90
-252.98
-223.81
-178.57
-124.21
-69.74
-22.95
11.72
34.09
47.07
54.47
58.89
61.19
61.65
60.42
58.16
55.64
53.13
50.37
46.73
41.55
34.54
27.02
20.41
15.50
11.83
7.75
1.83
-6.54
-16.46
-25.62
-29.58
-24.14
-6.69
23.20
62.10
106.03
150.57
191.56
225.45
250.71
266.58
273.04
270.73
260.69
244.15
220.83
188.82
139.24
70.59
-9.51
-86.15
-144.00
-174.89
-179.55
-165.91
-144.02
-121.68
-100.97
-80.55
-58.65
-34.79
-10.42
12.76
33.33
50.62
65.13
78.16
90.77
102.57
111.86
115.99
113.09
101.68
81.04
49.96
8.61
-38.61
-86.78
-131.73
-173.38
-210.44
-241.49
-265.15
-282.09
-292.55
-296.86
-296.02
-291.31
-283.57
-271.76
-254.17
-218.26
-162.15
-92.55
-23.14
31.44
61.74
66.41
51.45
25.12
-5.97
-40.29
-78.37
-120.52
-164.84
-207.61
-246.09
-277.06
-298.62
-310.28
-313.62
-309.69
-298.61
-279.37
-251.40
-215.47
-173.53
-128.83
-84.78
-44.60
-8.80
19.66
41.09
57.37
70.82
83.64
97.07
111.37
125.71
139.00
150.23
159.48
167.04
173.27
178.55
183.02
186.56
188.71
188.78
186.04
180.65
173.24
164.81
156.69
150.17
146.33
145.74
148.44
154.19
163.05
175.23
190.95
210.45
233.85
261.25
292.74
328.26
366.88
406.14
441.36
466.25
474.72
463.26
432.85
389.17
341.28
298.89
269.64
257.15
260.74
276.41
298.15
319.22
332.94
333.44
316.54
280.80
228.48
165.56
100.47
41.90
-3.89
-34.47
-51.32
-58.26
-59.63
-58.89
-58.59
-61.09
-69.05
-85.48
-112.72
-151.22
-198.55
-249.63
-297.68
-336.39
-361.92
-373.82
-375.13
-371.46
-369.34
-374.37
-389.13
-411.81
-435.67
-450.79
-447.31
-420.15
-372.26
-314.73
-263.16
-231.87
-228.60
-251.97
-292.93
-338.49
-375.98
-395.56
-391.21
-360.96
-307.07
-236.70
-161.55
-95.87
-52.57
-39.10
-54.37
-89.04
-128.57
-158.13
-167.50
-153.86
-121.39
-78.87
-35.85
0.42
26.55
42.18
49.27
50.81
50.35
51.84
59.48
77.16
107.10
148.30
195.23
238.56
267.88
276.06
262.49
234.00
202.13
178.19
168.61
172.79
184.81
196.99
203.95
204.37
200.60
196.42
194.84
197.01
202.50
210.58
221.03
234.47
252.09
274.44
300.33
326.44
348.14
361.52
365.37
361.94
355.99
352.57
354.50
361.23
369.54
375.39
375.73
369.37
356.42
336.93
310.15
274.59
228.96
173.61
111.20
46.24
-15.88
-70.55
-114.76
-147.13
-167.51
-176.46
-174.56
-162.31
-140.04
-108.57
-69.77
-26.81
16.22
54.76
84.31
101.16
102.48
87.25
57.21
16.73
-27.01
-65.80
-93.40
-107.97
-112.53
-113.61
-118.07
-129.79
-150.17
-177.02
-206.10
-233.12
-255.12
-270.36
-277.84
-276.93
-267.04
-252.15
-236.96
-226.06
-222.20
-226.40
-238.53
-258.47
-286.90
-325.17
-379.64
-452.16
-537.59
-623.15
-693.38
-737.50
-754.08
-750.73
-739.28
-736.39
-749.91
-777.89
-811.18
-840.12
-860.11
-872.00
-877.72
-832.91
-709.39
-504.87
-252.27
-3.85
195.54
325.54
392.08
418.63
433.45
445.93
460.05
471.97
476.71
472.93
463.67
454.49
450.46
454.14
460.23
462.61
456.51
442.02
423.31
405.96
394.57
391.14
394.83
401.01
406.28
409.36
411.54
414.56
417.91
417.94
408.92
380.09
326.68
255.10
181.19
122.72
90.78
86.23
102.88
131.56
163.25
193.08
218.32
237.31
249.02
253.11
250.30
243.18
233.68
218.99
197.54
167.97
129.66
82.57
26.75
-37.58
-108.93
-187.43
-277.00
-379.97
-496.57
-623.46
-754.09
-879.95
-992.28
-1081.78
-1117.75
-1079.67
-963.28
-786.34
-581.24
-380.50
-206.30
-77.11
15.32
80.53
122.01
141.46
140.68
123.14
93.91
58.18
19.69
-17.61
-52.11
-83.57
-109.30
-124.75
-125.47
-109.89
-79.85
-40.92
0.95
39.36
69.35
89.20
99.35
101.33
96.54
88.44
80.76
77.92
82.23
94.30
113.89
140.28
172.48
209.19
251.98
301.76
358.55
419.58
480.23
535.18
579.45
608.93
620.85
618.58
607.11
592.04
577.85
567.66
563.51
567.14
580.20
579.17
548.98
483.56
387.78
272.67
148.90
24.61
-92.83
-195.56
-277.16
-330.71
-355.26
-355.54
-339.78
-315.82
-288.53
-259.90
-230.72
-202.79
-175.53
-149.57
-124.95
-103.33
-86.66
-76.28
-73.15
-77.70
-90.12
-107.41
-126.25
-143.28
-155.72
-161.71
-160.50
-152.87
-140.93
-127.48
-113.97
-102.01
-92.99
-88.24
-89.47
-97.17
-110.67
-129.72
-152.70
-175.37
-192.98
-201.03
-195.69
-175.26
-141.79
-101.88
-65.17
-43.96
-44.08
-68.51
-116.13
-179.56
-245.94
-300.70
-331.60
-332.39
-303.73
-252.03
-183.14
-107.85
-36.46
25.08
75.06
114.71
146.16
171.44
192.33
208.82
220.78
220.78
203.08
165.13
108.86
39.09
-38.53
-114.69
-188.43
-259.25
-325.19
-382.62
-428.17
-457.98
-469.97
-463.72
-439.70
-399.72
-345.57
-279.40
-203.51
-120.19
-33.07
52.89
132.41
201.17
255.88
295.56
320.77
333.58
338.69
340.22
340.63
340.93
341.56
342.50
344.17
346.86
350.87
359.68
375.50
398.26
426.07
456.89
489.80
525.57
565.13
607.87
654.57
701.15
738.97
757.93
750.95
716.92
660.82
590.86
487.94
348.50
183.47
15.78
-130.79
-241.77
-314.17
-352.51
-364.77
-359.15
-337.94
-303.19
-257.60
-204.86
-149.08
-94.08
-41.47
7.14
50.08
89.12
124.97
156.83
182.84
200.83
209.26
208.46
199.85
185.30
168.62
151.92
134.80
114.21
88.66
56.20
16.00
-31.56
-85.03
-141.41
-197.90
-252.20
-302.37
-349.53
-394.53
-436.83
-474.72
-505.96
-528.66
-542.42
-547.88
-545.89
-541.55
-538.69
-538.24
-538.25
-535.72
-528.35
-516.05
-500.03
-481.75
-468.23
-464.95
-473.91
-493.50
-520.37
-552.02
-587.76
-627.71
-635.52
-589.22
-486.35
-345.98
-196.40
-60.31
50.79
134.68
194.29
234.39
254.09
253.94
238.41
217.09
201.87
201.99
220.68
254.20
294.20
326.55
341.08
334.53
311.19
278.62
243.28
208.34
174.03
140.18
105.10
69.35
34.19
3.88
-17.88
-29.13
-29.56
-19.72
0.51
30.47
70.18
116.93
167.76
218.64
264.87
304.28
333.79
351.87
358.27
353.87
339.39
315.62
282.50
240.05
189.18
132.09
73.02
17.31
-29.61
-63.41
-81.05
-81.75
-67.19
-41.73
-12.63
11.23
21.59
15.15
-4.96
-30.14
-50.60
-59.55
-55.18
-40.90
-21.91
-2.32
16.91
36.78
58.71
82.55
106.27
128.30
145.74
156.53
159.85
156.09
145.76
129.19
106.40
77.10
40.62
-0.91
-44.65
-87.51
-126.28
-158.34
-181.99
-196.84
-204.12
-205.85
-204.44
-202.12
-200.44
-200.39
-202.88
-208.53
-216.61
-225.14
-229.79
-225.71
-209.85
-183.01
-149.99
-118.09
-94.81
-81.79
-77.08
-75.72
-72.38
-63.67
-49.04
-29.74
-7.74
15.42
38.85
61.06
80.11
93.56
99.11
95.51
83.31
64.87
43.72
23.70
7.47
-3.43
-9.13
-10.75
-9.87
-8.14
-6.80
-6.63
-7.81
-10.60
-14.63
-19.69
-24.69
-28.43
-29.71
-27.32
-19.95
-5.93
13.51
37.89
66.44
99.12
135.15
172.98
210.39
245.15
275.64
301.22
322.72
341.23
358.65
374.97
387.97
393.96
389.23
371.42
340.07
296.92
236.21
158.55
70.15
-18.18
-94.58
-150.62
-183.63
-196.43
-194.63
-184.61
-170.22
-154.17
-138.39
-124.56
-114.20
-108.14
-106.28
-107.37
-109.85
-111.02
-109.17
-103.89
-95.91
-86.55
-76.99
-67.95
-59.53
-51.55
-43.01
-33.41
-23.05
-12.82
-3.80
3.35
8.40
11.65
13.83
16.20
19.82
25.06
31.77
39.51
47.09
53.24
56.73
56.50
52.05
43.42
31.35
17.43
3.82
-6.69
-11.46
-8.28
4.03
24.97
52.34
82.67
111.67
134.76
148.24
149.62
138.30
115.68
84.59
48.66
12.33
-20.19
-45.70
-62.21
-69.13
-67.16
-58.02
-43.64
-26.51
-8.11
10.80
30.16
50.56
72.94
98.16
126.49
162.17
205.18
253.08
301.35
344.20
375.77
391.61
389.78
371.02
338.76
297.81
253.71
210.98
172.13
137.40
105.54
74.80
42.49
6.86
-33.01
-76.86
-124.24
-175.01
-229.19
-286.18
-344.34
-403.29
-460.33
-510.15
-545.47
-560.17
-552.53
-526.55
-491.17
-457.57
-439.74
-445.83
-475.42
-519.98
-567.18
-605.71
-628.30
-633.12
-623.41
-610.78
-604.98
-609.32
-619.17
-625.05
-617.76
-591.95
-547.74
-457.41
-316.62
-143.35
30.93
178.97
288.37
358.64
394.78
402.94
388.97
353.78
299.67
233.38
164.12
100.31
43.04
-7.20
-49.62
-82.16
-105.41
-119.72
-122.05
-108.31
-76.19
-28.80
27.21
85.00
139.27
185.56
221.30
245.24
261.56
278.24
302.35
328.55
349.96
358.67
367.09
378.66
397.79
420.84
450.84
491.30
542.63
603.06
668.07
730.96
781.65
812.23
817.72
797.23
751.79
683.10
595.88
496.87
393.36
289.54
188.80
92.95
2.57
-84.28
-172.42
-265.42
-363.53
-462.27
-554.86
-632.60
-687.93
-715.97
-705.80
-653.05
-562.46
-448.76
-331.79
-229.57
-152.42
-102.52
-75.06
-61.80
-55.86
-52.43
-48.68
-43.46
-36.53
-27.73
-17.28
-5.04
8.46
20.79
29.38
33.17
33.27
32.12
32.41
35.66
42.15
50.84
59.02
64.27
65.78
64.68
63.14
63.49
67.27
74.70
84.91
96.11
105.90
112.83
116.70
117.58
115.37
109.35
98.25
80.80
55.51
22.56
-16.32
-57.01
-95.70
-129.26
-155.81
-176.37
-190.22
-197.71
-198.92
-194.58
-185.54
-172.47
-154.89
-131.07
-99.17
-56.51
-7.97
39.04
76.23
97.59
101.43
90.98
72.63
52.68
35.47
21.85
11.36
3.15
-2.78
-5.93
-5.98
-3.42
0.06
2.78
3.02
0.72
-3.23
-7.33
-10.23
-11.44
-11.32
-10.88
-11.15
-13.04
-16.74
-21.98
-28.37
-35.64
-44.00
-53.74
-64.81
-76.48
-87.44
-95.93
-100.99
-101.39
-96.93
-88.39
-76.94
-63.63
-49.19
-34.01
-18.45
-3.24
10.45
21.22
28.14
31.32
32.37
33.67
37.97
47.41
62.97
84.13
109.56
136.34
159.93
175.08
177.09
164.77
141.55
114.70
92.93
82.59
85.14
96.97
112.56
125.76
133.10
133.71
127.90
115.51
95.43
66.26
27.27
-19.09
-69.40
-119.57
-165.05
-201.58
-225.31
-233.56
-225.94
-204.89
-175.67
-144.95
-118.43
-99.31
-86.49
-77.25
-68.87
-59.87
-49.93
-39.38
-28.38
-16.16
-1.49
16.32
36.61
57.34
75.89
90.10
99.02
102.84
102.63
99.67
93.99
85.85
74.74
59.63
39.85
15.37
-13.11
-44.26
-76.45
-107.88
-137.10
-162.78
-184.42
-200.65
-209.98
-211.09
-203.09
-185.79
-159.60
-126.09
-87.60
-46.85
-6.42
31.24
64.28
91.33
111.63
125.29
132.50
133.95
130.94
125.46
119.77
116.19
116.86
123.28
136.53
155.80
179.07
203.45
225.65
242.38
250.74
248.73
231.71
201.32
160.57
113.02
62.23
11.18
-37.80
-83.32
-124.82
-162.36
-195.47
-224.16
-248.09
-266.96
-279.59
-284.04
-278.56
-262.07
-234.71
-197.43
-152.74
-104.27
-55.83
-11.39
25.69
52.98
69.11
73.98
68.86
55.53
36.10
12.85
-12.29
-37.93
-63.55
-89.39
-115.71
-142.60
-169.81
-196.61
-221.52
-242.58
-257.63
-265.07
-264.36
-255.06
-237.41
-211.92
-179.37
-140.71
-97.22
-50.29
-2.14
44.16
85.90
121.30
150.29
174.64
197.29
221.19
249.46
283.25
321.79
362.85
403.80
442.64
478.35
510.49
538.81
564.71
589.03
611.02
627.38
632.09
617.83
578.37
511.40
411.71
285.17
145.89
11.58
-102.82
-189.67
-248.99
-285.46
-304.76
-311.64
-308.43
-297.84
-283.35
-268.68
-256.56
-247.70
-241.14
-234.92
-227.64
-217.99
-206.25
-193.82
-182.19
-172.21
-163.64
-155.59
-147.21
-138.52
-129.73
-121.47
-114.27
-107.75
-100.60
-90.88
-76.93
-58.23
-35.78
-11.62
11.58
30.83
44.63
52.34
55.60
58.04
64.00
76.57
95.79
118.43
138.47
150.10
149.88
138.21
118.71
96.33
75.03
55.07
35.79
14.19
-14.07
-51.27
-96.24
-144.24
-188.14
-218.72
-230.72
-223.65
-201.67
-170.92
-137.14
-104.07
-73.52
-46.52
-24.19
-8.26
0.31
1.99
-0.88
-5.12
-7.86
-7.36
-3.66
2.37
9.55
17.68
27.31
39.82
56.17
76.13
97.87
118.91
135.75
145.55
147.15
140.30
126.10
105.96
81.33
53.53
23.72
-7.16
-37.47
-65.74
-89.76
-106.07
-110.69
-100.52
-75.46
-39.62
-0.71
33.04
55.58
65.42
65.55
60.83
55.21
49.95
43.42
32.79
16.69
-4.43
-28.37
-52.37
-74.29
-93.07
-107.30
-116.39
-120.68
-121.76
-122.18
-124.20
-127.40
-130.18
-128.71
-119.31
-100.95
-76.07
-49.55
-26.36
-9.54
0.96
6.84
10.49
13.03
14.18
13.15
9.68
4.79
0.01
-3.19
-4.82
-5.87
-7.19
-7.86
-4.62
7.07
30.77
66.25
108.59
149.56
180.95
196.91
196.13
181.45
157.70
129.78
101.26
74.77
52.64
37.28
30.39
31.12
36.48
41.14
40.43
32.50
19.58
6.96
-0.14
1.14
9.83
21.67
31.65
36.40
34.98
28.54
19.12
8.12
-3.52
-14.88
-24.83
-31.74
-33.84
-30.12
-21.06
-8.72
3.31
11.33
12.75
6.85
-5.28
-21.29
-38.67
-55.63
-71.49
-86.61
-101.49
-115.73
-127.76
-135.16
-135.82
-128.93
-115.64
-98.99
-82.95
-70.96
-65.22
-66.19
-72.54
-81.25
-87.94
-87.53
-75.83
-51.26
-16.28
22.10
54.44
72.46
72.26
55.71
29.30
0.55
-24.77
-44.32
-59.42
-72.56
-84.84
-94.77
-98.94
-94.11
-80.03
-59.51
-34.95
-10.62
10.07
25.98
37.12
44.70
55.56
74.58
101.51
135.70
175.77
220.32
267.79
316.40
364.21
408.87
446.88
474.08
487.85
487.25
473.59
449.83
419.62
386.36
352.27
317.43
279.23
236.84
192.10
149.52
114.64
92.13
84.87
93.48
116.11
145.44
175.42
201.92
221.66
230.29
222.10
191.29
133.35
46.08
-75.70
-230.20
-407.83
-593.61
-771.84
-928.28
-1051.08
-1131.75
-1166.13
-1162.69
-1129.43
-1071.44
-992.31
-897.51
-795.17
-694.52
-604.25
-482.92
-324.72
-154.03
-5.83
100.41
165.63
201.48
221.10
234.47
247.55
254.44
251.57
240.46
225.97
212.00
199.78
188.96
179.36
172.84
166.12
159.99
158.01
163.01
173.50
184.42
191.13
191.22
188.76
184.43
179.41
173.70
165.57
152.04
131.33
105.36
79.37
60.28
51.34
54.27
68.96
93.56
124.44
157.07
187.07
210.50
224.66
226.55
214.43
187.93
148.16
97.66
40.35
-16.67
-66.11
-102.77
-126.04
-139.57
-149.18
-159.78
-173.90
-191.37
-209.93
-227.23
-240.58
-247.06
-243.00
-224.09
-186.80
-131.06
-61.37
14.34
86.62
148.24
194.89
224.57
234.28
225.94
198.50
151.61
88.22
17.16
-42.81
-70.81
-56.20
-3.60
71.75
152.78
225.55
288.79
343.72
391.03
429.21
454.84
465.49
456.75
430.55
392.70
350.74
311.00
277.72
251.34
229.45
208.40
185.87
161.65
136.14
109.50
81.56
52.40
21.97
-8.99
-38.64
-63.11
-77.13
-76.43
-59.28
-26.67
17.91
67.94
116.21
156.72
185.94
203.02
206.37
194.12
164.79
117.37
49.17
-39.62
-143.83
-252.99
-352.46
-432.73
-488.25
-517.56
-523.21
-516.83
-509.34
-506.06
-504.49
-495.03
-476.83
-452.12
-424.31
-397.35
-384.16
-394.41
-429.37
-479.83
-527.55
-569.03
-604.68
-633.69
-654.15
-677.06
-714.54
-774.21
-854.31
-940.77
-1033.93
-1133.04
-1230.26
-1230.51
-1071.85
-761.53
-375.48
-50.19
212.80
434.07
629.92
813.82
979.69
1104.18
1168.09
1154.70
1070.31
951.08
825.80
714.27
624.21
552.88
485.12
408.47
321.15
234.32
168.53
126.13
100.98
85.36
72.70
54.06
24.37
-14.72
-56.42
-85.57
-99.25
-100.69
-94.89
-86.63
-81.69
-83.83
-93.35
-106.44
-116.05
-120.92
-122.35
-121.94
-120.84
-120.03
-119.68
-118.78
-114.78
-105.85
-92.72
-77.20
-61.15
-46.23
-33.30
-22.78
-14.74
-9.14
-5.64
-4.05
-4.25
-6.02
-9.07
-13.12
-17.85
-22.87
-28.10
-33.40
-38.66
-43.86
-48.95
-54.04
-59.24
-64.75
-70.76
-77.62
-85.64
-95.06
-106.07
-118.74
-132.89
-148.03
-163.28
-177.14
-187.74
-192.88
-190.37
-178.77
-157.48
-127.08
-89.12
-46.01
-0.46
44.81
87.67
126.64
160.79
189.91
214.37
235.05
253.27
270.55
288.24
307.34
327.96
349.16
369.28
386.36
398.74
405.65
407.34
404.63
398.61
390.55
381.92
375.19
373.66
380.19
395.23
415.07
431.34
433.39
412.20
363.84
290.71
199.87
100.13
0.33
-90.84
-164.39
-211.23
-224.68
-203.74
-155.19
-92.01
-28.61
24.63
64.43
93.45
116.18
134.67
146.36
145.74
127.26
88.05
28.97
-45.59
-128.69
-211.57
-285.01
-341.35
-376.10
-389.25
-384.92
-369.56
-349.20
-327.77
-306.67
-286.28
-267.16
-250.39
-236.88
-225.96
-214.74
-198.68
-173.59
-137.33
-90.34
-35.03
24.84
84.67
139.10
182.54
210.53
221.65
218.90
209.09
200.00
196.41
197.35
196.46
185.53
159.35
119.14
72.44
29.88
0.69
-10.75
-5.02
14.35
43.88
81.72
127.37
179.67
234.98
286.59
326.08
346.30
343.78
320.29
281.92
236.74
192.00
152.09
118.69
91.81
71.62
59.11
55.71
61.91
76.37
96.26
118.38
140.97
163.95
188.37
214.12
238.88
258.16
266.60
260.08
236.83
197.90
146.80
88.75
29.55
-25.05
-70.37
-103.71
-124.45
-133.57
-132.21
-120.85
-99.17
-66.94
-25.41
22.13
70.41
113.69
147.08
167.61
174.53
168.76
152.42
128.19
98.91
66.87
34.03
1.54
-30.42
-62.53
-95.92
-131.14
-167.15
-200.15
-223.62
-229.71
-212.41
-170.59
-109.82
-40.84
23.37
71.41
96.21
95.66
71.34
26.84
-33.34
-103.97
-178.59
-249.82
-310.45
-355.35
-382.92
-395.22
-396.74
-392.56
-386.69
-381.54
-378.33
-377.76
-380.47
-387.22
-398.59
-414.43
-433.83
-454.94
-474.98
-490.53
-497.90
-493.59
-475.56
-444.51
-404.36
-361.36
-321.83
-289.47
-263.55
-239.64
-211.73
-175.66
-131.26
-82.39
-35.05
5.58
36.83
58.75
72.79
80.24
81.37
75.75
63.55
46.03
25.79
6.01
-10.73
-23.08
-31.13
-36.00
-39.07
-41.07
-41.95
-40.86
-36.78
-29.08
-18.00
-4.65
9.29
22.08
32.52
40.14
45.16
48.07
49.23
48.62
45.72
39.80
30.23
16.91
0.54
-17.43
-35.16
-50.95
-63.48
-72.16
-76.85
-77.55
-74.08
-65.80
-51.76
-30.92
-2.86
32.02
72.25
115.66
159.97
203.32
244.52
283.13
319.26
353.34
386.11
418.51
451.19
483.73
513.77
537.08
548.70
545.04
525.74
494.08
455.92
417.33
382.32
351.86
324.68
298.90
273.71
249.86
228.67
210.84
195.55
180.88
164.88
146.66
126.86
106.92
87.60
68.02
46.04
19.61
-11.45
-44.71
-76.29
-102.77
-123.63
-141.52
-161.00
-185.84
-217.31
-253.72
-291.29
-325.77
-352.91
-368.51
-368.04
-347.54
-304.71
-241.23
-163.23
-79.57
1.11
73.69
137.45
194.54
246.84
294.50
334.20
361.34
373.57
372.89
365.33
358.15
357.05
364.83
383.41
412.06
446.38
478.10
496.04
489.36
451.26
381.77
288.86
189.40
100.35
32.37
-12.09
-36.65
-46.33
-44.95
-34.76
-16.96
12.07
54.45
108.49
168.34
226.66
277.34
315.81
338.62
312.85
222.20
73.89
-103.13
-275.88
-422.60
-535.40
-615.35
-667.24
-697.06
-706.25
-697.29
-674.45
-642.98
-606.03
-563.69
-515.35
-462.23
-409.39
-361.12
-322.40
-297.07
-286.43
-288.23
-297.25
-310.06
-321.90
-329.46
-328.15
-314.68
-288.24
-251.35
-208.88
-166.11
-128.24
-97.85
-75.32
-57.91
-41.72
-23.26
-0.59
24.38
49.98
73.70
94.67
112.47
127.66
141.25
154.10
166.24
176.96
189.96
202.45
212.67
219.12
220.89
217.63
209.44
196.48
179.14
158.18
133.71
107.44
80.68
54.37
28.96
4.45
-19.66
-43.95
-68.62
-98.42
-133.91
-174.13
-217.07
-259.92
-299.52
-333.09
-358.45
-374.40
-381.27
-379.44
-370.43
-356.50
-339.96
-322.78
-306.31
-291.00
-276.36
-261.44
-244.16
-222.70
-195.99
-163.85
-127.29
-88.35
-49.84
-14.82
13.66
33.60
43.88
44.51
36.67
22.66
5.50
-11.33
-24.33
-30.53
-27.50
-13.85
10.69
45.17
87.74
135.60
185.55
234.25
278.51
315.78
344.14
362.36
369.80
366.56
353.25
331.22
302.56
269.98
236.54
205.17
178.14
156.90
142.09
133.56
130.81
133.47
141.25
153.84
170.46
189.91
210.91
233.23
257.75
286.22
320.21
359.28
400.17
437.33
465.10
480.26
483.97
480.26
473.74
467.42
461.51
454.21
444.14
431.65
418.81
408.42
400.23
390.74
375.70
353.45
326.70
301.22
282.01
268.60
254.45
226.95
173.44
87.58
-26.90
-157.82
-289.39
-407.31
-508.45
-587.34
-640.22
-665.90
-665.95
-643.91
-605.00
-555.93
-504.74
-459.82
-426.21
-405.99
-396.60
-391.76
-384.39
-369.71
-346.94
-318.43
-287.59
-255.10
-220.19
-181.93
-140.40
-98.18
-59.92
-31.30
-15.64
-15.92
-30.68
-54.41
-78.41
-92.92
-90.51
-69.26
-34.04
5.30
37.83
56.94
62.21
58.64
53.38
51.81
55.71
63.23
71.04
75.82
75.92
71.17
62.20
50.46
38.26
29.04
25.53
31.54
49.39
79.05
117.20
156.99
189.10
203.75
193.75
157.37
100.34
34.27
-26.63
-70.35
-90.94
-89.94
-75.20
-57.56
-47.06
-49.43
-64.84
-88.42
-112.91
-131.76
-141.68
-143.10
-138.75
-131.30
-121.97
-111.19
-100.24
-92.45
-92.29
-102.60
-122.00
-144.29
-161.14
-166.13
-157.96
-140.36
-119.10
-98.20
-77.94
-56.13
-31.00
-4.30
18.66
31.34
29.60
13.81
-11.33
-39.46
-65.57
-87.42
-105.32
-120.23
-132.29
-140.24
-142.37
-137.71
-126.92
-112.30
-97.02
-84.25
-76.32
-74.43
-78.57
-87.64
-99.78
-112.82
-124.68
-133.64
-138.34
-137.56
-130.15
-115.43
-93.57
-66.24
-36.34
-7.28
18.35
39.58
57.04
72.04
85.38
96.99
106.06
112.29
116.63
121.57
129.92
143.47
161.80
182.14
200.70
214.20
221.46
223.60
223.04
221.82
220.37
217.49
211.60
202.34
191.20
180.91
173.71
169.62
166.17
159.37
145.84
124.73
98.38
71.35
48.52
33.22
26.24
26.51
32.12
41.33
52.70
64.89
76.10
84.15
87.15
84.03
75.37
62.98
49.26
36.11
24.47
14.36
5.33
-2.98
-10.78
-18.12
-25.16
-32.04
-38.49
-43.93
-47.33
-47.82
-44.87
-38.47
-28.95
-16.90
-3.06
11.56
25.40
36.66
43.91
46.80
46.25
43.98
41.33
38.20
32.73
21.87
2.81
-25.64
-62.09
-102.92
-143.01
-176.96
-200.08
-209.24
-203.31
-183.35
-152.24
-114.07
-73.35
-34.23
-0.10
26.68
44.73
53.85
55.36
52.14
47.95
45.89
46.05
44.36
33.58
6.48
-40.14
-102.81
-171.53
-232.60
-273.89
-288.90
-277.86
-246.23
-201.22
-149.91
-99.20
-56.93
-30.76
-27.39
-48.83
-89.91
-138.56
-178.87
-196.58
-183.21
-138.12
-64.74
30.67
141.91
262.87
386.50
503.49
602.68
673.57
708.59
707.86
676.99
625.45
563.92
502.03
447.34
405.41
379.54
355.30
320.15
263.24
180.31
76.59
-35.25
-140.17
-226.20
-287.38
-324.39
-340.69
-341.82
-332.75
-316.59
-295.52
-271.87
-249.03
-230.40
-218.52
-212.07
-207.97
-202.68
-193.34
-179.35
-162.32
-145.17
-130.81
-121.18
-115.54
-111.94
-107.98
-101.70
-92.61
-81.61
-70.43
-60.82
-53.94
-49.51
-46.56
-43.90
-40.41
-35.67
-29.98
-23.91
-17.89
-11.77
-4.45
5.58
19.81
39.40
64.42
93.63
124.71
155.01
181.01
199.49
207.85
204.43
188.52
160.19
120.43
71.14
15.26
-43.11
-98.92
-146.82
-182.03
-201.33
-203.91
-191.39
-167.47
-137.07
-104.84
-74.23
-47.06
-23.99
-5.35
8.36
16.26
17.43
11.59
-0.25
-15.73
-31.91
-45.56
-53.46
-51.68
-36.34
-5.02
40.70
94.21
144.67
180.29
193.03
181.90
153.34
117.77
85.57
63.55
54.85
60.07
79.19
112.14
158.05
214.18
274.67
330.71
371.01
385.99
370.42
324.43
252.77
163.48
66.42
-28.31
-111.59
-175.58
-213.90
-222.37
-199.58
-147.21
-69.97
24.97
128.74
232.03
326.21
404.45
462.37
497.50
509.24
498.09
465.28
412.57
342.56
258.79
165.88
69.51
-23.93
-108.05
-177.30
-227.75
-257.72
-267.81
-260.93
-241.82
-216.36
-190.39
-168.88
-155.33
-151.35
-156.68
-169.52
-187.06
-206.06
-223.22
-235.48
-240.38
-236.49
-223.78
-203.93
-180.42
-158.20
-142.79
-139.00
-149.75
-175.22
-213.15
-259.49
-309.49
-358.89
-404.61
-444.71
-478.37
-505.88
-528.46
-548.10
-566.38
-583.30
-596.30
-600.41
-590.09
-561.85
-516.37
-458.56
-395.81
-334.58
-278.03
-225.60
-174.92
-124.78
-77.09
-36.56
-8.12
5.87
7.43
1.92
-4.15
-5.78
-0.64
11.00
27.82
48.62
72.35
97.47
120.92
138.28
145.48
141.03
127.30
110.98
101.18
106.27
131.07
175.52
235.60
305.61
380.48
456.71
533.06
610.28
689.62
771.73
855.51
937.42
1011.38
1069.29
1101.84
1101.94
1067.41
1001.23
909.61
799.72
677.59
547.75
413.72
276.56
139.30
7.68
-111.55
-213.96
-298.93
-369.10
-428.43
-480.77
-534.21
-592.39
-652.57
-707.17
-748.94
-772.72
-776.02
-757.89
-719.33
-672.41
-627.22
-588.13
-554.72
-528.31
-511.91
-508.66
-518.43
-537.28
-570.09
-614.95
-661.07
-692.79
-700.97
-685.53
-653.82
-615.69
-506.78
-308.90
-57.52
183.60
371.89
498.06
573.48
613.43
631.54
637.73
626.55
595.95
544.82
489.05
441.45
408.67
390.76
385.92
391.88
396.36
390.76
373.37
348.39
316.43
285.50
254.97
223.67
191.42
153.53
109.11
62.29
21.30
-7.98
-22.89
-25.33
-18.15
-4.58
9.06
18.11
20.81
18.54
12.91
5.59
-3.19
-12.95
-23.12
-34.77
-48.95
-66.37
-87.27
-112.38
-142.21
-177.07
-215.31
-252.90
-284.57
-305.29
-311.95
-304.32
-285.16
-258.81
-230.13
-202.76
-178.80
-159.25
-144.62
-135.11
-130.39
-129.05
-128.34
-124.74
-114.43
-94.37
-63.01
-20.54
31.32
89.62
150.82
211.23
266.99
314.33
349.55
369.17
370.15
350.66
310.19
250.06
173.70
86.13
-6.69
-98.10
-181.48
-250.78
-300.81
-328.34
-332.41
-314.65
-279.11
-231.92
-179.91
-129.48
-85.41
-50.71
-26.82
-14.35
-13.59
-24.25
-45.11
-73.36
-104.75
-133.94
-155.84
-166.67
-164.95
-151.94
-130.90
-106.51
-84.14
-69.39
-67.29
-81.17
-111.43
-154.54
-203.30
-248.38
-280.69
-294.08
-287.06
-262.37
-225.02
-180.30
-132.10
-83.19
-35.51
8.99
48.24
80.54
105.07
122.36
133.61
140.31
143.57
143.79
140.94
134.84
125.72
114.34
101.94
89.79
78.72
68.95
59.97
50.80
40.40
27.97
13.92
-1.03
-16.38
-32.00
-48.01
-64.44
-81.15
-97.69
-113.47
-127.12
-137.40
-143.87
-146.89
-147.39
-146.50
-145.16
-143.99
-143.54
-142.31
-138.90
-132.90
-125.03
-116.38
-107.64
-98.93
-89.98
-80.67
-66.59
-44.45
-14.45
19.72
53.38
83.43
108.87
130.20
148.46
173.68
213.69
269.10
332.95
395.96
451.51
497.05
532.80
560.09
594.78
649.63
726.08
813.64
898.36
970.73
1027.90
1071.44
1104.77
1150.12
1225.98
1335.80
1467.11
1601.93
1726.98
1836.17
1927.72
1881.27
1628.78
1186.41
647.52
116.69
-343.73
-716.74
-1009.98
-1237.88
-1409.44
-1525.49
-1580.72
-1577.87
-1532.28
-1463.79
-1387.00
-1309.48
-1234.04
-1158.49
-1070.71
-961.86
-834.73
-703.25
-583.56
-485.43
-410.82
-356.90
-319.19
-285.76
-246.48
-199.89
-153.09
-115.61
-93.72
-88.99
-99.58
-121.84
-148.08
-170.66
-185.98
-194.89
-199.55
-201.25
-199.74
-193.92
-182.63
-164.10
-136.76
-100.57
-57.01
-7.90
45.24
101.22
159.14
217.93
276.19
332.30
384.05
428.22
460.85
478.09
477.39
458.93
425.67
382.59
335.19
288.00
243.48
202.48
164.92
130.61
99.83
72.95
50.13
30.96
14.72
0.60
-11.88
-22.57
-31.03
-36.83
-39.93
-40.78
-40.16
-38.99
-37.81
-36.74
-35.27
-32.61
-28.01
-21.01
-11.73
-0.62
11.45
23.59
35.09
45.41
54.16
61.11
66.08
68.83
69.25
67.39
63.47
57.96
51.59
45.10
39.16
34.39
31.08
29.20
28.50
28.60
28.89
28.82
27.88
25.59
21.76
16.32
9.47
1.57
-6.89
-15.36
-23.30
-30.25
-35.87
-40.01
-42.75
-44.13
-44.34
-43.55
-41.92
-39.49
-36.27
-32.26
-27.35
-21.65
-15.26
-8.38
-1.43
5.21
11.11
15.80
18.96
20.50
20.40
18.86
16.23
12.88
9.34
5.90
2.84
0.35
-1.52
-2.82
-3.66
-4.15
-4.38
-4.29
-3.95
-3.35
-2.39
-1.10
0.48
2.26
4.16
5.98
7.70
9.09
10.07
10.64
10.72
10.32
9.51
8.35
6.82
4.99
2.80
0.22
-2.73
-6.12
-9.93
-14.09
-18.53
-23.03
-27.39
-31.40
-34.77
-37.23
-38.65
-38.92
-38.04
-36.26
-33.77
-30.83
-27.80
-24.93
-22.40
-20.39
-18.93
-18.03
-17.68
-17.83
-18.38
-19.34
-20.67
-22.24
-23.99
-25.73
-27.29
-28.44
-28.96
-28.69
-27.52
-25.47
-22.69
-19.44
-15.98
-12.69
-9.78
-7.41
-5.70
-4.57
-3.80
-3.18
-2.49
-1.53
-0.20
1.50
3.54
5.75
7.94
9.98
11.65
12.87
13.68
14.12
14.20
14.07
13.79
13.38
12.85
12.08
11.04
9.70
8.03
6.03
3.85
1.62
-0.44
-2.15
-3.42
-4.09
-4.15
-3.72
-2.95
-2.06
-1.32
-0.94
-1.04
-1.79
-3.13
-4.93
-7.06
-9.26
-11.28
-13.01
-14.28
-14.98
-15.22
-15.05
-14.57
-13.85
-12.99
-12.00
-10.93
-9.73
-8.31
-6.71
-4.91
-2.99
-1.12
0.55
1.76
2.39
2.31
1.57
0.27
-1.34
-2.98
-4.47
-5.49
-5.90
-5.62
-4.73
-3.43
-2.03
-0.78
0.09
0.43
0.27
-0.17
-0.65
-0.89
-0.58
0.36
1.96
4.09
6.46
8.69
10.41
11.26
11.00
9.54
6.97
3.49
-0.50
-4.65
-8.51
-11.80
-14.32
-15.94
-16.67
-16.65
-16.07
-15.11
-13.98
-12.78
-11.63
-10.69
-9.94
-9.32
-8.87
-8.49
-8.21
-8.04
-7.93
-7.75
-7.50
-7.04
-6.29
-5.15
-3.53
-1.45
0.92
3.39
5.74
7.68
9.02
9.51
9.14
7.96
6.21
4.10
2.00
0.22
-0.96
-1.31
-0.89
0.26
1.92
3.89
5.85
7.55
8.76
9.35
9.33
8.69
7.55
6.00
4.19
2.36
0.64
-0.94
-2.33
-3.45
-4.36
-5.06
-5.63
-6.12
-6.52
-6.82
-6.99
-7.07
-6.96
-6.71
-6.27
-5.64
-4.95
-4.21
-3.51
-2.89
-2.46
-2.24
-2.26
-2.46
-2.80
-3.28
-3.86
-4.45
-5.04
-5.49
-5.77
-5.81
-5.47
-4.62
-3.24
-1.25
1.34
4.37
7.76
11.25
14.54
17.33
19.45
20.68
20.99
20.41
19.01
17.08
14.76
12.23
9.58
6.86
3.96
0.76
-2.91
-7.28
-12.32
-18.04
-24.23
-30.55
-36.50
-41.67
-45.48
-47.50
-47.57
-45.52
-41.58
-36.14
-29.82
-23.30
-17.34
-12.64
-9.60
-8.59
-9.48
-12.00
-15.68
-19.98
-24.28
-28.01
-30.84
-32.58
-33.32
-33.19
-32.42
-31.38
-30.29
-29.23
-28.14
-26.84
-25.04
-22.54
-19.05
-14.43
-8.71
-2.03
5.33
13.01
20.57
27.56
33.47
37.93
40.67
41.58
40.72
38.31
34.63
30.19
25.48
20.93
16.99
13.96
12.12
11.60
12.42
14.34
17.13
20.38
23.56
26.20
27.87
28.46
27.96
26.60
24.68
22.50
20.36
18.30
16.36
14.50
12.83
11.41
10.30
9.50
8.86
8.13
6.98
5.20
2.52
-1.15
-5.85
-11.36
-17.34
-23.20
-28.28
-31.92
-33.58
-33.20
-31.01
-27.64
-23.86
-20.41
-17.80
-16.20
-15.43
-15.10
-14.75
-13.88
-12.26
-9.66
-6.02
-1.44
3.64
8.37
11.73
12.64
10.78
6.68
1.91
-1.45
-1.46
2.54
9.72
18.10
25.23
29.25
29.43
26.23
20.94
15.18
10.38
7.54
7.06
8.82
12.16
15.91
18.79
19.88
18.83
16.16
12.81
9.68
7.08
4.84
2.31
-0.96
-4.76
-8.46
-11.10
-11.80
-10.17
-6.59
-1.55
4.39
10.99
18.27
26.01
33.65
40.75
47.17
53.13
59.21
65.85
73.11
80.57
87.05
91.14
92.65
92.56
92.34
92.55
92.57
91.03
86.72
78.70
66.95
54.10
44.26
40.71
43.59
49.55
53.36
49.94
35.03
6.24
-33.49
-77.85
-119.95
-155.83
-185.12
-209.31
-229.78
-247.96
-264.16
-272.62
-263.32
-224.81
-148.64
-31.39
125.33
314.38
521.22
708.75
831.09
855.09
781.79
641.34
470.87
299.03
142.80
10.97
-103.73
-202.85
-284.02
-345.30
-388.70
-419.36
-442.37
-450.40
-439.27
-408.16
-356.42
-286.80
-206.23
-125.66
-56.92
-9.47
10.96
1.05
-39.35
-102.76
-177.32
-250.16
-311.17
-353.29
-372.28
-366.45
-337.14
-288.66
-224.02
-148.23
-69.79
-0.50
49.16
73.33
71.61
47.52
5.21
-47.78
-104.23
-157.68
-201.21
-223.41
-210.36
-151.53
-45.84
94.18
250.36
402.05
531.00
612.76
627.80
572.79
463.45
338.38
209.63
81.62
-41.75
-154.96
-250.52
-320.25
-359.40
-367.73
-347.62
-304.38
-240.13
-155.88
-53.55
62.10
187.21
311.64
413.01
466.79
457.80
389.46
278.79
154.80
29.37
-88.17
-190.14
-271.15
-328.33
-356.45
-354.02
-324.70
-276.73
-221.48
-166.91
-117.93
-76.01
-40.11
-9.06
16.90
36.04
46.09
44.97
34.25
17.38
-1.33
-17.48
-27.61
-30.18
-25.23
-14.04
0.80
17.46
34.15
49.77
64.52
79.86
97.26
118.06
142.86
171.25
203.04
238.00
275.94
316.40
358.22
398.75
434.41
461.43
476.78
478.98
467.69
443.29
406.35
357.75
298.55
230.61
156.51
79.46
2.85
-70.15
-136.97
-195.57
-244.48
-282.85
-310.11
-326.41
-332.55
-329.92
-320.14
-304.77
-284.93
-261.23
-234.02
-203.46
-170.14
-135.59
-101.97
-71.71
-46.92
-28.86
-17.91
-14.08
-17.17
-26.97
-43.51
-66.58
-95.37
-128.48
-164.12
-200.51
-235.98
-268.05
-292.87
-305.11
-298.89
-269.89
-217.41
-144.99
-59.37
31.84
122.73
209.57
289.88
360.42
415.84
449.31
455.24
432.28
384.50
320.72
251.33
185.02
126.79
77.87
37.10
3.00
-25.10
-47.48
-64.68
-78.43
-91.24
-105.32
-121.54
-138.88
-155.09
-167.86
-176.51
-182.24
-187.70
-195.51
-206.72
-220.09
-232.56
-240.73
-242.22
-236.94
-226.53
-213.44
-199.96
-187.15
-174.93
-162.54
-149.42
-135.53
-121.47
-107.78
-94.38
-80.57
-65.18
-47.47
-27.56
-6.71
13.21
30.55
44.75
56.58
67.74
80.33
96.01
115.84
140.13
168.37
198.71
227.53
249.63
259.28
252.64
229.48
193.96
153.48
115.85
86.35
66.21
53.05
43.01
33.24
22.96
13.13
5.13
-0.70
-5.53
-11.47
-20.27
-32.48
-46.89
-61.37
-74.01
-84.01
-92.06
-99.53
-107.42
-115.30
-121.14
-121.54
-112.52
-90.34
-51.64
6.05
83.85
180.03
288.79
400.01
500.53
577.30
620.59
626.32
596.12
535.84
452.98
354.87
248.03
138.09
30.46
-70.14
-159.96
-237.32
-302.44
-356.98
-402.76
-440.73
-470.51
-490.41
-498.27
-492.11
-471.18
-436.15
-388.93
-332.34
-269.43
-203.25
-136.58
-72.22
-12.94
38.62
79.84
108.78
124.45
127.14
118.47
101.17
78.60
54.06
30.64
10.60
-4.57
-14.20
-18.28
-17.40
-12.57
-5.10
3.57
11.88
18.43
22.17
22.37
18.94
12.15
2.77
-8.07
-18.89
-28.12
-34.24
-35.68
-31.16
-19.95
-1.83
22.70
52.37
85.30
119.02
150.72
177.64
197.24
207.49
207.07
195.53
173.25
141.36
101.77
56.74
8.89
-39.15
-84.79
-125.74
-160.01
-186.06
-202.96
-210.16
-207.77
-196.42
-177.18
-151.56
-121.34
-88.38
-54.60
-21.70
8.81
35.81
58.40
76.19
88.97
96.80
100.02
99.10
94.73
87.71
78.92
69.21
59.52
50.56
42.86
36.73
32.15
28.90
26.56
24.52
22.09
18.71
13.86
7.22
-1.26
-11.53
-23.33
-36.24
-49.77
-63.46
-76.80
-89.33
-100.76
-110.73
-119.04
-125.55
-130.12
-132.63
-132.96
-130.88
-126.10
-118.38
-107.38
-93.02
-75.35
-54.66
-31.53
-6.95
18.01
42.03
63.83
82.35
96.73
106.47
111.64
112.63
110.10
105.05
98.50
91.41
84.64
78.74
73.89
70.11
67.28
65.19
63.67
62.58
61.76
61.03
60.15
58.76
56.64
53.60
49.70
45.11
40.04
34.75
29.52
24.49
19.53
14.51
9.33
4.18
-0.52
-4.40
-7.17
-8.58
-8.71
-8.36
-8.50
-9.74
-11.90
-14.07
-15.25
-14.75
-12.02
-7.31
-2.44
0.58
0.42
-2.58
-6.76
-10.03
-10.87
-8.12
-2.12
4.23
7.77
6.38
0.43
-8.10
-16.74
-24.47
-31.26
-39.58
-55.32
-84.34
-130.44
-193.66
-271.19
-358.47
-451.39
-545.05
-616.05
-640.02
-602.22
-507.87
-377.64
-234.38
-93.92
29.66
139.54
236.99
318.36
379.68
421.12
449.55
469.26
488.51
513.25
545.26
579.33
604.76
610.35
588.62
538.08
463.32
373.31
277.61
185.61
103.43
33.64
-23.64
-69.58
-105.43
-131.59
-147.45
-152.84
-147.85
-134.78
-117.90
-101.61
-88.61
-79.22
-71.35
-61.97
-48.78
-30.60
-9.81
7.12
12.39
-0.03
-32.94
-84.47
-149.98
-222.20
-292.13
-352.91
-402.77
-443.37
-477.10
-505.24
-524.72
-529.12
-507.39
-445.51
-332.99
-169.80
33.29
257.20
478.04
673.93
813.29
863.90
815.49
689.99
525.66
356.92
207.78
76.07
-41.01
-144.27
-231.66
-300.93
-344.97
-365.40
-368.51
-360.61
-345.69
-322.22
-287.48
-237.95
-170.97
-87.68
4.07
93.56
170.89
228.89
265.68
281.77
279.97
264.34
238.50
202.98
157.60
103.17
41.95
-21.18
-81.24
-133.41
-174.08
-201.38
-216.40
-221.59
-219.56
-212.50
-201.28
-186.30
-167.60
-145.24
-119.52
-91.64
-63.10
-35.44
-9.96
12.53
31.41
46.32
57.15
64.11
67.59
68.25
66.88
64.42
61.77
59.57
58.30
58.12
58.90
60.32
61.81
62.80
62.76
61.28
58.13
53.42
47.43
40.70
33.90
27.73
22.79
19.60
18.33
18.88
20.93
23.88
27.04
29.61
30.90
30.40
27.98
23.75
18.18
11.99
6.11
1.46
-1.22
-1.48
0.79
5.37
11.76
19.36
27.52
35.81
43.80
51.13
57.44
62.39
65.69
67.18
67.04
65.84
64.46
63.81
64.70
67.43
71.87
77.48
83.57
89.65
95.89
102.83
111.17
121.45
133.66
147.08
160.49
172.22
180.37
183.21
179.08
166.42
143.94
111.33
69.57
21.35
-29.46
-78.63
-121.93
-155.12
-173.82
-173.81
-151.83
-107.18
-42.57
34.80
113.82
181.37
225.09
235.79
209.18
146.00
51.75
-64.21
-189.97
-312.25
-417.73
-494.31
-532.58
-527.58
-480.40
-398.44
-294.34
-183.31
-79.94
4.83
64.94
99.34
110.65
103.41
82.57
52.97
19.15
-14.74
-45.03
-69.48
-87.34
-99.31
-107.09
-112.68
-117.63
-122.66
-127.70
-131.94
-134.52
-134.91
-133.35
-130.51
-127.14
-123.81
-120.50
-116.88
-112.20
-105.50
-96.09
-83.72
-68.52
-50.83
-31.16
-10.20
10.79
30.40
47.42
60.64
69.21
73.16
73.95
74.24
77.47
86.64
104.11
131.36
168.06
211.70
258.34
303.43
342.14
369.96
383.27
377.85
353.04
313.07
262.12
203.10
137.95
67.42
-2.60
-67.47
-123.52
-167.97
-199.83
-220.00
-230.49
-233.45
-230.67
-223.33
-212.72
-200.04
-186.19
-172.50
-160.84
-153.02
-150.36
-153.48
-162.05
-175.33
-191.65
-208.11
-221.33
-228.49
-227.71
-218.63
-202.23
-180.29
-154.94
-127.84
-99.67
-70.36
-39.78
-7.76
25.70
60.57
96.36
132.21
166.74
198.19
224.64
244.16
255.42
257.89
252.15
239.45
221.65
200.80
178.68
156.73
135.90
116.93
100.16
85.87
74.23
65.25
58.90
54.76
52.29
50.74
49.34
47.43
44.47
40.19
34.55
27.76
20.04
11.88
3.74
-3.94
-10.73
-16.19
-20.11
-22.36
-22.92
-22.05
-19.96
-17.08
-13.88
-10.85
-8.30
-6.61
-6.04
-6.56
-8.19
-10.69
-13.78
-17.17
-20.45
-23.24
-25.27
-26.20
-25.74
-23.85
-20.52
-15.90
-10.32
-4.13
2.18
7.98
12.80
16.28
18.11
18.31
17.08
14.75
11.87
8.97
6.54
4.89
4.28
4.57
5.64
7.12
8.52
9.46
9.49
8.43
6.20
2.91
-1.20
-5.74
-10.29
-14.51
-17.98
-20.56
-22.18
-22.87
-22.88
-22.45
-21.77
-20.99
-20.24
-19.45
-18.58
-17.49
-16.09
-14.34
-12.15
-9.54
-6.49
-2.99
0.90
4.93
8.73
11.75
13.42
13.47
11.81
8.67
4.55
-0.09
-4.99
-10.23
-16.12
-22.99
-30.89
-39.36
-47.48
-53.98
-57.81
-58.45
-56.28
-52.34
-47.90
-44.09
-41.36
-39.33
-36.95
-32.93
-26.19
-15.96
-1.92
16.05
37.96
63.68
93.15
126.41
163.59
204.76
249.61
296.47
341.72
379.68
403.68
407.83
389.13
348.37
289.87
219.90
144.55
68.39
-5.84
-76.63
-142.86
-203.07
-255.61
-299.16
-333.20
-358.23
-375.53
-386.91
-394.58
-400.94
-407.63
-414.72
-419.88
-418.34
-404.19
-372.12
-319.57
-247.86
-162.07
-69.37
22.70
107.85
181.68
241.23
284.95
312.55
325.29
326.03
318.73
306.99
293.02
276.94
257.27
232.48
202.58
169.99
138.95
113.70
96.16
84.86
75.53
63.05
44.13
18.83
-9.40
-35.40
-54.79
-65.86
-69.76
-69.39
-67.74
-66.37
-65.35
-63.72
-60.62
-55.89
-50.13
-44.04
-38.02
-32.10
-25.91
-19.48
-13.43
-9.01
-7.64
-10.32
-17.14
-27.14
-39.00
-51.37
-63.45
-75.07
-86.42
-97.49
-107.87
-116.66
-122.91
-126.02
-125.88
-122.98
-118.08
-111.79
-104.44
-95.99
-86.25
-75.00
-62.14
-47.71
-31.99
-15.50
1.09
16.92
31.06
42.51
50.55
54.89
55.88
54.39
51.68
49.12
47.81
48.32
50.54
53.79
57.08
59.48
60.22
58.94
55.55
50.35
43.85
36.66
29.42
22.69
16.92
12.35
9.06
7.02
5.99
5.80
6.21
7.07
8.30
9.95
12.06
14.69
17.80
21.15
24.51
27.50
29.75
30.98
31.04
29.89
27.79
24.98
21.85
18.81
16.19
14.25
13.18
12.93
13.33
14.11
14.98
15.63
15.80
15.32
14.08
12.24
10.02
7.79
5.92
4.69
4.12
3.88
3.33
1.73
-1.39
-6.17
-12.07
-18.24
-23.77
-28.05
-31.11
-33.88
-37.70
-43.84
-52.95
-64.72
-77.93
-90.97
-102.10
-109.95
-113.72
-113.03
-107.61
-97.30
-82.09
-62.19
-38.19
-10.94
18.52
48.48
76.29
98.33
110.74
110.41
96.29
70.10
35.81
-1.53
-37.52
-69.70
-97.86
-123.47
-148.65
-174.89
-202.31
-228.92
-250.57
-261.53
-255.70
-228.44
-178.15
-106.98
-20.53
73.40
166.58
251.72
323.14
376.88
410.56
423.26
415.72
390.26
350.33
299.57
240.72
174.95
102.13
22.19
-63.90
-153.00
-239.84
-318.19
-382.51
-429.38
-458.19
-470.79
-470.34
-460.09
-441.78
-414.78
-376.40
-323.49
-254.86
-173.60
-87.75
-9.05
49.96
79.39
74.25
35.00
-33.73
-124.42
-228.29
-335.87
-437.49
-523.75
-586.76
-621.51
-626.80
-605.34
-562.62
-505.41
-440.08
-371.52
-302.75
-235.13
-169.25
-105.57
-44.73
12.47
65.43
114.08
158.88
200.51
239.42
275.58
308.45
337.35
361.84
382.12
399.07
414.19
429.21
445.77
465.07
487.19
510.64
532.10
547.09
551.10
541.38
518.12
484.45
445.21
405.29
368.03
334.64
304.77
277.37
251.67
227.58
205.19
184.47
165.08
146.55
128.73
112.02
97.23
85.21
76.55
71.02
67.67
65.08
61.74
56.54
49.11
39.77
29.28
18.61
8.55
-0.41
-8.02
-14.21
-18.91
-21.84
-22.62
-20.93
-16.59
-9.70
-0.71
9.64
20.43
30.65
39.39
45.78
49.13
48.86
44.78
36.83
25.43
11.25
-4.68
-21.11
-36.69
-50.21
-60.66
-67.34
-70.08
-68.94
-64.47
-57.50
-49.06
-40.15
-31.81
-24.82
-19.68
-16.77
-15.98
-16.95
-19.22
-22.19
-25.21
-27.72
-29.27
-29.53
-28.48
-26.18
-22.87
-19.10
-15.41
-12.41
-10.80
-10.98
-13.15
-17.41
-23.50
-31.05
-39.64
-48.84
-58.24
-67.57
-76.46
-84.40
-90.93
-95.46
-97.36
-96.22
-91.73
-83.83
-72.81
-59.08
-43.11
-25.37
-6.33
13.51
33.39
52.35
69.20
82.85
92.58
98.30
100.58
100.53
99.30
97.90
97.03
97.10
98.18
100.17
102.85
105.60
107.77
108.68
107.94
105.58
102.06
97.73
92.52
86.00
77.29
66.06
52.90
39.42
27.24
17.34
8.91
-0.32
-12.98
-30.80
-53.44
-78.73
-103.39
-124.50
-140.04
-149.15
-151.71
-147.67
-137.28
-121.18
-100.97
-79.26
-59.12
-43.23
-33.01
-28.38
-27.79
-29.22
-30.88
-31.72
-31.75
-31.49
-31.77
-33.15
-35.99
-40.15
-45.28
-50.79
-55.56
-58.25
-57.17
-50.80
-38.10
-19.26
4.26
29.74
54.15
75.25
91.85
103.71
110.45
111.00
103.82
88.21
65.70
40.59
18.83
5.53
2.53
7.62
15.70
21.37
21.40
15.70
6.38
-3.91
-13.51
-22.34
-31.00
-40.04
-49.30
-57.76
-64.23
-68.10
-69.53
-69.32
-68.57
-67.92
-67.32
-65.97
-62.65
-56.17
-45.97
-32.21
-15.69
2.29
20.34
37.19
51.83
63.59
72.04
76.92
78.33
76.83
73.25
68.88
64.97
62.46
62.04
63.72
67.00
70.84
73.73
74.02
70.53
62.64
50.67
35.92
20.18
5.32
-7.18
-16.53
-22.77
-26.49
-28.74
-30.80
-33.60
-37.51
-42.15
-46.45
-49.11
-49.29
-46.82
-42.61
-38.35
-35.64
-35.82
-39.21
-45.09
-52.27
-59.59
-66.31
-72.41
-78.35
-84.51
-90.95
-96.75
-100.23
-99.27
-92.08
-77.70
-56.56
-30.55
-2.71
23.45
45.03
60.36
69.50
73.86
75.62
76.84
78.67
81.06
82.74
81.87
76.82
66.89
52.90
37.03
21.98
10.23
3.30
1.12
2.33
4.90
6.85
6.92
4.71
0.48
-5.03
-10.92
-16.55
-21.52
-25.41
-27.64
-27.41
-23.93
-17.04
-7.63
2.35
10.33
14.03
12.43
6.23
-2.52
-11.14
-17.46
-20.32
-19.66
-16.26
-11.34
-6.07
-1.41
2.13
4.52
5.97
6.80
7.15
6.80
5.53
3.18
-0.11
-3.82
-7.25
-9.49
-9.66
-6.94
-0.85
8.55
20.29
32.41
42.21
47.02
44.95
35.76
20.70
2.48
-15.56
-30.37
-39.94
-43.50
-41.22
-33.95
-22.45
-7.86
9.06
27.42
45.93
62.68
75.46
82.33
82.19
76.02
65.62
55.19
49.96
55.05
73.86
107.17
152.24
203.15
252.89
292.93
317.86
325.30
316.06
293.04
260.00
220.57
177.58
133.92
89.17
43.17
-5.24
-57.42
-113.66
-171.94
-226.90
-276.52
-302.86
-300.71
-267.26
-204.46
-118.29
-17.15
89.76
193.63
286.64
363.22
416.77
444.01
444.31
420.31
377.91
324.95
269.12
215.46
165.53
114.99
58.39
-8.82
-87.42
-173.19
-258.19
-333.06
-389.95
-423.94
-434.28
-422.17
-390.11
-341.46
-280.36
-211.91
-141.51
-73.83
-12.07
41.13
82.76
107.85
109.47
81.27
21.47
-64.08
-161.84
-254.37
-326.26
-368.98
-382.73
-374.24
-352.64
-325.46
-297.19
-269.91
-245.11
-224.56
-210.09
-202.41
-199.81
-198.46
-193.43
-180.78
-159.15
-130.19
-97.93
-67.24
-42.22
-24.83
-14.95
-10.69
-9.59
-9.66
-9.74
-9.58
-9.31
-8.90
-7.82
-5.33
-0.67
6.40
15.28
24.78
33.40
40.00
44.07
46.00
46.75
47.54
49.43
52.75
57.38
62.58
67.40
70.98
72.66
72.19
69.75
65.90
61.36
57.15
54.25
53.57
55.73
60.94
68.91
78.94
90.08
101.08
110.79
118.19
122.57
123.67
121.42
116.11
108.11
97.98
86.19
73.30
59.78
46.14
32.96
20.56
9.27
-0.81
-9.57
-17.03
-23.21
-28.23
-32.25
-35.55
-38.62
-41.96
-46.02
-51.06
-57.08
-63.88
-71.01
-77.76
-83.07
-85.70
-84.36
-78.08
-66.62
-50.60
-31.62
-11.83
6.40
20.96
30.26
33.35
29.89
20.20
5.16
-13.87
-35.23
-57.11
-77.81
-95.86
-110.14
-120.00
-125.13
-125.48
-121.21
-112.63
-100.21
-84.55
-66.32
-46.44
-25.91
-5.80
12.77
28.91
41.89
51.35
57.22
59.79
59.57
57.27
53.72
49.74
46.13
43.49
42.29
42.78
44.99
48.78
53.80
59.58
65.61
71.34
76.28
79.93
81.85
81.73
79.35
74.64
67.61
58.44
47.45
35.02
21.50
7.29
-7.29
-22.01
-36.59
-50.80
-64.37
-76.79
-87.52
-95.94
-101.36
-103.20
-100.93
-94.27
-83.33
-68.61
-50.95
-31.52
-11.67
7.22
23.83
37.15
46.54
51.81
53.15
51.10
46.43
40.01
32.83
25.70
19.30
14.07
10.28
8.09
7.47
8.27
10.25
13.21
16.80
20.64
24.30
27.28
29.26
29.82
28.74
26.00
21.77
16.41
10.41
4.36
-1.24
-5.82
-9.12
-10.95
-11.41
-10.68
-9.11
-7.04
-4.79
-2.65
-0.75
0.87
2.37
3.88
5.53
7.52
9.93
12.76
15.93
19.23
22.36
25.03
26.96
27.82
27.47
25.81
22.87
18.79
13.74
7.91
1.52
-5.23
-12.26
-19.47
-26.91
-34.63
-42.78
-51.55
-61.24
-72.13
-84.55
-98.75
-114.83
-132.75
-152.12
-172.24
-192.07
-210.27
-225.18
-235.19
-238.56
-233.90
-220.25
-197.17
-164.93
-124.64
-78.17
-27.93
22.99
71.43
114.31
148.95
173.49
187.13
190.24
184.42
172.30
157.07
142.16
130.59
124.58
125.15
132.02
143.54
157.17
169.87
178.57
180.83
175.11
161.03
139.57
112.60
82.69
52.68
25.15
2.08
-15.25
-26.48
-32.12
-33.15
-31.04
-27.27
-23.18
-19.72
-17.38
-16.17
-15.74
-15.44
-14.55
-12.47
-8.81
-3.60
2.82
9.76
16.37
21.64
24.80
25.33
23.04
18.25
11.66
4.20
-3.18
-9.56
-14.43
-17.54
-19.20
-20.00
-20.76
-22.29
-25.36
-30.37
-37.34
-45.99
-55.56
-65.26
-74.08
-81.14
-85.79
-87.57
-86.21
-81.70
-74.22
-63.94
-51.17
-36.26
-19.59
-1.72
16.73
35.06
52.41
67.83
80.52
89.82
95.23
96.68
94.46
89.24
82.00
73.87
65.90
59.01
53.78
50.35
48.51
47.60
46.80
45.14
41.89
36.58
29.09
19.73
9.28
-1.10
-10.28
-17.12
-20.85
-21.04
-17.79
-11.69
-3.71
4.99
13.24
19.97
24.53
26.65
26.45
24.32
20.91
16.83
12.53
8.24
3.81
-1.13
-7.17
-14.90
-24.87
-37.14
-51.44
-67.12
-83.10
-98.03
-110.54
-119.51
-124.14
-124.28
-120.31
-113.20
-104.38
-95.40
-87.73
-82.41
-79.87
-79.79
-81.26
-82.82
-82.84
-79.72
-72.20
-59.67
-42.11
-20.17
4.97
31.76
58.59
83.90
106.46
125.45
140.31
150.94
157.44
160.01
158.94
154.61
147.41
137.76
126.20
113.22
99.46
85.45
71.63
58.37
45.88
34.24
23.35
13.05
3.05
-6.84
-16.88
-27.18
-37.77
-48.59
-59.37
-69.69
-79.11
-87.15
-93.28
-97.09
-98.30
-96.88
-93.05
-87.26
-80.12
-72.40
-64.98
-58.53
-53.60
-50.49
-49.12
-49.20
-50.11
-51.12
-51.42
-50.26
-47.04
-41.33
-32.99
-22.11
-9.11
5.45
20.83
36.24
50.84
63.85
74.63
82.65
87.63
89.43
88.09
83.88
77.29
68.80
59.20
49.20
39.53
30.83
23.50
17.69
13.36
10.06
7.13
3.87
-0.36
-6.01
-13.14
-21.55
-30.62
-39.41
-46.93
-52.31
-54.90
-54.46
-51.26
-45.92
-39.43
-32.89
-27.19
-22.99
-20.64
-19.98
-20.58
-21.74
-22.67
-22.74
-21.50
-18.66
-14.25
-8.53
-1.80
5.46
12.88
20.10
26.84
32.83
37.86
41.67
43.99
44.57
43.23
39.82
34.44
27.35
18.95
9.90
0.93
-7.22
-13.81
-18.28
-20.27
-19.57
-16.28
-10.67
-3.23
5.41
14.54
23.49
31.54
38.14
42.94
45.61
46.06
44.36
40.66
35.24
28.44
20.60
12.16
3.53
-4.96
-13.00
-20.27
-26.52
-31.51
-35.12
-37.29
-38.01
-37.39
-35.66
-33.07
-29.84
-26.29
-22.57
-18.81
-15.08
-11.37
-7.77
-4.36
-1.18
1.69
4.01
5.69
6.65
6.83
6.41
5.51
4.38
3.29
2.49
2.10
2.18
2.62
3.23
3.80
4.06
3.94
3.36
2.39
1.21
0.06
-0.84
-1.39
-1.40
-0.93
-0.10
0.91
1.92
2.80
3.45
3.88
4.02
4.10
4.26
4.57
5.10
5.87
6.81
7.80
8.76
9.48
9.92
9.97
9.61
8.89
7.87
6.65
5.30
4.01
2.79
1.68
0.64
-0.42
-1.54
-2.84
-4.35
-6.10
-8.02
-10.10
-12.25
-14.38
-16.55
-18.68
-20.83
-22.97
-25.08
-27.14
-29.13
-30.99
-32.66
-34.13
-35.28
-36.07
-36.30
-35.89
-34.71
-32.79
-30.35
-27.75
-25.57
-24.28
-24.24
-25.46
-27.74
-30.59
-33.37
-35.65
-37.20
-38.09
-38.62
-39.12
-39.83
-40.74
-41.72
-42.52
-43.16
-43.82
-44.86
-46.72
-49.71
-53.80
-58.64
-63.56
-67.63
-69.90
-69.51
-66.08
-59.87
-52.00
-44.07
-37.58
-33.03
-29.42
-24.39
-15.07
0.72
23.32
50.84
79.84
106.32
126.98
139.99
145.13
143.34
136.36
125.96
113.78
101.21
89.23
78.32
68.64
60.01
52.20
45.10
38.78
33.45
29.23
25.88
22.81
19.35
15.11
10.53
6.81
5.64
8.71
16.94
30.08
46.64
64.31
80.26
91.94
97.56
96.39
88.96
76.66
61.45
45.31
30.08
16.98
6.71
-0.55
-5.19
-8.00
-9.95
-12.02
-14.86
-18.70
-23.10
-27.30
-30.34
-31.50
-30.40
-27.10
-21.92
-15.34
-7.91
0.00
7.98
15.71
22.72
28.61
32.84
35.06
35.07
32.92
28.97
23.71
17.73
11.56
5.67
0.28
-4.45
-8.48
-11.79
-14.44
-16.44
-17.86
-18.72
-19.10
-19.06
-18.71
-18.18
-17.47
-16.65
-15.73
-14.77
-13.72
-12.64
-11.48
-10.35
-9.30
-8.36
-7.52
-6.76
-5.96
-4.89
-3.39
-1.16
1.90
5.79
10.29
15.10
19.60
23.19
25.22
25.06
22.50
17.54
10.54
2.21
-6.38
-14.04
-19.55
-21.85
-20.26
-14.37
-4.38
9.00
24.58
40.85
56.09
68.55
76.69
79.28
75.81
66.26
51.32
32.30
10.87
-11.11
-31.74
-49.39
-62.94
-71.69
-75.55
-74.92
-70.41
-62.92
-53.42
-42.73
-31.56
-20.49
-9.96
-0.30
8.10
14.92
19.77
22.29
22.20
19.36
13.75
5.57
-4.79
-16.80
-29.82
-43.19
-56.18
-68.17
-78.58
-86.91
-92.79
-95.99
-96.45
-94.26
-89.75
-83.27
-75.26
-66.31
-56.88
-47.40
-38.20
-29.58
-21.69
-14.67
-8.63
-3.62
0.32
3.19
5.12
6.33
7.10
7.89
9.15
11.32
14.64
19.25
25.01
31.45
37.96
43.78
48.24
50.77
51.07
49.06
45.13
39.86
34.01
28.36
23.66
20.51
19.24
19.98
22.57
26.76
32.14
38.24
44.60
50.80
56.49
61.24
64.68
66.45
66.24
63.85
59.09
52.10
43.12
32.67
21.46
10.25
-0.11
-8.87
-15.39
-19.39
-20.74
-19.75
-16.85
-12.72
-8.11
-3.69
-0.05
2.46
3.61
3.51
2.28
0.33
-1.97
-4.17
-5.91
-6.87
-6.81
-5.56
-3.11
0.38
4.66
9.45
14.28
18.57
21.75
23.28
22.80
20.11
15.27
8.59
0.72
-7.47
-15.02
-20.98
-24.60
-25.35
-23.09
-18.02
-10.70
-1.93
7.32
16.01
23.29
28.44
31.04
30.95
28.31
23.58
17.37
10.46
3.52
-2.74
-7.90
-11.62
-13.83
-14.76
-14.71
-14.17
-13.58
-13.39
-13.82
-14.95
-16.66
-18.71
-20.81
-22.62
-23.90
-24.48
-24.40
-23.84
-22.98
-21.98
-21.03
-20.21
-19.44
-18.59
-17.34
-15.41
-12.63
-8.93
-4.40
0.72
6.03
11.02
15.21
18.09
19.39
18.94
16.81
13.23
8.61
3.46
-1.73
-6.43
-10.33
-13.14
-14.81
-15.39
-15.07
-14.20
-13.09
-12.07
-11.50
-11.58
-12.50
-14.26
-16.79
-19.95
-23.50
-27.13
-30.46
-33.18
-34.90
-35.41
-34.52
-32.22
-28.59
-23.86
-18.45
-12.75
-7.24
-2.35
1.56
4.32
5.92
6.58
6.69
6.58
6.70
7.38
8.78
10.91
13.54
16.33
18.92
20.97
22.15
22.32
21.48
19.69
17.15
14.09
10.73
7.20
3.70
0.21
-3.18
-6.44
-9.56
-12.41
-14.86
-16.85
-18.30
-19.12
-19.32
-18.99
-18.15
-17.00
-15.57
-13.82
-11.85
-9.58
-6.98
-3.92
-0.41
3.61
7.95
12.45
16.78
20.53
23.32
24.79
24.70
22.89
19.58
14.93
9.47
3.70
-1.87
-6.77
-10.59
-13.25
-14.74
-15.14
-14.76
-13.89
-12.79
-11.71
-10.75
-9.93
-9.40
-9.03
-8.76
-8.53
-8.26
-7.81
-7.18
-6.16
-4.69
-2.78
-0.44
2.16
4.80
7.24
9.26
10.58
11.16
11.02
10.29
9.30
8.32
7.61
7.32
7.60
8.29
9.22
10.15
10.73
10.83
10.34
9.22
7.63
5.77
3.82
1.99
0.40
-0.94
-1.99
-2.85
-3.66
-4.47
-5.32
-6.21
-7.07
-7.87
-8.58
-9.07
-9.30
-9.31
-9.11
-8.76
-8.31
-7.78
-7.13
-6.37
-5.44
-4.21
-2.68
-0.81
1.33
3.56
5.69
7.51
8.78
9.31
8.98
7.77
5.86
3.49
0.95
-1.33
-3.05
-3.92
-3.85
-2.88
-1.20
0.90
3.02
4.81
5.96
6.36
5.96
4.87
3.33
1.59
-0.07
-1.40
-2.26
-2.58
-2.29
-1.53
-0.26
1.42
3.50
5.90
8.60
11.51
14.45
17.26
19.56
21.15
21.73
21.16
19.39
16.56
12.90
8.81
4.70
0.91
-2.21
-4.48
-5.88
-6.49
-6.57
-6.47
-6.45
-6.76
-7.58
-8.93
-10.67
-12.64
-14.49
-15.98
-16.84
-16.89
-16.11
-14.58
-12.48
-10.03
-7.60
-5.40
-3.74
-2.75
-2.49
-2.86
-3.75
-4.86
-5.98
-6.92
-7.43
-7.47
-7.01
-6.19
-5.17
-4.14
-3.25
-2.69
-2.52
-2.68
-2.97
-3.17
-3.02
-2.18
-0.50
2.06
5.40
9.18
13.05
16.57
19.26
20.79
21.02
19.86
17.51
14.30
10.54
6.71
3.16
0.10
-2.27
-3.97
-5.16
-6.04
-6.83
-7.87
-9.39
-11.53
-14.50
-18.17
-22.41
-26.82
-30.76
-33.40
-34.00
-31.70
-25.82
-16.19
-2.99
12.96
30.38
47.57
62.82
74.21
80.52
81.07
75.87
65.80
52.31
37.28
22.64
10.20
1.10
-4.02
-5.25
-3.41
0.42
4.85
8.55
10.55
10.18
7.28
2.01
-5.08
-13.41
-22.23
-30.95
-39.18
-46.59
-53.02
-58.40
-62.55
-65.19
-66.03
-64.57
-60.55
-54.07
-45.65
-36.47
-28.33
-23.38
-23.77
-31.41
-47.28
-71.21
-101.71
-135.90
-170.00
-199.76
-221.13
-231.00
-227.83
-211.72
-184.61
-149.68
-110.68
-71.32
-34.48
-1.65
27.15
53.22
78.74
105.76
135.52
167.99
201.45
233.04
259.33
277.16
284.39
280.25
265.19
240.62
208.59
171.17
130.50
88.68
47.99
10.81
-20.70
-45.14
-62.19
-72.86
-79.19
-83.47
-87.51
-91.82
-95.37
-96.09
-91.69
-80.51
-62.10
-37.11
-6.84
27.10
63.07
99.66
135.70
170.75
205.35
240.78
277.82
314.95
347.14
366.12
363.19
332.70
275.40
198.84
114.93
35.68
-30.89
-82.41
-121.10
-151.15
-175.98
-197.22
-215.29
-230.44
-243.37
-254.89
-264.93
-271.82
-272.82
-265.02
-247.12
-220.25
-187.89
-154.65
-124.73
-100.68
-82.85
-69.83
-59.31
-49.35
-38.86
-27.88
-17.02
-7.05
1.72
9.50
16.79
23.99
30.84
36.60
40.25
41.00
38.65
33.82
27.65
21.44
16.45
13.52
13.13
15.26
19.28
24.12
28.53
31.48
32.59
32.36
31.89
32.39
34.45
37.75
41.33
43.89
44.54
43.27
40.85
38.29
36.43
35.38
34.39
32.34
27.89
20.05
8.61
-5.82
-21.94
-37.94
-51.91
-62.38
-68.48
-70.17
-68.05
-62.93
-55.78
-47.51
-38.98
-31.17
-25.08
-21.53
-20.82
-22.70
-26.01
-29.31
-31.04
-29.96
-25.69
-18.55
-9.42
0.50
10.07
18.53
25.23
29.91
32.45
32.84
31.30
28.34
24.77
21.50
19.41
19.06
20.55
23.43
26.81
29.54
30.58
29.17
24.92
17.79
8.15
-3.42
-16.10
-29.11
-41.59
-52.79
-62.01
-68.76
-72.73
-73.81
-72.16
-68.02
-61.84
-54.03
-45.10
-35.37
-25.30
-15.26
-5.62
3.22
11.02
17.52
22.62
26.26
28.63
29.89
30.40
30.53
30.46
30.47
30.73
31.29
32.13
33.24
34.57
36.05
37.64
39.14
40.45
41.44
41.83
41.45
40.10
37.64
34.06
29.42
23.87
17.69
11.30
5.05
-0.61
-5.38
-9.04
-11.44
-12.59
-12.59
-11.64
-9.90
-7.57
-4.85
-1.85
1.28
4.47
7.66
10.79
13.77
16.56
19.14
21.41
23.40
25.04
26.31
27.20
27.63
27.55
26.87
25.57
23.48
20.65
17.03
12.73
7.92
2.78
-2.34
-7.20
-11.45
-14.86
-17.17
-18.26
-18.09
-16.67
-14.20
-10.88
-7.04
-2.99
0.91
4.30
6.89
8.48
9.02
8.52
7.06
4.85
2.13
-0.86
-4.00
-7.20
-10.54
-14.16
-18.35
-23.49
-29.85
-37.66
-46.88
-57.44
-68.99
-81.04
-93.06
-104.53
-114.92
-123.88
-131.06
-136.26
-139.42
-140.53
-139.55
-136.54
-131.43
-124.23
-114.92
-103.46
-89.85
-74.12
-56.41
-36.93
-16.09
5.82
28.13
50.23
71.41
90.88
107.93
121.91
132.32
138.77
141.30
140.05
135.44
128.08
118.72
108.07
96.91
85.82
75.30
65.70
57.24
49.94
43.79
38.69
34.52
31.21
28.72
27.07
26.27
26.39
27.40
29.30
31.92
35.09
38.51
41.83
44.72
46.73
47.52
46.81
44.53
40.62
35.24
28.61
21.06
12.95
4.67
-3.42
-10.91
-17.44
-22.74
-26.63
-29.01
-29.90
-29.47
-27.93
-25.54
-22.53
-19.17
-15.68
-12.26
-9.10
-6.28
-3.99
-2.28
-1.11
-0.29
0.36
1.13
2.24
3.78
5.71
7.81
9.79
11.43
12.66
13.53
14.14
14.57
14.74
14.55
13.77
12.30
10.26
7.93
5.79
4.04
2.42
-0.18
-5.57
-16.15
-34.71
-63.41
-103.60
-155.50
-217.99
-288.59
-363.31
-436.61
-501.62
-551.32
-579.18
-580.19
-551.26
-491.25
-400.65
-281.52
-138.51
20.71
185.17
342.39
480.64
591.88
672.90
724.97
752.21
759.20
749.88
726.98
692.37
647.14
591.78
526.03
449.36
362.20
267.08
168.92
74.21
-10.55
-80.53
-133.65
-170.32
-192.95
-205.03
-210.30
-212.19
-213.39
-215.74
-219.61
-224.04
-227.03
-226.27
-219.84
-207.08
-188.51
-165.78
-141.22
-117.29
-95.94
-78.33
-64.71
-54.61
-47.28
-41.68
-37.01
-32.65
-28.36
-24.01
-19.66
-15.47
-11.63
-8.44
-6.03
-4.56
-4.05
-4.51
-5.85
-7.94
-10.83
-14.81
-20.60
-29.53
-43.21
-63.47
-91.98
-129.83
-177.07
-232.30
-292.33
-352.35
-406.34
-447.52
-469.29
-466.24
-435.01
-375.03
-288.82
-181.68
-61.21
63.76
184.45
293.02
383.65
452.89
499.67
525.22
532.40
525.00
506.90
481.57
451.52
418.20
382.41
343.95
302.50
257.72
209.67
158.94
106.72
54.64
4.63
-41.02
-80.31
-111.49
-133.50
-146.04
-149.66
-145.69
-136.05
-122.97
-108.62
-95.11
-83.87
-75.88
-71.48
-70.47
-72.40
-76.63
-82.58
-89.61
-97.30
-105.08
-112.37
-118.38
-122.05
-122.41
-118.47
-109.74
-96.21
-78.56
-57.98
-36.15
-14.83
4.40
20.28
32.26
40.36
45.23
47.89
49.61
51.58
54.74
59.57
65.81
72.76
79.37
84.52
87.16
86.52
82.19
74.22
63.16
50.03
36.22
23.13
11.84
2.80
-4.17
-9.83
-15.08
-20.81
-27.51
-35.25
-43.70
-52.29
-60.35
-67.20
-72.56
-76.48
-79.37
-81.85
-84.63
-88.33
-93.38
-99.79
-106.98
-113.89
-118.99
-120.41
-116.51
-106.32
-89.85
-68.10
-42.87
-16.02
10.67
35.89
58.79
78.90
95.91
109.48
119.56
126.12
129.54
130.35
129.22
126.72
123.37
119.75
116.20
112.68
108.14
100.71
88.13
68.86
42.98
12.60
-18.51
-46.14
-67.04
-79.91
-85.34
-85.20
-81.66
-76.52
-71.12
-66.39
-63.20
-62.26
-64.13
-68.76
-75.48
-83.01
-89.82
-94.64
-96.77
-96.24
-93.56
-89.54
-84.72
-79.34
-73.36
-66.42
-58.30
-48.90
-38.43
-27.25
-15.86
-4.59
6.33
16.71
26.44
35.23
42.79
48.70
52.69
54.65
54.70
53.20
50.69
47.80
44.99
42.61
40.81
39.59
38.84
38.40
38.10
37.78
37.37
36.77
35.89
34.66
33.09
31.12
28.82
26.20
23.31
20.29
17.20
14.06
10.94
7.85
4.84
1.96
-0.74
-3.23
-5.36
-7.06
-8.22
-8.71
-8.50
-7.58
-6.01
-3.98
-1.75
0.46
2.28
3.44
3.80
3.25
1.86
-0.15
-2.52
-4.95
-7.05
-8.59
-9.38
-9.34
-8.55
-7.20
-5.44
-3.53
-1.77
-0.29
0.75
1.33
1.46
1.15
0.49
-0.36
-1.37
-2.41
-3.43
-4.37
-5.07
-5.44
-5.42
-4.93
-3.89
-2.34
-0.31
2.01
4.43
6.71
8.58
9.86
10.25
9.71
8.20
5.82
2.78
-0.63
-4.09
-7.27
-9.82
-11.57
-12.30
-12.00
-10.83
-9.17
-7.52
-6.41
-6.33
-7.60
-10.39
-14.49
-19.54
-25.11
-30.80
-36.27
-41.25
-45.51
-48.70
-50.58
-50.74
-49.02
-45.67
-41.21
-36.40
-32.18
-29.22
-27.82
-27.74
-27.89
-27.15
-24.98
-21.31
-16.48
-11.43
-6.79
-2.72
1.38
7.30
16.81
29.86
45.09
60.29
72.25
78.56
78.13
71.63
62.52
54.60
48.56
42.58
32.82
13.70
-19.02
-67.01
-127.82
-193.07
-252.63
-300.02
-332.86
-343.98
-328.36
-285.08
-220.73
-145.37
-67.45
19.19
121.91
244.84
388.90
544.77
699.77
838.87
930.63
951.86
894.36
767.74
595.47
404.78
217.37
48.65
-93.16
-210.66
-301.87
-364.17
-398.77
-410.78
-407.92
-399.47
-385.30
-367.49
-347.03
-320.76
-285.76
-242.12
-193.03
-143.67
-99.68
-65.05
-42.64
-32.58
-30.57
-31.57
-31.89
-29.91
-25.89
-21.07
-16.71
-14.48
-15.09
-17.22
-19.35
-20.43
-20.27
-19.23
-17.81
-16.32
-15.33
-14.79
-14.00
-12.23
-9.04
-4.51
0.96
6.82
12.49
17.24
20.75
23.02
24.26
24.69
24.65
24.37
23.99
23.51
22.82
21.71
20.03
17.73
14.84
11.61
8.28
5.23
2.71
0.99
0.14
-0.04
0.18
0.38
0.13
-1.02
-3.29
-6.76
-11.19
-16.12
-21.00
-25.08
-27.74
-28.45
-27.01
-23.48
-18.17
-11.67
-4.69
2.05
8.01
12.70
16.05
18.17
19.51
20.76
22.51
25.44
30.00
36.38
44.36
53.46
62.92
71.87
79.39
84.65
87.22
86.81
83.55
77.78
70.12
61.27
51.90
42.62
33.79
25.74
18.52
12.19
6.62
1.83
-2.18
-5.47
-7.90
-9.53
-10.29
-10.39
-10.00
-9.43
-8.92
-8.76
-9.25
-10.51
-12.69
-15.72
-19.54
-23.90
-28.57
-33.22
-37.44
-40.90
-43.18
-44.08
-43.39
-41.12
-37.34
-32.39
-26.70
-20.77
-15.21
-10.44
-6.94
-4.85
-4.18
-4.68
-6.00
-7.66
-9.16
-10.12
-10.20
-9.33
-7.60
-5.16
-2.32
0.56
3.12
5.11
6.25
6.57
6.11
4.92
3.30
1.49
-0.24
-1.69
-2.67
-3.16
-3.12
-2.62
-1.77
-0.72
0.47
1.73
2.94
4.02
4.85
5.41
5.62
5.52
5.12
4.50
3.69
2.69
1.46
-0.11
-2.05
-4.51
-7.55
-11.28
-15.85
-21.32
-27.68
-34.88
-42.77
-51.14
-59.71
-68.09
-75.81
-82.27
-86.73
-88.39
-86.42
-80.33
-69.91
-55.50
-37.95
-18.53
1.25
19.92
36.08
48.73
57.24
61.48
61.80
59.02
54.17
48.45
43.06
38.86
36.43
36.02
37.48
40.38
44.12
47.92
51.13
53.16
53.49
51.85
48.11
42.45
35.21
26.98
18.45
10.41
3.59
-1.48
-4.49
-5.42
-4.45
-2.04
1.28
4.82
7.95
10.13
10.83
9.80
6.96
2.37
-3.79
-11.14
-19.25
-27.61
-35.68
-43.09
-49.54
-54.92
-59.27
-62.72
-65.42
-67.53
-69.09
-70.17
-70.72
-70.65
-69.78
-68.06
-65.32
-61.52
-56.79
-51.22
-45.01
-38.38
-31.41
-24.08
-16.46
-8.42
0.17
9.31
18.95
28.92
38.88
48.42
57.05
64.26
69.62
72.94
74.10
73.35
70.99
67.55
63.59
59.64
56.17
53.44
51.58
50.45
49.91
49.53
48.97
47.90
46.06
43.40
40.04
36.15
32.00
27.90
24.08
20.71
17.85
15.46
13.43
11.58
9.67
7.42
4.61
1.05
-3.42
-8.88
-15.33
-22.66
-30.66
-39.03
-47.40
-55.38
-62.50
-68.45
-72.98
-75.98
-77.51
-77.76
-76.99
-75.47
-73.46
-71.03
-68.21
-64.88
-60.81
-55.83
-49.77
-42.63
-34.54
-25.84
-16.84
-7.94
0.49
8.28
15.30
21.72
27.76
33.66
39.62
45.71
51.84
57.71
62.88
66.77
68.89
68.93
66.68
62.27
56.11
48.75
40.97
33.55
27.10
22.11
18.81
17.05
16.56
16.89
17.47
17.79
17.57
16.60
14.89
12.72
10.32
8.09
6.31
5.10
4.53
4.52
4.95
5.54
6.13
6.56
6.71
6.59
6.10
5.25
3.96
2.29
0.24
-2.04
-4.32
-6.31
-7.68
-8.24
-7.91
-7.01
-6.05
-6.05
-8.02
-13.00
-21.69
-34.25
-50.22
-68.31
-86.60
-102.81
-114.61
-119.99
-117.68
-107.37
-89.55
-65.70
-37.95
-8.62
19.83
45.42
66.79
83.31
94.91
102.29
106.37
108.09
108.30
107.52
105.88
103.19
98.92
92.36
82.99
70.35
54.28
35.06
13.27
-10.09
-33.70
-56.25
-76.40
-93.02
-105.39
-113.03
-115.81
-113.97
-108.06
-98.60
-86.26
-71.61
-55.20
-37.54
-19.10
-0.26
18.39
36.14
52.28
65.95
76.27
82.38
83.54
79.38
69.92
55.54
37.17
16.17
-5.83
-26.98
-45.48
-59.69
-68.38
-70.84
-66.96
-57.22
-42.64
-24.73
-5.18
14.25
32.00
46.80
57.85
64.77
67.68
67.09
63.78
58.76
53.06
47.66
43.32
40.52
39.36
39.76
41.15
42.84
43.98
43.66
41.17
35.96
27.82
16.91
3.86
-10.45
-24.89
-38.20
-49.20
-56.93
-60.86
-60.86
-57.24
-50.69
-42.23
-33.02
-24.16
-16.62
-11.00
-7.70
-6.65
-7.50
-9.67
-12.47
-15.16
-17.15
-18.15
-17.88
-16.47
-14.09
-11.07
-7.81
-4.68
-1.90
0.33
1.86
2.75
3.05
2.90
2.44
1.77
0.99
0.15
-0.70
-1.53
-2.34
-3.09
-3.80
-4.40
-4.97
-5.47
-6.00
-6.60
-7.26
-8.00
-8.78
-9.45
-9.83
-9.70
-8.76
-6.77
-3.55
0.98
6.76
13.51
20.90
28.40
35.43
41.49
46.11
49.03
50.11
49.44
47.24
43.91
39.82
35.40
30.88
26.54
22.48
18.68
15.03
11.49
8.08
4.77
1.67
-1.15
-3.54
-5.36
-6.62
-7.40
-7.86
-8.16
-8.53
-9.09
-9.99
-11.21
-12.64
-14.12
-15.50
-16.65
-17.58
-18.35
-19.13
-20.18
-21.82
-24.28
-27.70
-31.99
-37.00
-42.44
-47.84
-52.65
-56.33
-58.39
-58.43
-56.22
-51.64
-44.83
-36.22
-26.32
-15.82
-5.45
4.16
12.53
19.34
24.56
28.27
30.53
31.41
30.82
28.59
24.51
18.48
10.49
0.87
-9.72
-20.41
-30.02
-37.33
-41.04
-40.08
-33.82
-22.26
-6.05
13.44
34.21
54.03
70.57
81.78
86.34
83.72
74.51
60.38
43.56
26.44
11.08
-1.19
-9.91
-15.21
-17.79
-18.28
-17.26
-15.09
-11.98
-8.01
-3.37
1.56
6.28
9.99
12.26
12.71
11.52
9.30
7.09
6.04
7.03
10.33
15.17
19.98
22.84
22.22
17.72
10.17
1.27
-7.01
-12.99
-15.63
-14.35
-8.94
0.35
12.59
25.89
37.47
44.39
44.65
37.76
25.03
8.98
-7.59
-22.47
-34.68
-44.32
-52.28
-59.47
-66.41
-73.06
-79.05
-83.81
-87.15
-89.07
-89.73
-89.25
-87.57
-84.53
-80.01
-74.19
-67.56
-60.89
-54.93
-50.14
-46.60
-43.93
-41.63
-39.02
-35.58
-31.12
-25.59
-19.25
-12.45
-5.62
0.85
6.49
10.98
14.13
15.97
16.74
16.93
17.21
17.99
19.72
22.40
25.75
29.09
31.72
32.99
32.48
30.17
26.25
21.43
16.52
12.39
9.80
9.28
11.23
15.62
22.21
30.51
39.89
49.60
58.89
67.00
73.27
77.18
78.32
76.56
71.95
64.80
55.59
44.96
33.78
22.83
12.77
4.12
-2.70
-7.62
-10.67
-12.17
-12.43
-11.70
-10.34
-8.55
-6.49
-4.16
-1.62
1.18
4.16
7.18
10.10
12.59
14.41
15.36
15.24
14.04
11.94
9.21
6.21
3.35
0.98
-0.60
-1.24
-0.98
-0.02
1.45
3.10
4.53
5.51
5.79
5.40
4.37
2.88
1.09
-0.70
-2.34
-3.73
-4.81
-5.66
-6.36
-7.05
-7.84
-8.82
-10.03
-11.42
-12.88
-14.28
-15.49
-16.34
-16.75
-16.71
-16.25
-15.47
-14.45
-13.29
-12.07
-10.86
-9.59
-8.24
-6.73
-4.93
-2.77
-0.19
2.77
6.10
9.65
13.24
16.63
19.63
22.02
23.55
24.12
23.62
22.12
19.67
16.45
12.69
8.72
4.82
1.24
-1.84
-4.23
-5.89
-6.92
-7.43
-7.59
-7.57
-7.56
-7.68
-8.00
-8.49
-9.12
-9.85
-10.55
-11.15
-11.64
-11.98
-12.17
-12.23
-12.24
-12.27
-12.34
-12.46
-12.64
-12.90
-13.21
-13.50
-13.70
-13.78
-13.67
-13.35
-12.68
-11.59
-10.01
-7.92
-5.47
-2.81
-0.24
2.04
3.70
4.70
5.04
4.87
4.43
3.85
3.29
2.86
2.66
2.60
2.66
2.89
3.44
4.36
5.60
6.92
7.97
8.28
7.26
4.60
0.29
-5.39
-12.12
-19.78
-28.28
-37.64
-47.91
-59.08
-70.51
-80.89
-88.74
-92.92
-93.34
-90.77
-86.55
-82.38
-79.99
-80.27
-82.20
-84.09
-84.20
-81.68
-76.39
-68.46
-57.89
-44.39
-27.09
-3.12
30.43
75.39
131.67
198.29
274.06
357.84
439.01
501.00
528.70
513.73
457.57
368.57
257.80
136.18
13.15
-102.62
-211.18
-310.12
-395.02
-461.19
-505.58
-527.49
-528.41
-511.65
-467.08
-393.51
-294.55
-179.40
-60.74
48.69
139.39
206.66
249.99
272.35
276.75
268.66
254.02
238.26
225.29
216.64
210.94
203.63
188.84
160.51
117.72
65.30
12.29
-31.74
-60.52
-72.96
-72.70
-65.57
-57.37
-50.69
-45.42
-40.22
-34.08
-26.89
-18.65
-8.78
3.94
20.69
42.43
68.75
97.56
125.87
149.05
162.81
164.35
152.51
127.92
92.51
49.10
1.23
-47.51
-93.46
-133.00
-162.77
-180.01
-182.74
-170.53
-144.38
-106.25
-59.15
-6.68
47.60
100.23
148.07
188.42
218.63
236.59
241.81
234.67
216.64
190.49
159.72
128.40
100.30
77.92
62.62
55.06
54.55
59.34
67.08
74.91
79.57
83.62
87.21
90.54
94.40
99.44
106.03
114.23
123.58
133.27
142.08
147.85
149.15
145.25
135.99
121.64
103.20
81.63
58.21
33.88
9.09
-15.06
-37.50
-57.31
-74.13
-87.81
-99.11
-109.27
-120.84
-135.71
-154.28
-175.77
-198.99
-222.79
-246.04
-268.33
-289.75
-313.00
-339.36
-367.82
-396.26
-422.80
-446.47
-467.15
-485.54
-502.59
-522.85
-548.31
-577.87
-609.35
-640.79
-670.19
-694.06
-706.74
-700.95
-674.58
-625.27
-551.86
-456.71
-346.33
-229.64
-115.03
-9.24
111.29
244.13
369.01
462.31
512.88
524.42
507.95
475.36
434.25
389.56
340.06
287.45
236.13
190.14
151.46
118.59
92.98
73.32
57.94
43.07
29.15
19.87
18.49
27.46
46.87
75.58
114.27
158.76
200.17
232.56
255.38
270.88
283.53
296.35
309.94
322.69
330.34
328.09
314.51
299.22
285.29
277.32
278.14
286.90
299.31
307.79
305.93
291.14
265.20
231.41
194.68
158.31
119.19
77.68
34.60
-7.95
-46.78
-78.88
-103.52
-120.46
-130.83
-136.25
-137.26
-134.25
-127.14
-115.64
-100.77
-85.39
-72.69
-65.34
-64.88
-70.36
-79.85
-90.88
-101.37
-110.59
-118.70
-126.06
-132.61
-137.43
-138.62
-134.73
-125.19
-110.69
-92.97
-74.11
-55.55
-37.98
-21.10
-3.66
15.59
37.68
63.15
91.95
123.39
156.08
188.12
217.47
242.25
261.24
274.13
281.72
285.53
287.48
289.03
290.95
293.40
295.76
297.01
296.19
292.36
284.41
270.96
250.05
219.38
176.77
120.72
50.77
-31.58
-122.81
-217.62
-309.69
-392.91
-462.34
-515.22
-550.81
-570.10
-575.18
-568.80
-553.81
-532.86
-508.30
-481.76
-453.98
-425.39
-396.50
-368.84
-345.08
-327.82
-317.73
-312.08
-305.35
-291.50
-267.38
-234.55
-198.74
-166.37
-141.01
-121.49
-103.32
-82.96
-61.18
-43.38
-36.14
-42.52
-58.08
-72.18
-72.33
-50.24
-5.45
54.86
119.64
178.80
226.57
261.97
286.92
303.90
314.32
318.62
317.23
311.14
301.79
290.74
278.94
266.13
251.14
232.35
208.33
178.66
144.39
107.96
72.80
42.58
19.74
5.21
-1.82
-3.24
-1.25
2.34
6.29
9.88
12.61
13.83
13.12
10.50
6.51
2.12
-1.68
-4.24
-5.38
-5.35
-4.61
-3.43
-1.89
-0.29
1.15
1.90
1.61
0.10
-2.46
-5.45
-8.14
-9.84
-10.34
-9.72
-8.54
-7.26
-6.37
-6.20
-6.86
-8.26
-10.40
-13.12
-16.19
-19.21
-21.76
-23.51
-24.45
-24.96
-25.52
-26.58
-28.08
-29.44
-29.65
-27.83
-23.38
-16.43
-7.59
2.17
11.97
21.27
29.69
37.37
44.68
52.33
61.29
72.38
85.77
100.90
116.60
130.96
142.21
148.99
150.47
146.71
138.13
125.47
109.59
91.65
72.79
54.07
36.39
20.15
5.54
-7.64
-19.46
-30.00
-39.02
-46.26
-51.57
-54.93
-56.82
-57.70
-58.16
-58.61
-59.17
-59.78
-60.32
-60.53
-60.21
-59.55
-58.68
-57.90
-57.49
-57.46
-57.69
-57.86
-57.65
-56.82
-55.53
-54.14
-53.23
-53.51
-55.30
-58.56
-62.60
-66.52
-69.12
-69.32
-66.44
-60.22
-51.18
-40.01
-27.74
-15.33
-3.84
5.92
13.14
17.44
18.73
17.33
14.21
10.57
7.64
6.24
6.69
8.65
11.58
14.80
17.78
20.16
21.78
22.62
22.85
22.80
23.18
24.71
28.30
34.57
43.49
54.46
66.09
76.64
84.17
86.96
83.70
74.23
59.46
41.43
22.88
6.53
-5.57
-12.77
-16.12
-17.92
-20.70
-26.67
-36.87
-51.06
-67.86
-85.10
-100.30
-111.65
-117.83
-118.12
-112.63
-101.87
-86.44
-67.26
-45.44
-22.37
0.02
20.01
36.57
49.39
59.14
67.48
76.14
86.32
98.59
112.32
126.40
139.84
151.69
161.82
171.01
180.55
191.42
203.91
216.98
228.75
236.88
237.95
228.99
208.76
178.55
141.85
103.09
66.16
33.96
7.83
-14.38
-35.97
-58.82
-81.88
-102.08
-116.56
-124.49
-126.08
-122.19
-116.91
-113.83
-113.11
-110.20
-98.28
-72.44
-33.20
14.25
60.76
90.70
88.12
43.19
-43.56
-162.94
-301.56
-447.60
-591.14
-698.02
-735.11
-690.31
-583.04
-447.19
-309.37
-181.69
-69.58
26.09
106.52
170.16
215.93
245.96
267.09
287.31
315.55
350.30
386.12
416.46
432.67
427.92
400.02
353.09
287.02
213.88
142.41
78.14
23.90
-21.21
-59.77
-94.08
-124.62
-149.90
-166.12
-171.57
-164.84
-145.99
-118.89
-90.23
-66.78
-52.23
-46.95
-44.94
-42.59
-38.49
-33.57
-30.13
-29.50
-30.32
-29.32
-22.91
-9.19
8.96
26.40
38.15
41.26
35.68
23.74
7.86
-9.79
-27.65
-45.51
-63.47
-81.66
-100.59
-121.36
-141.13
-158.05
-169.06
-169.28
-153.60
-118.92
-66.88
-4.85
56.09
105.40
136.88
151.25
154.52
153.72
152.94
151.73
146.78
135.13
116.93
95.13
74.13
56.93
43.51
31.22
16.72
-1.49
-22.22
-41.85
-56.24
-62.00
-57.60
-43.71
-22.70
2.11
27.21
49.09
64.30
69.65
63.01
44.59
17.38
-12.89
-39.37
-56.22
-60.69
-54.00
-40.56
-26.23
-15.93
-12.51
-16.32
-25.92
-39.12
-53.57
-67.26
-78.36
-85.48
-87.54
-84.09
-75.19
-61.55
-44.48
-25.76
-7.68
7.39
17.20
20.33
16.43
6.52
-7.30
-22.42
-36.25
-46.84
-53.09
-54.86
-52.68
-47.65
-40.96
-33.74
-26.94
-21.14
-16.50
-12.72
-9.00
-4.41
1.76
9.60
18.81
29.10
40.94
56.00
76.88
106.01
144.30
189.86
237.73
280.81
311.50
323.77
314.42
283.84
235.54
175.27
109.72
45.32
-12.80
-61.44
-99.38
-127.20
-146.58
-159.40
-167.14
-170.57
-169.75
-164.34
-153.95
-138.49
-118.28
-94.41
-68.65
-43.48
-21.47
-4.73
5.67
10.09
9.98
7.43
4.51
2.81
3.16
5.76
10.36
16.27
22.60
28.35
32.48
34.09
32.65
28.01
20.57
11.24
1.18
-8.34
-16.25
-21.90
-25.16
-26.41
-26.43
-26.05
-26.03
-26.87
-28.81
-31.84
-35.82
-40.48
-45.34
-49.73
-52.71
-53.31
-50.85
-45.24
-36.98
-27.01
-16.27
-5.39
5.29
15.67
25.50
34.19
40.94
45.12
46.64
46.10
44.63
43.42
43.26
44.19
45.55
46.41
45.98
43.92
40.41
36.05
31.52
27.36
23.80
20.63
17.48
13.84
9.38
4.05
-1.71
-7.16
-11.51
-14.07
-14.71
-13.69
-11.62
-9.26
-7.36
-6.44
-6.93
-9.01
-12.66
-17.47
-22.71
-27.36
-30.35
-30.82
-28.36
-23.13
-15.66
-6.77
2.79
12.47
21.86
30.69
38.64
45.38
50.49
53.66
54.83
54.12
51.90
48.57
44.50
39.95
35.13
30.21
25.41
21.11
17.62
15.20
13.87
13.49
13.69
14.05
14.17
13.66
12.30
10.06
7.08
3.63
0.03
-3.53
-7.00
-10.55
-14.32
-18.38
-22.60
-26.59
-30.01
-32.56
-34.23
-35.25
-36.04
-36.94
-38.01
-39.05
-39.57
-39.00
-36.69
-32.19
-25.22
-15.91
-4.83
7.06
18.42
27.97
34.74
38.44
39.34
38.17
35.78
32.85
29.81
26.94
24.41
22.31
20.69
19.38
18.11
16.56
14.47
11.75
8.51
4.99
1.41
-1.98
-5.00
-7.48
-9.35
-10.77
-12.10
-13.91
-16.76
-20.89
-26.13
-31.82
-37.06
-41.11
-43.66
-44.87
-45.15
-45.03
-44.81
-44.51
-44.13
-43.55
-42.73
-41.54
-39.69
-36.72
-32.15
-25.78
-17.85
-9.16
-0.84
6.07
10.81
13.18
13.36
11.64
8.36
3.84
-1.46
-6.61
-10.39
-11.56
-9.44
-4.44
1.84
7.17
9.47
7.63
2.09
-5.61
-13.44
-19.80
-24.09
-26.69
-28.41
-29.79
-30.73
-30.44
-27.85
-22.06
-12.75
-0.23
14.65
30.69
46.56
60.87
72.47
80.60
85.23
87.01
87.13
86.84
86.76
86.57
84.85
79.56
68.61
50.66
25.69
-4.69
-37.31
-68.07
-92.76
-108.05
-112.25
-105.65
-90.35
-69.65
-47.22
-26.30
-9.10
3.57
12.25
18.67
25.09
33.57
45.25
59.90
75.83
90.37
100.71
104.64
101.20
90.92
75.50
57.45
39.34
23.45
11.36
3.84
0.63
0.72
2.51
4.11
3.89
0.77
-5.32
-13.55
-22.39
-30.01
-34.92
-36.30
-34.14
-28.97
-21.51
-12.22
-1.36
10.70
23.10
34.15
41.62
43.42
38.43
27.09
11.40
-5.63
-20.90
-31.89
-37.32
-37.25
-32.86
-25.99
-18.73
-12.90
-9.75
-9.71
-12.23
-16.22
-20.35
-23.42
-24.79
-24.41
-22.78
-20.81
-19.56
-19.81
-22.04
-26.20
-31.73
-37.76
-43.25
-47.19
-48.84
-47.88
-44.39
-38.90
-32.15
-24.91
-17.88
-11.56
-6.19
-1.79
1.85
5.03
8.13
11.49
15.18
18.99
22.50
25.19
26.59
26.51
25.05
22.45
19.04
15.06
10.65
6.03
1.47
-2.59
-5.73
-7.61
-8.20
-7.74
-6.70
-5.63
-5.02
-5.26
-6.57
-9.02
-12.49
-16.72
-21.28
-25.73
-29.68
-32.88
-35.19
-36.53
-36.85
-36.14
-34.39
-31.55
-27.50
-22.01
-14.91
-6.19
3.77
14.24
24.18
32.63
38.86
42.60
43.96
43.39
41.40
38.49
35.08
31.54
28.21
25.30
22.91
20.96
19.32
17.73
15.96
13.75
10.98
7.58
3.73
-0.25
-3.94
-7.03
-9.45
-11.35
-13.07
-14.94
-17.18
-19.78
-22.48
-24.94
-26.82
-27.98
-28.42
-28.21
-27.37
-25.75
-23.04
-18.84
-12.93
-5.37
3.33
12.49
21.48
29.75
37.05
43.16
48.03
51.52
53.71
54.71
54.86
54.49
53.85
53.04
51.93
50.43
48.44
46.10
43.60
41.17
38.97
36.99
35.06
33.00
30.65
27.82
24.57
20.92
16.86
12.33
7.20
1.42
-4.80
-11.16
-17.26
-22.76
-27.61
-32.00
-36.29
-40.81
-45.57
-50.33
-54.62
-57.96
-59.98
-60.51
-59.51
-57.03
-53.29
-48.61
-43.51
-38.64
-34.64
-31.91
-30.63
-30.53
-31.09
-31.79
-32.21
-32.12
-31.59
-30.89
-30.27
-30.01
-30.01
-29.70
-28.07
-23.81
-15.94
-4.44
9.25
22.23
30.75
31.51
23.18
7.21
-12.16
-29.36
-39.43
-39.86
-31.61
-18.64
-6.32
0.59
-0.40
-8.67
-21.12
-33.36
-41.41
-42.89
-37.72
-27.54
-14.79
-1.68
10.78
22.71
34.90
47.94
61.44
73.85
82.94
86.58
83.54
74.05
59.75
43.27
27.59
15.20
7.64
5.01
6.08
8.68
10.36
9.02
3.68
-5.30
-16.52
-27.98
-37.96
-45.36
-49.82
-51.53
-51.02
-48.86
-45.68
-42.31
-39.66
-38.62
-39.66
-42.56
-46.28
-49.30
-50.10
-47.74
-42.31
-34.80
-26.73
-19.57
-14.14
-10.42
-7.52
-3.88
2.59
13.97
31.67
55.47
82.85
109.29
129.33
138.56
135.22
120.90
99.83
77.05
56.64
40.76
29.95
23.98
22.97
27.42
37.65
52.91
70.60
86.68
96.63
97.08
87.00
68.12
44.41
20.52
0.36
-14.01
-22.47
-26.42
-27.53
-27.02
-25.40
-22.78
-19.41
-16.10
-14.27
-15.28
-20.01
-28.14
-38.13
-47.76
-54.71
-57.56
-55.98
-50.87
-43.58
-35.50
-27.44
-19.55
-11.67
-3.54
4.76
12.90
20.28
26.26
30.05
30.65
26.88
17.69
2.97
-15.94
-36.15
-53.76
-65.06
-67.82
-62.03
-49.66
-33.88
-17.73
-3.35
8.28
16.84
22.01
23.18
19.64
11.28
-0.79
-14.12
-25.53
-32.19
-32.69
-27.63
-19.36
-10.96
-4.94
-2.36
-2.65
-4.22
-5.50
-5.69
-5.08
-4.63
-5.21
-6.93
-8.98
-9.91
-8.49
-4.27
2.23
9.77
16.96
22.75
26.77
29.27
30.70
31.48
31.64
30.99
29.26
26.41
22.70
18.77
15.31
12.84
11.44
10.81
10.36
9.52
7.96
5.72
3.27
1.21
0.17
0.62
2.67
6.16
10.59
15.32
19.75
23.41
26.07
27.78
28.92
29.98
31.41
33.50
36.26
39.57
43.47
48.24
54.51
63.07
74.37
88.20
103.44
118.23
130.53
138.86
142.83
143.16
141.31
138.74
136.26
133.33
128.04
117.71
99.79
73.04
37.88
-3.88
-49.66
-97.05
-144.31
-190.33
-234.09
-274.28
-309.36
-338.04
-359.54
-373.17
-377.60
-370.38
-348.53
-310.38
-257.59
-196.06
-134.73
-82.74
-46.14
-26.00
-18.60
-17.64
-16.85
-11.96
-1.12
15.53
36.50
59.11
79.15
91.40
90.40
71.95
34.60
-19.07
-82.10
-144.28
-194.28
-222.50
-223.58
-197.66
-149.88
-88.21
-20.84
45.68
106.77
159.09
199.46
224.62
232.08
221.41
195.03
157.87
115.87
74.32
36.76
5.02
-20.03
-37.71
-47.14
-47.58
-39.12
-23.15
-2.39
19.52
38.86
52.44
58.24
55.58
45.01
28.09
7.03
-15.59
-36.94
-54.26
-65.02
-67.41
-60.62
-45.35
-23.56
1.71
27.03
49.26
66.15
76.62
80.71
79.44
74.31
67.00
59.01
51.47
45.05
39.90
35.82
32.32
28.97
25.51
21.88
18.25
14.96
12.42
10.90
10.52
10.98
11.72
11.93
10.87
8.14
3.84
-1.50
-7.23
-12.75
-17.98
-23.15
-28.90
-35.92
-44.73
-55.48
-67.77
-80.60
-92.25
-100.54
-103.04
-97.67
-83.39
-60.58
-31.25
1.15
32.59
59.19
77.96
87.24
86.70
77.14
60.21
38.27
14.29
-8.30
-26.08
-36.23
-37.13
-28.77
-12.70
8.48
31.80
54.60
74.83
91.12
102.46
108.28
108.26
102.52
91.60
76.43
58.37
38.96
20.05
3.40
-9.38
-17.17
-19.72
-17.65
-12.32
-5.40
1.44
6.99
10.47
11.45
9.75
5.29
-1.84
-11.21
-22.00
-33.05
-43.04
-50.88
-55.96
-58.19
-58.10
-56.44
-54.01
-51.43
-49.13
-47.10
-45.25
-43.30
-40.81
-37.28
-32.25
-25.39
-16.80
-6.96
3.45
13.64
23.04
31.48
39.02
45.77
51.68
56.39
59.43
60.37
59.10
55.80
51.04
45.57
40.14
35.42
31.87
29.77
29.04
29.38
30.21
30.82
30.53
28.83
25.60
20.97
15.42
9.46
3.56
-1.95
-6.94
-11.49
-15.65
-19.34
-22.45
-24.83
-26.44
-27.42
-28.02
-28.53
-29.13
-30.02
-31.35
-33.44
-36.59
-40.95
-46.30
-52.02
-57.19
-60.76
-61.96
-60.30
-55.65
-48.07
-37.76
-25.07
-10.58
4.69
19.55
32.73
43.17
50.30
54.16
55.28
54.38
52.20
49.29
45.99
42.55
39.18
36.04
33.34
31.24
29.83
28.98
28.49
28.04
27.33
26.12
24.27
21.75
18.69
15.27
11.68
8.15
4.82
1.73
-1.07
-3.63
-6.01
-8.24
-10.36
-12.38
-14.30
-16.19
-18.17
-20.30
-22.72
-25.50
-28.66
-32.24
-36.08
-40.09
-44.08
-47.91
-51.41
-54.41
-56.66
-57.81
-57.44
-55.00
-50.07
-42.37
-31.96
-19.38
-5.64
7.95
20.14
29.93
36.98
41.53
44.20
45.74
46.66
47.00
46.50
44.88
41.97
38.03
33.59
29.33
25.78
23.13
21.24
19.64
17.92
15.82
13.32
10.61
7.88
5.23
2.55
-0.42
-3.92
-8.08
-12.78
-17.75
-22.55
-26.88
-30.55
-33.65
-36.43
-39.18
-42.07
-44.97
-47.51
-49.03
-49.02
-47.28
-44.15
-40.65
-38.20
-38.42
-42.68
-51.50
-64.31
-79.28
-93.36
-102.72
-103.57
-92.90
-69.44
-34.11
9.90
57.63
103.21
141.01
166.79
178.38
176.14
162.53
141.58
117.70
94.79
75.16
59.49
46.89
35.67
24.32
12.01
-0.98
-13.61
-24.40
-32.03
-35.57
-34.70
-29.70
-21.18
-10.15
2.26
14.85
26.54
36.46
44.07
49.01
51.03
50.12
46.39
40.37
32.83
24.74
16.96
10.00
3.79
-2.20
-8.54
-15.72
-23.61
-31.68
-39.18
-45.26
-49.36
-51.20
-50.79
-48.28
-44.02
-38.29
-31.35
-23.60
-15.25
-6.56
2.21
10.72
18.47
24.88
29.44
31.91
32.24
30.79
28.04
24.47
20.43
16.19
11.90
7.73
3.90
0.53
-2.28
-4.61
-6.62
-8.52
-10.52
-12.76
-15.17
-17.69
-20.21
-22.60
-24.79
-26.69
-28.17
-29.23
-29.90
-30.28
-30.50
-30.72
-31.04
-31.60
-32.58
-34.08
-36.13
-38.62
-41.22
-43.43
-44.82
-45.00
-43.96
-41.78
-38.54
-34.07
-28.01
-19.99
-9.98
1.55
13.49
24.35
32.90
38.36
40.80
40.93
39.68
37.86
35.97
34.13
32.19
29.99
27.46
24.71
21.99
19.49
17.33
15.49
13.88
12.40
11.05
9.84
8.75
7.65
6.30
4.39
1.68
-1.77
-5.77
-9.92
-14.02
-18.04
-22.21
-26.71
-31.62
-36.75
-41.74
-46.19
-49.71
-52.29
-54.03
-55.22
-56.04
-56.55
-56.61
-55.94
-54.09
-50.49
-44.65
-36.32
-25.66
-13.37
-0.69
11.00
20.38
26.54
29.20
28.49
24.94
19.09
11.42
2.40
-7.36
-16.91
-24.85
-29.37
-28.59
-21.00
-6.11
15.15
40.55
67.02
91.37
111.05
124.56
131.27
131.17
124.43
111.40
92.76
69.78
44.14
17.63
-8.45
-33.86
-59.13
-85.09
-112.04
-138.97
-163.52
-182.41
-192.25
-190.40
-175.54
-147.89
-109.26
-62.82
-12.85
35.80
78.41
111.14
131.81
140.18
138.03
128.30
114.28
98.51
82.31
65.83
48.48
29.83
10.21
-8.92
-25.23
-36.16
-39.68
-34.83
-21.99
-2.64
20.84
45.73
69.34
89.35
104.00
112.15
113.33
107.69
95.95
79.25
59.02
36.86
14.51
-6.37
-24.22
-37.72
-46.09
-49.22
-47.57
-42.20
-34.36
-25.27
-15.93
-7.20
0.17
5.39
7.67
6.48
1.62
-6.53
-17.06
-28.66
-39.87
-49.19
-55.44
-57.87
-56.21
-50.75
-42.15
-31.33
-19.26
-6.94
4.77
15.01
23.03
28.32
30.62
30.08
27.33
23.19
18.56
14.14
10.29
6.97
4.08
1.50
-0.62
-1.87
-1.86
-0.55
1.64
3.86
5.00
4.22
1.19
-3.76
-9.65
-15.29
-19.68
-22.29
-23.28
-23.43
-23.77
-25.26
-28.42
-33.04
-38.40
-43.45
-47.17
-48.95
-48.72
-47.15
-45.42
-45.12
-47.75
-54.18
-64.11
-75.69
-85.99
-91.77
-90.71
-82.25
-67.89
-50.29
-32.05
-14.44
2.98
21.75
43.21
67.31
92.25
114.90
132.07
141.68
143.35
138.35
128.81
117.08
104.96
93.52
83.19
73.88
65.19
56.56
47.46
37.49
26.64
15.13
3.34
-8.26
-19.25
-29.28
-38.05
-45.21
-50.57
-53.96
-55.48
-55.64
-55.16
-54.93
-55.63
-57.57
-60.58
-64.11
-67.41
-69.75
-70.63
-69.67
-66.52
-60.62
-51.18
-37.40
-19.00
3.33
27.69
51.15
70.45
82.80
86.81
82.82
72.75
59.35
45.44
33.16
23.58
16.93
12.74
10.35
9.32
9.40
10.41
12.14
14.11
15.68
16.30
15.58
13.58
10.79
7.96
5.93
5.25
6.01
7.81
9.90
11.30
11.18
9.04
4.80
-1.10
-8.01
-15.26
-22.37
-28.93
-34.76
-39.71
-43.69
-46.73
-48.93
-50.51
-51.67
-52.37
-52.14
-50.12
-45.34
-37.12
-25.45
-11.06
4.73
20.26
34.08
45.12
52.88
57.36
58.86
57.87
55.00
50.90
46.14
41.28
36.76
32.84
29.60
27.07
25.02
23.13
21.05
18.47
15.22
11.45
7.55
4.00
1.21
-0.75
-2.05
-3.08
-4.24
-5.82
-7.87
-10.28
-12.91
-15.61
-18.46
-21.51
-24.87
-28.41
-31.88
-34.92
-37.14
-38.39
-38.76
-38.72
-38.82
-39.55
-41.06
-43.05
-44.80
-45.42
-43.97
-39.64
-32.11
-21.50
-8.53
5.55
19.21
30.94
39.63
44.90
47.15
47.27
46.31
45.00
43.60
41.95
39.75
36.83
33.39
30.03
27.38
25.93
25.69
26.29
27.03
27.31
26.74
25.31
23.27
20.98
18.75
16.71
14.84
12.96
10.87
8.35
5.29
1.64
-2.52
-6.90
-11.21
-15.22
-18.74
-21.84
-24.66
-27.31
-29.84
-32.10
-33.78
-34.74
-35.03
-34.92
-34.87
-35.09
-35.36
-34.89
-32.50
-27.02
-17.92
-5.70
7.99
20.77
30.28
34.86
34.26
29.67
23.40
18.15
16.11
18.18
23.42
29.02
31.01
25.68
11.23
-10.96
-36.15
-57.39
-67.67
-62.48
-41.33
-8.10
30.29
66.03
92.62
106.25
106.18
94.23
73.68
48.33
21.85
-2.67
-22.67
-36.27
-42.38
-41.26
-34.65
-25.73
-18.45
-16.31
-21.40
-33.60
-50.73
-69.12
-84.80
-94.37
-95.79
-88.73
-74.64
-56.56
-38.48
-24.58
-18.04
-20.01
-29.20
-42.23
-54.75
-62.77
-63.74
-56.87
-42.84
-23.03
1.04
27.95
56.06
83.33
107.31
125.42
135.77
137.67
131.84
120.16
105.00
88.51
72.08
56.07
39.79
21.94
1.07
-23.73
-52.45
-84.00
-116.47
-147.53
-175.06
-197.43
-213.55
-222.62
-224.10
-217.81
-204.14
-184.29
-160.09
-133.50
-106.06
-78.61
-51.23
-23.80
3.59
30.36
55.49
77.91
96.82
111.87
123.00
130.25
133.63
133.13
128.93
121.45
111.40
99.63
87.03
74.38
62.34
51.39
41.87
34.07
27.96
23.37
20.05
17.70
15.96
14.57
13.23
11.68
9.94
8.12
6.41
5.00
3.75
2.20
-0.19
-3.90
-8.98
-14.86
-20.52
-24.70
-26.23
-24.47
-19.35
-11.45
-1.80
8.40
18.07
26.39
32.87
37.37
39.90
40.63
39.89
38.00
35.44
32.71
30.25
28.41
27.26
26.63
26.17
25.52
24.39
22.67
20.45
17.92
15.28
12.72
10.39
8.42
6.93
5.95
5.35
4.86
4.09
2.62
0.07
-3.76
-8.87
-15.02
-21.87
-29.02
-35.96
-42.34
-47.87
-52.36
-55.58
-57.28
-57.07
-54.54
-49.53
-42.01
-32.44
-21.48
-10.00
1.12
11.11
19.44
25.78
30.03
32.38
33.04
32.36
30.69
28.43
25.92
23.52
21.40
19.59
18.01
16.48
14.94
13.38
11.86
10.32
8.55
6.35
3.55
0.29
-3.17
-6.42
-9.24
-11.62
-13.80
-16.07
-18.58
-21.31
-24.12
-26.93
-29.67
-32.45
-35.29
-38.11
-40.62
-42.47
-43.34
-43.06
-41.62
-38.94
-34.90
-29.24
-21.75
-12.50
-2.07
8.52
17.88
24.66
27.62
25.93
19.25
8.12
-5.89
-20.26
-31.71
-37.13
-34.49
-23.55
-6.01
15.00
36.04
54.47
69.04
79.88
87.69
92.98
95.38
93.65
86.15
71.45
49.04
19.57
-15.18
-52.59
-89.47
-122.28
-147.54
-162.22
-164.29
-153.23
-130.23
-98.14
-60.89
-22.87
11.90
40.37
60.81
72.66
76.41
73.00
63.55
49.12
30.58
8.82
-15.11
-39.66
-62.86
-82.29
-95.33
-99.53
-92.91
-74.52
-44.94
-6.48
36.78
79.63
116.65
143.56
157.99
160.04
151.81
136.35
116.64
94.61
71.01
45.99
19.90
-6.14
-30.00
-49.00
-60.62
-63.35
-57.28
-44.26
-27.59
-11.18
1.22
7.25
6.42
0.17
-8.72
-17.20
-23.07
-25.49
-25.13
-23.82
-23.56
-25.80
-30.88
-37.82
-44.60
-48.77
-48.09
-41.26
-28.18
-9.71
12.56
36.82
61.21
83.94
103.24
117.39
125.09
125.88
120.36
110.16
97.45
84.16
71.71
60.70
51.28
43.65
38.17
35.24
34.91
36.59
39.10
41.10
41.61
40.27
37.47
33.86
30.01
26.25
22.68
19.38
16.46
13.99
11.63
8.71
4.17
-2.63
-11.60
-21.68
-31.22
-38.65
-43.22
-45.29
-45.99
-46.47
-47.02
-46.99
-45.19
-40.63
-33.28
-24.00
-14.10
-4.43
5.03
15.34
27.78
43.07
60.86
79.54
96.85
110.21
117.28
116.34
106.74
89.58
67.73
45.26
25.81
10.91
-1.35
-15.78
-37.95
-71.16
-113.89
-159.22
-196.73
-216.00
-210.15
-177.99
-124.15
-57.12
12.98
76.55
125.60
154.34
159.44
140.43
100.02
43.78
-20.81
-86.68
-148.59
-203.63
-250.03
-285.29
-305.00
-303.72
-277.42
-226.47
-157.28
-81.28
-11.60
40.96
70.96
79.13
70.79
53.32
33.71
17.28
7.33
5.49
11.74
24.37
40.03
54.25
62.44
61.41
50.64
32.72
12.58
-4.36
-14.05
-15.49
-11.06
-5.51
-4.24
-11.35
-28.05
-52.45
-80.52
-107.54
-129.64
-144.88
-153.10
-155.50
-154.08
-150.86
-147.78
-146.40
-147.86
-152.59
-160.18
-169.27
-177.77
-183.38
-184.07
-178.71
-167.42
-151.65
-133.68
-115.69
-98.25
-79.44
-54.91
-19.16
32.01
99.51
179.83
265.90
349.00
421.32
477.69
516.03
536.81
542.09
534.96
518.92
497.07
470.83
438.96
397.76
342.65
271.08
184.67
89.88
-3.93
-87.80
-156.27
-208.65
-248.14
-279.56
-306.90
-332.12
-354.94
-373.62
-385.77
-389.13
-382.12
-364.38
-337.32
-303.50
-265.86
-226.49
-185.75
-142.34
-94.36
-40.69
17.95
78.56
136.68
187.47
226.89
252.51
263.70
261.44
247.78
225.56
197.95
168.30
139.80
115.02
95.52
81.51
71.80
64.07
55.83
45.12
31.45
15.71
-0.35
-14.85
-26.63
-35.60
-42.46
-48.16
-53.27
-57.45
-59.55
-57.99
-51.42
-39.28
-21.94
-0.48
23.88
50.22
77.95
106.55
134.98
161.45
183.36
197.94
202.91
197.07
180.53
154.58
121.33
83.37
43.57
4.96
-29.45
-56.86
-75.17
-83.52
-82.62
-75.07
-64.98
-57.17
-55.96
-63.90
-80.97
-104.43
-129.55
-150.86
-163.84
-165.96
-157.41
-140.80
-120.24
-100.19
-84.12
-73.68
-68.59
-66.97
-66.23
-63.96
-58.69
-50.09
-38.94
-26.65
-14.94
-5.49
0.31
1.65
-1.53
-8.47
-17.66
-27.33
-35.85
-42.20
-46.05
-47.58
-46.96
-44.16
-38.69
-29.84
-17.09
-0.56
18.71
38.81
57.28
71.77
80.54
83.13
80.39
74.23
66.99
60.57
55.95
52.97
50.64
47.76
43.60
38.16
32.10
26.46
22.10
19.46
18.35
18.17
18.10
17.49
16.16
14.26
12.40
11.17
11.10
12.24
14.23
16.37
17.84
18.06
16.77
14.17
10.65
6.74
2.81
-1.04
-4.83
-8.58
-12.27
-15.80
-19.14
-22.44
-25.85
-29.47
-33.04
-35.91
-37.15
-35.87
-31.53
-24.17
-14.44
-3.47
7.55
17.60
26.02
32.43
36.85
39.42
40.34
39.98
38.66
36.90
35.25
34.21
34.05
34.72
35.82
36.66
36.46
34.50
30.35
23.97
15.73
6.45
-2.89
-11.21
-17.65
-21.79
-23.74
-24.00
-23.27
-22.30
-21.51
-21.14
-21.23
-21.84
-22.95
-24.64
-26.89
-29.52
-32.28
-34.83
-36.96
-38.56
-39.69
-40.30
-40.25
-39.13
-36.37
-31.42
-23.90
-13.91
-2.06
10.59
22.69
33.03
40.80
45.72
47.97
48.02
46.43
43.67
40.22
36.43
32.75
29.61
27.33
26.04
25.70
26.08
26.78
27.33
27.19
25.84
22.84
18.13
11.88
4.72
-2.62
-9.40
-15.09
-19.53
-22.81
-25.24
-27.10
-28.68
-30.20
-31.95
-34.22
-37.16
-40.72
-44.56
-48.11
-50.78
-52.06
-51.71
-49.75
-46.34
-41.58
-35.49
-27.98
-19.02
-8.80
2.19
13.16
23.31
31.93
38.69
43.55
46.70
48.35
48.58
47.43
44.84
41.04
36.39
31.40
26.50
21.88
17.54
13.32
9.20
5.31
1.93
-0.65
-2.36
-3.51
-4.65
-6.30
-8.86
-12.39
-16.59
-20.92
-24.94
-28.44
-31.53
-34.48
-37.64
-41.28
-45.44
-50.01
-54.73
-59.26
-63.26
-66.19
-67.52
-66.64
-63.14
-56.89
-48.14
-37.63
-26.30
-15.19
-5.16
3.20
9.65
14.26
17.31
19.13
20.01
20.16
19.76
18.98
18.06
17.16
16.51
16.20
16.21
16.38
16.46
16.15
15.33
13.94
12.03
9.68
6.81
3.34
-0.91
-5.88
-11.47
-17.25
-22.85
-27.90
-32.27
-36.00
-39.09
-41.54
-43.14
-43.63
-42.66
-39.80
-34.57
-26.51
-15.36
-1.35
14.50
30.47
44.44
54.47
59.56
59.92
57.08
53.11
49.99
48.74
49.11
49.65
48.10
42.28
30.78
13.70
-7.33
-29.15
-48.01
-60.42
-64.25
-59.53
-48.25
-33.90
-20.10
-9.65
-3.61
-1.31
-0.98
-0.71
0.54
2.60
4.23
3.95
0.87
-4.71
-11.25
-16.68
-19.33
-18.86
-16.59
-15.13
-17.34
-25.25
-39.16
-57.44
-76.84
-93.20
-102.38
-100.97
-87.01
-60.52
-23.80
18.77
61.39
98.04
124.03
136.95
137.25
127.58
111.69
92.96
73.55
53.99
33.72
12.09
-10.97
-34.28
-55.50
-71.60
-79.82
-78.44
-67.56
-49.22
-27.02
-5.32
11.75
21.32
22.38
15.89
4.49
-8.34
-19.15
-25.31
-25.59
-20.27
-10.81
0.72
12.26
22.37
30.34
36.25
40.75
44.66
48.68
53.10
57.65
61.58
63.82
63.39
59.71
52.86
43.63
33.27
23.17
14.52
8.14
4.24
2.45
1.93
1.57
0.35
-2.31
-6.42
-11.42
-16.45
-20.78
-24.20
-27.06
-30.02
-33.70
-38.27
-43.49
-48.73
-53.25
-56.55
-58.74
-60.51
-62.92
-66.91
-72.63
-79.10
-84.26
-85.49
-80.47
-68.05
-48.69
-24.48
1.55
26.29
47.20
62.78
72.53
76.76
76.32
72.40
66.34
59.46
53.08
48.13
45.13
43.92
43.75
43.52
42.11
38.72
33.10
25.75
17.81
10.77
6.07
4.61
6.57
11.28
17.42
23.53
28.53
31.90
33.80
34.66
34.71
33.89
31.72
27.77
21.94
14.62
6.48
-1.78
-9.80
-17.77
-26.06
-35.03
-44.64
-54.41
-63.46
-70.62
-74.49
-73.55
-66.49
-52.53
-31.92
-6.22
21.93
49.37
73.28
91.82
104.40
111.36
113.46
111.34
105.33
95.71
83.12
68.89
55.14
44.13
37.75
36.71
40.17
46.05
51.60
54.31
52.64
46.32
36.10
23.43
9.73
-3.92
-16.97
-29.25
-40.87
-52.06
-63.06
-74.01
-84.80
-95.02
-103.94
-110.71
-114.57
-115.12
-112.59
-107.66
-101.39
-94.96
-89.12
-84.00
-78.96
-72.75
-63.93
-51.55
-35.64
-17.36
1.16
17.55
29.95
37.38
39.93
38.45
34.15
28.26
21.87
15.76
10.50
6.58
4.31
3.84
5.12
7.72
10.89
13.62
14.84
13.85
10.52
5.28
-0.94
-7.09
-12.43
-16.57
-19.69
-22.40
-25.52
-30.01
-36.82
-46.42
-58.68
-72.67
-86.76
-99.10
-108.24
-113.70
-116.18
-117.24
-118.38
-120.25
-122.25
-122.79
-120.26
-113.99
-104.80
-94.70
-86.09
-80.62
-78.31
-77.40
-74.54
-65.56
-46.46
-14.19
32.51
92.65
162.89
238.22
312.72
380.70
437.69
481.08
510.17
525.48
527.59
515.96
488.82
444.32
382.32
306.00
221.97
138.61
63.41
0.53
-49.33
-87.10
-113.04
-125.90
-124.16
-109.14
-86.95
-67.85
-62.88
-79.33
-118.05
-173.40
-235.44
-293.10
-336.86
-360.16
-360.07
-337.76
-298.14
-248.95
-198.81
-154.54
-119.30
-92.52
-71.66
-54.20
-39.33
-27.66
-20.20
-16.95
-16.39
-16.00
-13.45
-7.58
1.28
11.48
20.91
27.80
31.31
31.72
30.08
27.60
25.23
23.36
21.83
20.34
18.70
16.92
15.22
13.68
11.97
9.40
5.15
-1.41
-10.28
-20.82
-32.03
-42.72
-51.99
-59.15
-63.59
-64.70
-61.78
-54.21
-41.95
-25.70
-7.04
11.86
28.85
42.21
51.03
55.28
55.69
53.45
50.05
46.88
45.04
45.06
46.76
49.24
51.21
51.41
49.01
44.01
37.05
29.16
21.35
14.22
7.93
2.45
-2.23
-6.07
-8.80
-10.23
-10.35
-9.46
-8.01
-6.65
-5.90
-6.09
-7.46
-10.05
-13.84
-18.69
-24.36
-30.42
-36.28
-41.41
-45.26
-47.56
-48.30
-47.67
-46.03
-43.58
-40.22
-35.53
-28.90
-19.89
-8.61
4.05
16.51
26.86
33.58
36.08
34.92
31.62
28.09
25.60
24.41
23.64
21.68
17.20
9.82
0.37
-9.34
-17.36
-22.57
-25.08
-25.90
-26.24
-26.56
-26.22
-23.75
-17.51
-6.39
9.81
30.32
53.63
77.53
99.14
115.23
123.01
121.06
110.33
94.03
76.72
62.38
52.85
47.02
41.47
32.30
17.10
-3.79
-27.08
-47.83
-61.47
-65.48
-60.47
-49.66
-37.38
-27.16
-20.35
-15.99
-11.74
-5.70
2.43
10.87
16.75
17.54
12.44
2.83
-8.22
-17.33
-21.96
-21.16
-15.55
-6.63
3.89
14.54
24.27
32.31
37.88
40.34
39.33
35.04
28.48
21.14
14.58
9.64
6.26
3.30
-0.76
-7.11
-15.97
-26.22
-35.66
-41.79
-42.82
-38.29
-29.65
-19.64
-11.62
-8.45
-11.49
-20.18
-32.21
-44.32
-53.17
-56.40
-52.96
-43.35
-29.21
-12.87
3.22
16.99
27.09
33.01
35.08
34.35
32.09
29.39
26.72
23.75
19.48
12.91
3.60
-7.78
-19.44
-29.05
-34.56
-34.94
-30.55
-22.80
-13.43
-4.02
4.39
11.13
15.63
17.32
15.94
11.84
6.23
1.05
-1.75
-1.09
2.72
7.81
11.57
11.59
6.70
-2.58
-14.31
-25.87
-34.95
-40.24
-41.90
-41.19
-40.15
-40.73
-44.12
-50.30
-58.12
-65.46
-69.90
-69.63
-64.01
-54.16
-42.65
-32.84
-27.38
-26.91
-29.21
-29.71
-23.05
-5.31
24.43
63.73
107.66
150.51
186.98
212.95
225.50
223.08
205.69
175.57
137.26
96.79
60.17
31.57
12.19
0.34
-7.29
-14.14
-22.57
-33.29
-45.84
-59.19
-72.48
-85.50
-98.51
-111.94
-125.72
-138.82
-148.82
-152.48
-146.33
-128.01
-97.25
-56.19
-8.92
39.58
84.36
121.41
147.44
160.22
158.45
142.47
114.90
80.86
47.24
20.86
6.41
4.78
13.02
25.46
35.82
39.33
34.09
21.22
4.03
-13.40
-27.60
-36.44
-39.38
-37.21
-31.60
-24.64
-18.58
-15.44
-16.68
-22.90
-33.36
-46.16
-58.68
-68.33
-73.36
-73.32
-68.97
-61.87
-53.66
-45.44
-37.43
-29.24
-20.28
-10.24
0.52
10.99
19.87
25.93
28.52
27.76
24.43
19.83
15.38
12.42
11.91
14.27
19.36
26.62
35.36
45.06
55.73
67.81
82.01
98.63
117.03
135.20
150.07
158.28
157.52
147.43
130.07
109.28
89.31
73.37
62.47
55.36
49.23
41.00
28.44
10.85
-10.92
-34.91
-58.83
-80.55
-98.63
-112.35
-121.48
-126.11
-126.34
-122.37
-114.48
-103.35
-90.04
-76.08
-63.21
-53.07
-46.79
-44.80
-46.62
-51.05
-56.22
-60.13
-61.05
-57.87
-50.38
-39.26
-25.92
-12.10
0.42
10.42
17.29
21.13
22.51
22.27
21.05
19.20
16.70
13.25
8.58
2.68
-4.03
-10.87
-16.91
-21.27
-23.34
-22.87
-20.00
-15.28
-9.57
-4.04
0.08
1.59
-0.19
-5.35
-13.15
-22.23
-30.99
-38.01
-42.48
-44.32
-44.19
-43.14
-42.26
-42.25
-43.31
-44.98
-46.48
-46.86
-45.32
-41.36
-34.90
-26.20
-15.92
-5.12
4.95
12.88
17.61
18.64
16.16
11.04
4.41
-2.62
-9.21
-14.87
-19.38
-22.73
-24.98
-26.44
-27.57
-28.93
-30.97
-33.70
-36.69
-39.24
-40.73
-40.90
-39.87
-37.81
-34.40
-28.43
-17.91
-0.78
24.05
55.83
91.87
127.98
159.71
183.40
196.93
200.02
193.83
180.50
162.68
142.99
123.56
105.62
89.28
73.49
56.62
37.18
14.65
-10.13
-34.89
-56.72
-72.82
-81.23
-81.50
-74.64
-62.83
-48.84
-35.40
-24.76
-18.29
-16.39
-18.44
-23.15
-28.89
-34.17
-38.02
-40.08
-40.58
-40.12
-39.25
-38.38
-37.66
-37.01
-36.36
-35.71
-35.27
-35.34
-36.28
-38.24
-41.18
-44.63
-47.49
-48.15
-44.67
-35.38
-19.38
2.75
28.81
55.20
77.63
92.30
96.77
90.51
74.86
52.62
27.32
2.50
-18.72
-34.06
-42.21
-42.94
-37.12
-26.59
-13.84
-1.46
8.25
13.77
14.49
10.64
2.97
-7.28
-18.74
-30.00
-39.73
-46.87
-50.72
-51.20
-48.86
-44.88
-40.62
-37.36
-35.79
-35.80
-36.42
-36.13
-33.36
-26.92
-16.39
-2.19
14.37
31.60
47.71
61.29
71.52
78.21
81.71
82.52
81.13
77.59
71.80
63.60
53.04
40.60
27.21
14.17
2.75
-5.99
-11.47
-13.69
-13.03
-10.31
-6.45
-2.52
0.59
2.11
1.66
-0.72
-4.43
-8.40
-11.43
-12.43
-11.00
-7.49
-3.04
0.86
2.75
1.84
-1.65
-6.55
-10.81
-12.21
-8.88
0.11
14.43
32.61
52.42
71.38
87.32
98.74
104.93
106.12
103.16
97.23
89.66
81.38
72.89
64.26
55.41
46.40
37.59
29.59
22.78
17.15
12.00
6.28
-1.12
-10.85
-22.86
-36.53
-50.67
-63.93
-74.98
-82.97
-87.69
-89.68
-90.11
-90.33
-91.39
-93.63
-96.68
-99.70
-101.98
-103.26
-103.58
-103.11
-101.67
-98.57
-92.85
-83.75
-71.15
-55.69
-38.58
-21.11
-4.27
11.38
25.42
37.27
45.99
50.44
49.73
43.68
33.03
19.34
4.49
-9.78
-22.34
-32.83
-41.37
-48.28
-53.81
-58.08
-61.16
-63.32
-65.15
-67.60
-71.59
-77.68
-85.55
-93.97
-101.29
-106.09
-107.82
-107.15
-105.43
-103.87
-102.87
-101.60
-98.40
-91.31
-78.62
-58.90
-31.11
5.71
51.76
106.07
166.06
227.70
286.66
339.36
384.05
420.18
447.15
462.61
462.04
440.15
393.40
322.73
234.59
139.76
50.09
-25.10
-81.60
-120.60
-146.50
-164.14
-176.30
-183.12
-183.12
-175.30
-160.68
-142.55
-125.43
-113.07
-106.92
-105.63
-106.01
-104.61
-99.45
-90.56
-79.52
-68.36
-58.46
-50.05
-42.55
-35.32
-28.11
-21.49
-16.38
-13.55
-13.26
-14.97
-17.75
-20.59
-22.66
-23.32
-22.27
-19.23
-14.09
-6.96
1.79
11.34
20.40
27.52
31.46
31.55
28.18
22.87
17.91
15.77
18.17
25.49
36.40
48.39
58.48
64.22
64.50
59.54
50.82
40.21
29.49
19.67
11.06
3.47
-3.34
-9.36
-14.28
-17.40
-18.09
-15.95
-11.17
-4.54
2.56
8.37
11.15
9.52
2.91
-8.21
-22.41
-37.71
-51.92
-63.35
-71.09
-74.96
-75.39
-72.84
-67.64
-59.93
-49.85
-37.85
-24.90
-12.25
-1.17
7.48
13.54
17.35
19.46
20.19
19.50
16.98
12.34
5.73
-2.13
-9.90
-15.93
-18.69
-17.09
-10.78
-0.37
12.51
25.60
36.59
44.16
48.58
51.67
55.83
62.54
71.23
78.97
81.40
74.13
54.35
21.59
-21.90
-71.73
-121.99
-166.21
-198.54
-214.99
-214.70
-200.42
-177.94
-154.26
-135.26
-123.65
-118.08
-113.78
-104.35
-83.99
-49.55
-1.78
54.84
113.20
165.60
205.79
230.59
240.53
239.28
232.13
223.87
217.26
212.24
206.47
196.98
181.79
161.32
138.31
116.99
101.59
95.01
98.20
110.00
127.86
148.40
168.05
183.41
191.53
190.08
177.77
154.70
122.78
86.05
