1563890748.00
64.000000
-0.00
-0.00
-0.00
-0.00
-0.00
-0.00
-0.00
-0.00
-0.00
-0.00
0.00
0.01
0.01
-0.00
-0.03
-0.05
-0.05
0.00
0.13
0.36
0.66
1.01
1.37
1.72
2.06
2.40
2.79
3.24
3.80
4.43
5.09
5.73
6.32
6.89
7.49
8.20
9.07
10.19
11.50
12.88
14.22
15.48
16.71
18.03
19.64
21.66
24.28
27.31
30.53
33.69
36.67
39.56
42.67
46.39
50.99
56.83
63.60
70.82
78.03
84.94
91.64
98.59
106.38
115.48
126.38
138.64
151.62
164.62
177.22
189.49
201.92
215.62
229.05
244.38
262.31
283.27
306.46
329.29
347.44
355.98
350.98
331.05
298.29
256.78
211.45
166.30
123.43
83.09
44.51
6.87
-30.10
-65.83
-99.80
-131.40
-160.30
-186.50
-210.31
-232.33
-253.20
-273.64
-294.24
-315.71
-338.74
-363.47
-388.76
-411.74
-428.12
-433.62
-425.74
-405.09
-375.54
-342.69
-311.50
-284.49
-261.15
-239.18
-216.39
-192.24
-168.21
-146.64
-129.23
-115.79
-104.48
-92.81
-79.21
-63.84
-48.57
-35.74
-26.91
-21.72
-18.21
-13.71
-6.47
3.35
13.61
21.36
24.55
23.22
19.69
17.29
18.54
23.73
30.76
36.28
37.79
34.99
30.08
26.31
26.16
29.77
34.86
38.19
37.34
32.40
25.68
20.66
19.77
23.21
28.67
32.77
32.87
28.69
22.28
16.86
14.93
16.84
20.70
23.57
23.16
19.30
13.83
9.72
9.15
12.33
17.26
20.84
20.75
16.67
10.72
5.96
4.91
7.92
12.99
17.07
17.69
14.62
9.76
6.11
5.72
8.67
12.82
15.28
14.09
9.40
3.50
-0.55
-0.60
3.23
8.72
12.63
12.57
8.30
1.84
-3.67
-5.71
-3.85
0.16
3.35
3.42
-0.08
-5.28
-9.34
-10.03
-7.10
-2.52
0.72
0.31
-3.92
-10.00
-14.77
-15.88
-12.99
-8.18
-4.54
-4.45
-8.17
-13.64
-17.78
-18.20
-14.74
-9.40
-5.22
-4.48
-7.29
-11.63
-14.49
-13.64
-8.94
-2.50
2.48
3.55
0.40
-4.89
-9.06
-9.50
-5.64
0.62
6.09
8.08
5.94
1.30
-2.90
-4.23
-2.11
1.86
5.01
5.26
2.39
-1.79
-4.54
-3.81
0.46
6.36
10.98
12.12
9.51
4.98
1.36
0.90
4.09
9.44
14.35
16.64
15.64
12.45
9.16
7.63
8.42
10.55
12.19
11.83
9.32
5.94
3.82
4.50
8.07
12.93
16.69
17.51
15.17
11.19
7.92
7.18
9.07
12.01
13.61
12.26
8.07
3.03
-0.19
0.27
4.30
9.84
13.85
14.17
10.52
4.85
0.08
-1.42
0.75
4.91
8.24
8.58
5.61
1.10
-2.21
-2.22
1.22
6.21
9.91
10.19
6.86
1.87
-1.91
-2.35
0.75
5.57
9.33
9.96
7.23
2.87
-0.56
-1.12
1.35
5.19
7.88
7.57
4.08
-0.89
-4.91
-6.04
-3.99
-0.16
3.18
4.29
2.79
-0.14
-2.62
-3.14
-1.52
1.15
3.11
3.04
0.78
-2.52
-5.13
-5.65
-3.85
-0.72
2.06
3.09
1.99
-0.40
-2.66
-3.53
-2.71
-0.93
0.51
0.54
-0.98
-3.18
-4.61
-4.12
-1.45
2.41
5.85
7.35
6.44
3.91
1.49
0.76
2.36
5.49
8.46
9.69
8.63
6.04
3.49
2.36
3.05
4.75
6.06
5.81
3.80
0.94
-1.30
-1.69
-0.02
2.78
5.09
5.47
3.53
0.15
-2.87
-3.88
-2.26
1.11
4.36
5.63
4.13
0.63
-2.97
-4.72
-3.70
-0.56
2.83
4.43
3.21
-0.30
-4.22
-6.43
-5.75
-2.63
1.09
3.41
3.27
1.31
-0.63
-0.64
1.94
6.04
9.46
10.21
7.74
3.35
-0.58
-1.92
-0.02
3.93
7.60
8.93
7.20
3.44
-0.34
-2.22
-1.52
0.99
3.53
4.45
3.17
0.44
-2.13
-3.05
-1.80
0.84
3.34
4.29
3.27
1.04
-0.88
-1.17
0.46
3.05
4.92
4.65
1.99
-1.93
-5.20
-6.19
-4.43
-0.97
2.30
3.59
2.30
-0.68
-3.57
-4.66
-3.41
-0.72
1.60
1.82
-0.58
-4.55
-7.99
-8.94
-6.55
-1.76
3.33
6.42
6.37
3.65
0.07
-2.23
-1.98
0.58
3.97
6.37
6.80
5.58
4.18
4.13
6.11
9.33
12.11
12.75
10.75
7.09
3.84
2.93
5.12
9.41
13.61
15.35
13.39
8.15
1.54
-4.06
-6.92
-6.75
-4.65
-2.42
-1.44
-1.95
-3.02
-3.24
-1.77
0.89
3.16
3.15
0.00
-5.50
-11.18
-14.80
-15.34
-13.78
-12.53
-13.99
-18.81
-25.34
-30.28
-30.60
-25.32
-16.27
-7.22
-2.03
-2.65
-8.46
-16.86
-24.98
-31.07
-35.02
-37.55
-38.99
-38.41
-33.95
-24.12
-9.21
8.14
23.56
32.84
33.74
27.03
16.12
5.47
-1.36
-3.09
-0.89
2.60
4.86
4.77
2.96
1.23
1.25
3.56
7.12
9.97
10.44
8.17
4.40
1.41
1.08
3.91
8.56
12.68
14.14
12.20
7.91
3.47
0.99
1.42
4.03
7.00
8.38
7.29
4.27
1.07
-0.48
0.57
3.68
7.16
9.09
8.45
5.78
2.77
1.33
2.32
5.03
7.59
8.15
6.02
2.16
-1.39
-2.69
-1.14
2.18
5.19
6.01
4.12
0.62
-2.46
-3.32
-1.56
1.72
4.43
4.86
2.62
-1.08
-4.08
-4.50
-1.87
2.59
6.60
8.01
6.02
1.61
-3.05
-5.68
-5.20
-2.18
1.46
3.61
3.16
0.60
-2.26
-3.48
-2.10
1.14
4.28
5.22
3.11
-1.06
-4.97
-6.27
-4.01
0.75
5.44
7.48
5.85
1.64
-2.52
-4.02
-1.91
2.61
6.77
7.88
5.00
-0.52
-5.77
-7.93
-6.00
-1.25
3.48
5.49
3.80
-0.27
-4.02
-4.97
-2.39
2.26
6.25
7.07
4.05
-1.32
-6.20
-8.04
-5.94
-1.25
3.31
5.06
3.01
-1.69
-6.24
-7.95
-5.62
-0.33
5.19
8.08
6.99
2.86
-1.74
-4.04
-2.90
0.69
4.16
5.01
2.33
-2.46
-6.66
-7.69
-4.79
0.64
5.75
7.99
6.35
2.07
-2.28
-4.12
-2.42
1.91
6.36
8.34
6.49
1.57
-3.99
-7.40
-7.06
-3.49
0.97
3.51
2.64
-0.95
-4.77
-6.01
-3.47
1.65
6.39
7.78
4.61
-1.71
-8.04
-11.18
-9.75
-4.83
0.75
4.08
3.80
0.80
-2.49
-3.57
-1.53
2.54
6.13
6.90
4.13
-0.70
-4.68
-5.18
-1.38
5.02
10.73
12.61
9.63
3.34
-2.89
-5.89
-4.44
0.12
4.69
6.41
4.23
-0.48
-4.87
-6.40
-4.21
0.21
4.16
5.23
2.86
-1.51
-5.17
-5.83
-2.86
2.25
6.79
8.23
5.64
0.20
-5.34
-8.25
-7.29
-3.34
0.96
2.81
0.90
-3.78
-8.50
-10.31
-7.89
-2.29
3.56
6.54
5.24
0.74
-4.05
-6.08
-3.99
1.10
6.31
8.74
7.14
2.58
-2.18
-4.41
-2.91
1.15
5.14
6.47
4.28
-0.16
-4.11
-5.05
-2.30
2.69
6.96
7.99
4.99
-0.44
-5.37
-7.10
-4.84
-0.11
4.16
5.31
2.61
-2.51
-7.15
-8.76
-6.53
-1.83
2.59
4.26
2.37
-1.77
-5.53
-6.51
-3.96
0.73
4.81
5.76
2.82
-2.58
-7.53
-9.30
-6.97
-1.80
3.30
5.67
4.25
0.28
-3.61
-4.87
-2.66
1.84
6.06
7.59
5.68
1.45
-2.56
-4.05
-2.18
1.85
5.57
6.59
4.07
-0.78
-5.34
-7.09
-5.00
-0.23
4.53
6.60
4.90
0.56
-3.68
-5.06
-2.55
2.60
7.46
9.19
6.72
1.45
-3.60
-5.43
-3.10
1.94
6.50
7.62
4.31
-1.82
-7.50
-9.75
-7.52
-2.39
2.56
4.46
2.41
-2.06
-5.94
-6.68
-3.58
1.62
5.92
6.74
3.53
-1.86
-6.36
-7.29
-4.11
1.38
6.03
7.17
4.20
-1.05
-5.48
-6.39
-3.19
2.34
7.08
8.36
5.51
0.15
-4.69
-6.48
-4.44
0.02
4.26
5.86
4.13
0.37
-2.87
-3.42
-0.75
3.67
7.17
7.42
3.85
-1.89
-6.87
-8.37
-5.59
-0.05
5.17
7.18
4.89
-0.26
-5.28
-7.29
-5.26
-0.60
3.70
4.88
2.07
-3.11
-7.46
-8.16
-4.51
1.71
7.19
9.02
6.36
0.89
-4.28
-6.37
-4.59
-0.47
3.07
3.57
0.43
-4.60
-8.56
-9.00
-5.42
0.33
5.22
6.73
4.33
-0.18
-3.78
-4.02
-0.52
4.80
8.83
9.11
5.23
-0.90
-6.18
-8.00
-5.68
-0.76
3.88
5.70
3.81
-0.51
-4.71
-6.37
-4.67
-0.70
3.09
4.50
2.82
-0.70
-3.67
-4.00
-1.24
3.07
6.26
6.19
2.51
-2.92
-7.20
-7.94
-4.68
0.82
5.60
7.17
4.93
0.40
-3.63
-4.86
-2.71
1.31
4.61
5.16
2.64
-1.33
-4.22
-4.08
-0.82
3.82
7.16
7.28
4.05
-0.77
-4.57
-5.35
-2.93
1.08
4.15
4.29
1.17
-3.61
-7.49
-8.26
-5.42
-0.42
4.03
5.50
3.28
-1.27
-5.43
-6.77
-4.47
0.11
4.31
5.73
3.77
-0.13
-3.25
-3.45
-0.39
4.18
7.52
7.48
3.94
-1.22
-5.10
-5.52
-2.27
2.75
6.62
7.00
3.54
-1.99
-6.61
-7.93
-5.36
-0.49
3.90
5.42
3.56
-0.14
-2.98
-2.86
0.44
4.97
7.93
7.13
2.58
-3.62
-8.28
-9.06
-5.69
-0.21
4.30
5.35
2.47
-2.56
-6.80
-7.83
-5.13
-0.31
3.80
4.86
2.37
-2.00
-5.40
-5.49
-1.86
3.65
7.99
8.67
5.21
-0.53
-5.49
-7.06
-4.68
-0.07
3.85
4.69
2.01
-2.44
-5.78
-5.79
-2.22
3.05
7.04
7.53
4.28
-0.76
-4.65
-5.06
-1.72
3.56
7.79
8.56
5.34
-0.30
-5.53
-7.91
-6.59
-2.82
0.96
2.45
0.92
-2.41
-5.18
-5.30
-2.38
2.13
5.51
5.68
2.33
-2.67
-6.38
-6.49
-2.76
2.91
7.44
8.39
5.39
0.22
-4.20
-5.57
-3.49
0.45
3.64
4.06
1.48
-2.47
-5.29
-5.15
-1.97
2.46
5.64
5.72
2.66
-1.68
-4.69
-4.57
-1.44
2.74
5.28
4.45
0.47
-4.45
-7.43
-6.62
-2.22
3.46
7.49
7.79
4.49
-0.37
-3.93
-4.23
-1.33
2.77
5.33
4.52
0.45
-4.72
-8.14
-7.83
-3.93
1.38
5.13
5.30
1.97
-2.64
-5.50
-4.58
0.05
6.20
10.74
11.46
8.16
2.79
-1.73
-3.19
-1.28
2.31
4.93
4.59
1.17
-3.55
-6.98
-7.21
-4.31
-0.15
2.66
2.33
-1.07
-5.53
-8.43
-7.93
-4.17
0.89
4.50
4.79
1.76
-2.64
-5.69
-5.50
-2.07
2.65
5.85
5.54
1.71
-3.58
-7.34
-7.45
-3.82
1.51
5.52
6.11
3.12
-1.39
-4.58
-4.40
-0.96
3.60
6.38
5.52
1.29
-3.94
-7.17
-6.49
-2.17
3.51
7.58
8.09
5.20
1.00
-1.82
-1.57
1.45
5.20
7.05
5.53
1.14
-3.87
-6.77
-6.01
-2.10
2.61
5.37
4.56
0.68
-3.88
-6.28
-4.85
-0.13
5.45
8.88
8.25
3.79
-2.30
-7.06
-8.44
-6.30
-2.40
0.71
1.21
-0.98
-4.16
-6.05
-5.09
-1.53
2.78
5.37
4.72
1.13
-3.31
-5.92
-4.99
-0.78
4.46
7.84
7.37
3.24
-2.32
-6.31
-6.65
-3.42
1.29
4.61
4.69
1.77
-2.00
-3.95
-2.54
1.65
6.21
8.27
6.23
0.72
-5.71
-9.96
-10.12
-6.39
-1.06
2.95
3.60
1.02
-2.75
-4.94
-3.77
0.37
5.14
7.53
5.83
0.66
-5.25
-8.65
-7.68
-2.91
2.99
6.85
6.89
3.68
-0.31
-2.22
-0.57
3.90
8.69
11.00
9.37
4.56
-0.98
-4.43
-4.24
-0.92
3.19
5.43
4.12
-0.19
-5.23
-8.17
-7.25
-2.89
2.66
6.45
6.69
3.67
-0.38
-2.70
-1.63
2.39
7.15
9.91
9.08
5.15
0.37
-2.58
-2.15
1.21
5.40
7.88
7.16
3.69
-0.41
-2.61
-1.37
2.95
8.20
11.76
11.88
8.86
4.75
2.46
4.02
9.53
16.79
22.28
22.74
16.69
5.30
-8.41
-20.96
-30.25
-36.02
-39.47
-41.61
-42.18
-39.48
-31.69
-18.61
-2.74
11.32
18.96
17.87
9.29
-2.58
-12.76
-17.89
-17.57
-14.10
-10.82
-10.02
-11.76
-14.00
-13.97
-10.09
-2.98
4.69
9.83
10.62
7.74
3.85
2.09
4.15
9.26
14.68
17.23
15.31
9.69
3.21
-0.97
-1.00
2.59
7.31
10.13
9.26
5.03
-0.29
-3.91
-4.11
-1.16
2.86
5.41
4.97
1.99
-1.52
-3.12
-1.49
2.77
7.40
9.81
8.49
4.00
-1.32
-4.63
-4.17
-0.36
4.51
7.46
6.70
2.56
-2.53
-5.65
-5.05
-1.23
3.33
5.70
4.26
-0.31
-5.41
-8.06
-6.66
-1.86
3.74
7.22
6.86
3.22
-1.48
-4.48
-4.24
-1.13
2.69
4.70
3.42
-0.64
-5.31
-7.98
-7.11
-3.19
1.62
4.61
4.23
0.87
-3.27
-5.60
-4.54
-0.57
4.06
6.71
5.82
1.91
-2.79
-5.56
-4.89
-1.19
3.33
6.02
5.28
1.60
-2.82
-5.29
-4.18
0.03
5.02
7.89
6.84
2.27
-3.42
-7.18
-7.04
-3.30
1.76
5.10
4.90
1.48
-2.76
-4.96
-3.51
0.90
5.65
7.85
6.01
1.10
-4.09
-6.53
-4.82
0.07
5.25
7.68
5.87
0.81
-4.70
-7.68
-6.58
-2.30
2.55
5.06
3.83
-0.39
-4.99
-7.19
-5.57
-0.94
4.16
6.88
5.84
1.71
-3.06
-5.72
-4.77
-0.83
3.85
6.55
5.76
1.96
-2.67
-5.47
-5.00
-1.69
2.21
4.11
2.53
-1.89
-6.74
-9.18
-7.65
-2.82
2.70
5.86
4.98
0.68
-4.36
-6.99
-5.43
-0.28
5.81
9.60
9.22
5.11
-0.23
-3.78
-3.71
-0.43
3.79
6.15
5.10
1.18
-3.32
-5.78
-4.87
-1.35
2.36
3.70
1.64
-2.71
-6.62
-7.47
-4.31
1.48
6.85
8.87
6.47
0.97
-4.64
-7.41
-6.19
-1.99
2.56
4.91
3.98
0.67
-2.79
-4.21
-2.72
0.85
4.40
5.87
4.38
0.79
-2.79
-4.14
-2.29
1.93
6.21
8.04
6.27
1.74
-3.04
-5.38
-4.00
0.20
4.61
6.49
4.60
-0.07
-4.89
-7.12
-5.62
-1.34
3.20
5.44
4.27
0.55
-3.44
-5.42
-4.38
-1.17
2.09
3.26
1.45
-2.43
-6.17
-7.49
-5.45
-1.02
3.40
5.32
3.64
-0.70
-5.19
-7.20
-5.52
-1.10
3.50
5.51
3.68
-1.08
-6.09
-8.51
-6.87
-2.00
3.50
6.69
6.02
2.13
-2.58
-5.28
-4.42
-0.57
3.84
6.09
4.71
0.34
-4.55
-7.20
-6.04
-1.68
3.62
7.07
7.12
4.14
0.19
-2.28
-1.88
0.94
4.22
5.68
4.18
0.43
-3.44
-5.09
-3.44
0.60
4.67
6.27
4.32
-0.21
-4.82
-6.89
-5.31
-1.01
3.47
5.56
4.18
0.34
-3.45
-4.73
-2.51
2.04
6.43
8.12
6.18
1.69
-2.78
-4.81
-3.35
0.56
4.42
5.74
3.40
-1.68
-7.00
-9.82
-8.69
-4.23
1.23
4.88
5.13
2.35
-1.29
-3.23
-2.05
1.67
5.69
7.45
5.72
1.31
-3.26
-5.38
-3.88
0.18
4.23
5.62
3.47
-1.01
-5.06
-6.17
-3.51
1.44
5.83
7.03
4.16
-1.43
-6.91
-9.52
-8.06
-3.47
1.75
4.93
4.64
1.41
-2.62
-4.93
-4.14
-0.67
3.35
5.50
4.48
1.00
-2.71
-4.13
-2.16
2.20
6.38
7.79
5.46
0.59
-4.11
-6.09
-4.33
-0.06
4.13
5.71
3.75
-0.59
-4.79
-6.45
-4.60
-0.33
3.88
5.57
3.72
-0.74
-5.30
-7.38
-5.79
-1.46
3.08
5.18
3.66
-0.48
-4.66
-6.18
-3.94
0.90
5.55
7.20
4.71
-0.67
-6.02
-8.45
-6.69
-1.89
3.23
5.85
4.77
0.96
-3.04
-4.74
-3.09
0.86
4.72
6.11
4.18
0.01
-3.97
-5.41
-3.44
0.82
4.89
6.34
4.21
-0.40
-4.92
-6.78
-4.82
-0.09
4.80
7.08
5.50
0.99
-3.79
-6.13
-4.71
-0.48
3.95
5.86
4.04
-0.50
-5.08
-6.97
-4.98
-0.14
4.84
7.24
5.79
1.46
-3.26
-5.76
-4.94
-1.64
1.76
2.94
1.01
-2.86
-6.26
-6.88
-4.01
1.04
5.56
7.10
4.86
0.21
-4.04
-5.33
-2.80
2.19
6.82
8.47
6.14
1.10
-3.96
-6.35
-5.02
-1.00
3.12
4.80
2.98
-1.31
-5.53
-7.21
-5.38
-1.14
2.98
4.52
2.57
-1.60
-5.40
-6.36
-3.79
1.01
5.32
6.77
4.66
0.40
-3.35
-4.29
-1.86
2.46
6.04
6.65
3.80
-0.94
-4.90
-5.81
-3.10
1.74
6.10
7.61
5.68
1.60
-2.03
-3.00
-0.72
3.35
6.59
6.70
3.13
-2.48
-7.25
-8.54
-5.71
-0.34
4.43
5.87
3.21
-1.89
-6.25
-7.22
-4.05
1.42
6.03
7.09
4.05
-1.17
-5.34
-5.91
-2.51
2.83
6.79
6.79
2.51
-3.91
-9.11
-10.33
-7.01
-1.04
4.38
6.41
4.17
-0.75
-5.42
-7.17
-5.20
-0.90
2.90
3.87
1.37
-2.93
-6.20
-6.11
-2.33
3.20
7.45
8.04
4.62
-0.84
-5.32
-6.41
-3.72
1.10
5.30
6.65
4.60
0.52
-3.15
-4.36
-2.50
1.15
4.34
5.02
2.66
-1.46
-4.93
-5.64
-3.14
1.16
4.55
4.95
1.95
-2.58
-5.76
-5.23
-0.79
5.44
10.20
10.93
7.26
1.18
-4.10
-6.10
-4.32
-0.57
2.31
2.14
-1.15
-5.58
-8.21
-7.08
-2.34
3.67
7.79
7.85
3.98
-1.48
-5.30
-5.25
-1.42
3.96
7.62
7.31
2.96
-3.16
-7.87
-8.73
-5.48
-0.10
4.36
5.56
3.12
-1.11
-4.38
-4.60
-1.59
2.84
6.02
6.06
2.97
-1.35
-4.22
-3.77
-0.09
4.87
8.24
7.97
3.90
-1.97
-6.63
-7.57
-4.36
1.15
5.74
6.65
3.19
-2.76
-7.85
-9.10
-5.75
0.36
5.78
7.58
4.93
-0.32
-4.93
-6.20
-3.59
1.00
4.41
4.20
0.21
-5.39
-9.29
-9.07
-4.65
1.63
6.37
7.04
3.48
-2.08
-6.29
-6.66
-2.95
2.70
7.19
8.12
5.28
0.62
-2.95
-3.36
-0.50
3.67
6.42
5.87
2.12
-2.76
-5.91
-5.38
-1.29
4.22
8.14
8.38
4.93
-0.09
-3.65
-3.62
-0.01
4.91
8.06
7.20
2.48
-3.72
-8.00
-8.02
-3.79
2.25
6.71
7.12
3.39
-2.21
-6.37
-6.72
-3.14
2.17
6.08
6.42
3.24
-1.23
-3.98
-2.89
1.83
7.92
12.27
12.73
9.33
4.24
0.45
0.13
3.40
8.34
12.32
13.43
11.64
8.60
6.50
6.56
8.26
9.61
8.46
3.84
-3.21
-10.20
-14.49
-14.75
-11.64
-7.44
-4.72
-4.91
-7.59
-10.94
-12.89
-12.32
-9.83
-7.14
-6.14
-7.63
-10.89
-14.12
-15.44
-13.96
-10.21
-5.85
-2.70
-1.79
-2.79
-4.33
-4.76
-3.23
-0.19
2.81
4.01
2.59
-0.78
-4.09
-5.21
-3.10
1.54
6.51
9.29
8.43
4.35
-0.87
-4.71
-5.43
-3.06
0.82
3.95
4.81
3.40
1.21
0.21
1.62
5.15
9.12
11.56
11.30
8.73
5.43
3.24
3.05
4.38
5.71
5.47
3.04
-0.91
-4.78
-6.94
-6.61
-4.33
-1.59
-0.20
-1.24
-4.65
-9.22
-13.33
-15.74
-16.30
-15.84
-15.65
-16.54
-18.31
-19.78
-19.50
-16.64
-11.54
-5.63
-0.63
2.47
3.85
4.79
6.68
10.21
14.62
18.19
19.05
16.53
11.52
6.26
3.07
3.13
5.70
8.66
9.67
7.54
2.91
-2.12
-5.29
-5.32
-2.75
0.63
2.71
2.37
0.05
-2.55
-3.53
-1.98
1.45
4.89
6.28
4.63
0.66
-3.48
-5.51
-4.22
-0.33
3.99
6.29
5.45
2.22
-1.13
-2.25
-0.13
4.20
8.36
9.91
7.89
3.31
-1.36
-3.73
-2.77
0.53
3.90
5.05
3.17
-0.69
-4.22
-5.20
-2.87
1.59
5.70
7.15
5.05
0.47
-4.14
-6.41
-5.31
-1.77
1.99
3.65
2.20
-1.51
-5.26
-6.78
-5.05
-0.94
3.28
5.25
3.95
0.26
-3.45
-4.90
-3.13
0.82
4.55
5.74
3.58
-0.77
-4.82
-6.25
-4.25
0.00
4.04
5.58
3.83
-0.09
-3.85
-5.27
-3.60
0.06
3.45
4.53
2.65
-1.04
-4.27
-5.03
-2.71
1.43
5.11
6.20
4.13
0.03
-3.71
-4.98
-3.10
0.78
4.28
5.24
2.94
-1.40
-5.44
-6.99
-5.39
-1.84
1.30
2.00
-0.25
-4.06
-6.99
-7.04
-3.76
1.27
5.51
6.80
4.75
0.79
-2.56
-3.29
-0.97
2.97
6.22
6.87
4.68
0.96
-2.07
-2.72
-0.69
2.73
5.49
5.93
3.77
0.25
-2.54
-2.92
-0.50
3.42
6.61
7.08
4.27
-0.63
-5.18
-7.14
-5.61
-1.58
2.69
4.84
3.92
0.73
-2.63
-4.09
-2.85
0.15
2.80
3.15
0.62
-3.56
-7.04
-7.75
-5.17
-0.63
3.39
4.77
2.99
-0.52
-3.33
-3.52
-0.81
3.19
6.00
5.76
2.43
-2.23
-5.57
-5.62
-2.23
2.82
6.87
7.83
5.34
1.00
-2.66
-3.57
-1.34
2.62
5.90
6.53
4.07
-0.06
-3.54
-4.45
-2.43
1.11
3.82
3.89
1.10
-2.99
-6.02
-6.23
-3.64
0.05
2.38
1.74
-1.64
-5.85
-8.41
-7.80
-4.34
-0.03
2.71
2.42
-0.61
-4.48
-6.91
-6.47
-3.40
0.65
3.54
3.91
1.81
-1.34
-3.61
-3.66
-1.52
1.52
3.65
3.62
1.46
-1.53
-3.57
-3.39
-1.01
2.33
4.88
5.35
3.65
0.82
-1.52
-2.19
-1.05
0.85
2.04
1.42
-0.90
-3.72
-5.34
-4.62
-1.68
2.09
4.82
5.22
3.37
0.57
-1.31
-0.98
1.57
5.16
8.03
8.93
7.68
5.28
3.19
2.57
3.51
5.09
5.92
5.02
2.46
-0.68
-2.89
-3.22
-1.77
0.23
1.27
0.37
-2.22
-5.21
-7.03
-6.77
-4.78
-2.47
-1.43
-2.45
-5.06
-7.76
-8.94
-7.81
-4.86
-1.59
0.33
0.02
-2.16
-4.86
-6.53
-6.26
-4.31
-1.85
-0.32
-0.56
-2.25
-4.05
-4.36
-2.30
1.69
5.99
8.64
8.52
5.98
2.72
0.71
1.09
3.54
6.43
7.87
6.77
3.50
-0.38
-3.01
-3.29
-1.53
0.81
1.91
0.71
-2.41
-5.82
-7.57
-6.50
-3.02
1.10
3.72
3.52
0.79
-2.73
-4.89
-4.37
-1.43
2.21
4.45
4.08
1.47
-1.61
-3.11
-1.98
1.23
4.57
5.98
4.49
1.00
-2.37
-3.47
-1.44
2.73
6.84
8.64
7.20
3.24
-1.21
-3.97
-3.82
-1.07
2.66
5.30
5.49
3.24
-0.05
-2.48
-2.79
-1.13
1.00
1.66
-0.23
-4.18
-8.36
-10.65
-9.93
-6.76
-2.93
-0.48
-0.47
-2.42
-4.72
-5.54
-3.99
-0.57
3.08
5.10
4.54
1.86
-1.20
-2.71
-1.66
1.36
4.54
5.83
4.39
1.02
-2.25
-3.33
-1.45
2.41
6.13
7.63
6.14
2.59
-0.98
-2.61
-1.53
1.38
4.20
4.98
3.03
-0.72
-4.14
-5.18
-3.11
1.01
4.85
6.19
4.30
0.41
-3.03
-3.83
-1.44
2.57
5.66
5.62
2.19
-2.88
-6.78
-7.31
-4.19
0.82
4.86
5.74
3.06
-1.42
-4.95
-5.26
-2.07
2.88
6.75
7.21
3.89
-1.49
-5.99
-7.24
-4.74
-0.18
3.59
4.19
1.21
-3.58
-7.18
-7.23
-3.36
2.43
6.99
7.76
4.32
-1.32
-5.94
-6.94
-3.94
1.21
5.40
6.29
3.52
-1.03
-4.51
-4.65
-1.13
4.30
8.89
10.32
8.01
3.32
-1.25
-3.48
-2.57
0.44
3.37
4.13
2.05
-1.75
-5.00
-5.63
-3.15
1.07
4.45
4.85
1.78
-3.07
-6.91
-7.45
-4.32
0.68
4.61
5.13
1.91
-3.17
-7.17
-7.84
-4.89
-0.16
3.46
3.78
0.59
-4.31
-8.06
-8.54
-5.49
-0.75
2.87
3.15
-0.22
-5.49
-9.84
-10.99
-8.56
-4.17
-0.60
0.05
-2.58
-6.76
-9.88
-9.92
-6.80
-2.38
0.58
0.03
-4.25
-10.45
-15.90
-18.50
-17.93
-15.73
-14.30
-15.45
-19.31
-24.37
-28.39
-29.99
-29.45
-28.71
-30.11
-34.89
-42.27
-49.73
-54.45
-55.04
-52.49
-49.70
-49.97
-54.95
-63.65
-72.70
-77.84
-75.61
-64.73
-46.20
-22.83
1.83
24.58
43.33
57.41
67.77
76.42
85.85
98.28
114.98
135.86
159.39
183.02
203.69
218.28
224.44
220.94
207.63
185.62
156.79
123.41
87.57
50.64
12.88
-27.02
-71.37
-121.98
-178.33
-236.20
-287.93
-324.65
-339.16
-328.67
-295.76
-247.46
-193.17
-142.66
-104.48
-84.87
-86.80
-109.35
-147.79
-194.56
-240.65
-277.31
-297.46
-296.70
-273.93
-231.68
-176.07
-115.05
-56.73
-6.63
34.04
68.24
100.87
135.81
173.89
212.94
249.36
280.12
303.94
320.91
331.70
336.69
335.98
329.65
318.30
303.22
286.16
268.79
252.25
236.90
222.50
208.55
194.67
180.81
167.28
154.38
142.27
130.80
119.36
107.39
94.60
81.06
67.55
54.64
42.45
30.83
19.07
5.79
-10.52
-30.93
-55.65
-83.65
-112.47
-139.22
-161.06
-175.02
-181.34
-182.75
-183.07
-185.35
-191.80
-200.28
-206.38
-204.90
-191.95
-166.49
-130.19
-86.48
-39.30
8.03
54.53
98.36
137.60
169.70
192.41
203.65
201.89
186.44
157.28
115.01
60.49
-3.87
-71.85
-134.98
-183.89
-211.03
-213.59
-194.90
-163.17
-128.66
-99.56
-79.93
-69.85
-67.02
-69.00
-74.40
-82.76
-93.52
-105.37
-116.04
-123.24
-125.82
-123.92
-118.75
-111.91
-104.48
-96.61
-88.65
-79.96
-70.27
-60.33
-51.90
-47.24
-48.40
-56.41
-71.01
-90.22
-111.54
-132.49
-151.56
-167.57
-179.88
-188.09
-191.88
-190.88
-184.76
-173.47
-157.55
-138.19
-117.06
-96.07
-77.05
-61.35
-49.64
-41.94
-37.76
-36.44
-37.48
-40.61
-45.89
-53.48
-63.28
-74.76
-86.89
-98.28
-107.45
-113.18
-114.62
-111.34
-103.48
-90.97
-73.47
-50.35
-21.01
14.69
56.03
101.23
147.86
193.16
234.81
271.23
301.86
327.33
349.76
372.77
400.80
437.49
483.50
534.82
583.07
617.99
631.26
619.94
587.74
543.10
495.63
452.14
414.87
381.85
348.87
311.52
266.18
210.57
144.22
69.37
-8.18
-79.56
-134.72
-165.80
-169.89
-150.39
-115.93
-77.62
-45.57
-26.53
-22.92
-33.40
-54.11
-79.93
-105.34
-125.37
-136.48
-137.22
-128.68
-114.27
-98.84
-87.61
-84.83
-93.21
-113.50
-144.30
-181.66
-218.96
-247.79
-260.27
-252.10
-225.10
-187.19
-149.53
-121.60
-107.04
-102.31
-98.98
-88.08
-64.62
-29.55
11.16
49.42
78.21
93.71
95.58
86.10
68.70
46.66
22.36
-2.57
-26.56
-47.41
-62.19
-67.96
-63.16
-48.69
-28.14
-6.87
9.82
18.22
17.07
7.56
-7.45
-24.21
-38.98
-48.93
-52.78
-51.08
-45.81
-39.29
-33.12
-27.90
-23.72
-21.26
-22.12
-28.09
-39.60
-54.47
-68.25
-75.98
-74.63
-64.51
-48.67
-30.84
-13.30
3.66
20.68
37.37
51.42
59.36
58.80
50.33
37.93
27.52
24.02
30.07
45.44
67.81
94.21
122.20
150.02
176.19
199.00
216.31
226.14
227.16
219.24
203.50
182.04
157.29
131.35
105.63
80.79
56.98
34.23
12.69
-7.18
-24.78
-39.59
-51.38
-60.32
-66.97
-71.95
-75.84
-78.97
-81.40
-83.01
-83.65
-83.29
-82.06
-80.23
-78.08
-75.84
-73.57
-71.25
-68.80
-66.13
-63.24
-60.19
-57.09
-54.01
-51.03
-48.17
-45.41
-42.75
-40.18
-37.70
-35.30
-33.01
-30.80
-28.71
-26.70
-24.79
-22.96
-21.22
-19.58
-18.03
-16.59
-15.16
-13.79
-12.51
-11.33
-10.24
-9.23
-8.29
-7.43
-6.62
-5.86
-5.17
-4.51
-3.89
-3.30
-2.73
-2.18
-1.65
-1.14
-0.63
-0.15
0.33
0.81
1.27
1.74
2.19
2.62
3.04
3.45
3.84
4.24
4.67
5.11
5.57
6.04
6.48
6.86
7.11
7.07
6.59
5.44
3.49
0.55
-3.48
-8.56
-14.55
-21.08
-27.68
-33.77
-38.75
-42.09
-43.42
-42.38
-39.16
-34.09
-27.70
-20.58
-13.36
-6.61
-0.77
3.92
7.37
9.62
10.82
11.26
11.17
10.79
10.28
9.72
9.21
8.77
8.37
7.97
7.57
7.16
6.76
6.37
6.02
5.69
5.39
5.10
4.81
4.53
4.26
4.00
3.75
3.51
3.30
3.09
2.88
2.67
2.47
2.28
2.10
1.93
1.79
1.68
1.60
1.54
1.53
1.58
1.67
1.80
1.94
2.07
2.18
2.29
2.42
2.65
2.98
3.42
3.92
4.41
4.87
5.30
5.72
6.22
6.86
7.66
8.56
9.50
10.34
11.02
11.54
12.00
12.56
13.38
14.55
15.98
17.50
18.82
19.75
20.24
20.43
20.57
20.90
21.37
21.47
20.44
17.36
11.53
2.84
-8.09
-20.09
-31.81
-42.20
-50.84
-57.72
-63.11
-67.03
-68.92
-67.72
-62.18
-51.66
-36.39
-18.61
-0.98
13.94
24.58
30.43
31.72
29.02
23.05
15.00
6.78
1.55
1.98
9.25
22.23
37.13
49.99
58.66
63.89
68.16
73.72
79.79
82.78
78.23
63.99
42.41
19.72
2.91
-4.07
-2.06
3.73
6.89
3.09
-7.73
-22.20
-35.64
-44.19
-47.94
-49.02
-50.69
-55.72
-65.28
-78.58
-92.29
-101.45
-100.82
-86.89
-59.18
-21.29
19.87
55.82
79.06
85.24
74.27
49.80
17.82
-14.87
-42.93
-63.33
-75.60
-81.35
-83.61
-84.83
-86.78
-89.50
-90.97
-88.22
-78.37
-60.27
-35.44
-7.75
17.88
37.27
48.76
53.21
52.86
49.95
45.66
40.25
33.96
27.72
22.98
21.04
22.09
24.88
27.40
27.83
25.28
20.33
14.57
9.79
7.19
6.98
8.25
9.65
9.87
8.32
5.20
1.42
-1.97
-4.21
-5.06
-4.96
-4.65
-4.82
-5.90
-7.84
-10.25
-12.58
-14.40
-15.43
-15.61
-15.04
-13.86
-12.07
-9.62
-6.46
-2.67
1.50
5.60
9.07
11.33
11.97
10.71
7.49
2.40
-4.33
-12.32
-21.16
-30.42
-39.62
-48.33
-56.21
-63.10
-69.04
-74.23
-78.95
-83.48
-87.94
-92.06
-95.29
-96.93
-96.29
-92.79
-86.27
-76.57
-63.90
-48.50
-30.56
-10.20
12.34
36.47
61.13
84.04
103.57
118.37
127.86
132.46
133.52
132.78
131.77
131.20
131.32
130.90
128.93
124.93
119.34
113.30
108.15
105.03
104.71
107.59
113.38
120.45
125.50
124.02
112.02
88.13
55.10
19.20
-12.05
-33.10
-42.53
-42.99
-39.31
-35.69
-33.87
-33.16
-32.11
-30.25
-28.98
-30.83
-37.85
-50.44
-66.87
-84.08
-98.44
-107.62
-110.91
-109.34
-104.80
-99.07
-93.31
-88.18
-84.35
-82.23
-81.78
-81.74
-79.64
-72.54
-58.82
-39.67
-18.90
-2.62
4.80
2.31
-7.68
-20.95
-33.59
-43.48
-50.62
-55.79
-59.42
-60.56
-57.70
-49.62
-36.45
-19.49
-0.60
18.32
36.30
53.05
68.62
83.86
98.87
112.99
124.98
133.48
137.41
137.38
132.91
124.99
115.25
104.96
94.91
85.28
75.62
65.06
52.85
38.51
21.96
5.11
-10.34
-22.93
-31.86
-37.30
-40.41
-42.74
-45.87
-50.39
-55.68
-60.57
-63.31
-62.08
-55.31
-42.55
-24.65
-4.68
12.58
21.95
19.85
6.68
-13.24
-32.49
-44.28
-45.50
-37.74
-25.93
-15.67
-11.17
-13.85
-22.89
-35.99
-50.00
-61.28
-66.38
-63.21
-51.91
-36.24
-21.42
-12.08
-10.41
-15.64
-25.03
-35.62
-45.67
-54.76
-62.94
-69.79
-74.21
-75.06
-71.81
-65.17
-56.49
-47.16
-38.02
-28.78
-18.46
-5.99
9.03
26.02
42.93
57.98
69.59
76.88
79.95
79.72
77.55
74.69
71.90
69.80
67.92
65.77
63.00
59.51
55.53
51.48
47.85
45.00
43.07
41.98
41.46
41.04
40.27
38.90
36.97
34.89
33.28
32.68
33.45
35.48
38.14
40.55
41.94
41.98
40.97
40.05
39.86
40.90
42.97
45.16
46.22
45.31
42.25
37.75
33.06
29.30
27.25
27.37
30.00
35.27
42.49
49.42
52.33
47.02
30.76
4.14
-28.57
-60.73
-85.88
-100.12
-103.22
-97.88
-88.10
-77.55
-68.68
-62.82
-60.46
-61.36
-64.45
-67.95
-69.85
-68.80
-65.00
-59.93
-55.98
-55.55
-60.19
-70.02
-83.35
-96.35
-103.25
-97.76
-75.60
-37.31
10.51
56.63
89.32
101.33
93.08
71.94
48.83
33.05
28.55
33.57
42.77
51.33
57.45
62.33
67.97
75.84
85.83
96.60
107.13
117.56
130.06
148.00
174.09
207.74
244.99
279.63
305.26
317.94
316.58
303.80
284.45
263.13
240.56
215.70
187.54
156.42
125.06
95.04
68.22
46.13
28.99
11.88
-9.49
-36.11
-65.61
-92.49
-116.04
-136.43
-154.02
-169.51
-189.47
-218.06
-254.33
-293.30
-326.70
-355.05
-380.67
-406.01
-433.11
-470.21
-521.35
-583.09
-646.11
-696.59
-732.39
-754.60
-766.14
-717.28
-585.43
-389.36
-177.78
-22.70
82.94
153.33
197.86
227.75
244.65
241.91
217.17
175.68
128.33
90.12
63.92
62.25
89.95
140.03
192.97
233.05
255.89
266.32
275.04
284.28
293.64
300.49
301.34
291.73
270.50
240.37
206.41
174.90
145.79
117.02
89.90
64.00
38.04
12.31
-11.11
-29.44
-39.86
-43.16
-41.44
-37.79
-35.42
-36.05
-39.22
-42.98
-45.16
-44.17
-40.47
-35.57
-31.46
-30.15
-31.81
-34.93
-37.25
-36.75
-32.59
-25.31
-16.59
-8.90
-5.04
-6.74
-14.11
-24.92
-34.70
-37.91
-29.68
-7.89
25.60
64.87
101.78
128.25
138.53
130.63
106.46
71.08
31.16
-6.85
-38.07
-59.91
-72.08
-76.23
-74.71
-70.08
-64.62
-60.12
-58.52
-61.40
-69.67
-82.73
-97.79
-110.02
-113.91
-105.67
-84.19
-53.10
-19.44
8.96
26.63
32.47
29.44
22.46
15.58
10.38
5.85
0.23
-7.39
-16.15
-24.01
-29.08
-30.66
-29.41
-26.67
-23.90
-21.53
-19.08
-15.07
-8.23
1.94
14.96
29.41
43.56
55.83
65.41
72.23
76.86
79.94
81.98
83.12
83.12
81.72
78.80
74.57
69.45
64.01
58.65
53.59
48.97
44.84
41.33
38.64
36.99
36.51
37.21
38.89
41.38
44.61
48.58
53.39
59.14
65.63
72.41
78.94
84.51
88.72
92.05
94.84
97.72
101.19
105.21
109.59
114.23
119.11
124.27
129.88
135.06
138.70
139.89
137.97
132.20
121.43
103.71
76.33
37.35
-13.99
-74.63
-137.45
-193.57
-235.93
-258.85
-264.24
-261.24
-261.53
-276.28
-310.94
-364.35
-430.39
-500.30
-565.57
-618.83
-655.26
-661.46
-631.73
-570.51
-491.81
-413.01
-346.74
-303.06
-277.42
-262.49
-251.79
-242.57
-233.26
-221.03
-203.92
-180.60
-151.10
-116.31
-78.97
-41.89
-8.05
21.04
45.45
66.22
84.80
102.07
118.55
133.31
145.35
153.43
157.22
157.31
154.76
150.75
146.01
141.08
135.62
129.35
122.07
114.13
106.26
99.23
93.59
89.42
86.62
84.72
83.50
83.01
83.58
85.50
88.68
92.60
96.45
99.67
102.22
104.97
109.48
117.45
129.90
146.72
166.61
187.75
208.64
228.73
248.66
269.84
293.58
320.72
351.40
385.33
421.67
458.63
493.08
520.52
536.09
535.99
518.78
485.78
440.26
385.91
325.68
261.48
194.91
128.42
65.81
11.88
-29.04
-54.71
-66.07
-67.01
-62.98
-59.09
-58.35
-61.10
-65.84
-71.07
-76.98
-86.28
-103.36
-131.92
-172.51
-220.85
-268.21
-303.92
-319.10
-309.83
-278.43
-232.30
-180.71
-131.05
-86.34
-45.23
-4.28
38.77
82.74
123.06
153.75
170.27
171.33
158.87
136.59
108.31
77.23
46.36
19.52
1.72
-1.81
12.28
43.55
87.18
135.14
178.79
211.43
229.71
233.53
225.04
206.90
181.25
149.55
113.34
75.42
40.75
15.93
7.40
18.59
47.50
86.24
122.99
145.98
147.91
128.76
95.45
59.63
33.61
26.28
40.58
72.95
115.05
156.84
189.81
208.41
211.29
200.65
180.52
155.23
128.28
102.12
78.50
58.47
40.74
22.40
-0.49
-31.79
-73.85
-126.62
-187.57
-252.49
-316.78
-378.55
-437.97
-496.41
-555.19
-614.27
-671.84
-724.71
-769.18
-790.06
-774.70
-716.61
-619.14
-495.20
-361.69
-233.18
-118.49
-21.13
59.10
122.57
169.88
202.29
221.70
231.43
235.57
238.30
242.02
247.63
254.42
259.00
257.89
248.04
228.73
201.01
167.55
130.13
90.20
49.18
8.40
-33.50
-77.50
-122.06
-163.84
-197.90
-220.73
-230.08
-225.67
-209.29
-174.77
-124.72
-65.14
-8.47
42.10
85.50
121.01
147.38
162.30
163.10
145.80
108.63
53.31
-14.53
-88.24
-160.41
-223.04
-268.19
-288.85
-282.16
-249.73
-198.56
-139.11
-83.26
-39.83
-11.93
2.25
7.08
5.96
1.02
-6.74
-16.20
-26.27
-35.46
-42.47
-47.32
-51.20
-56.23
-63.97
-74.51
-86.06
-95.86
-101.98
-101.53
-93.07
-76.66
-53.75
-26.41
3.11
32.70
60.27
83.62
100.55
108.73
106.01
91.23
64.54
27.56
-16.74
-64.56
-111.86
-154.96
-191.36
-219.61
-239.10
-249.95
-252.71
-248.31
-237.85
-222.43
-203.04
-180.51
-156.62
-132.86
-110.51
-90.40
-73.08
-58.84
-47.77
-39.85
-35.03
-33.04
-33.28
-34.90
-37.08
-38.96
-40.00
-40.03
-39.35
-38.65
-38.43
-38.94
-39.95
-40.75
-40.47
-38.38
-34.21
-28.34
-21.61
-14.23
-6.00
3.78
16.23
32.53
53.53
79.36
109.33
142.33
178.83
219.50
265.16
316.22
372.41
433.08
497.60
565.40
635.14
706.12
774.40
832.86
872.99
888.17
876.76
843.19
796.26
745.55
701.41
669.27
649.61
639.32
633.77
628.56
620.40
607.14
566.32
484.57
358.40
197.10
20.07
-150.40
-297.18
-411.88
-494.31
-549.59
-581.46
-593.92
-590.63
-575.33
-551.96
-524.60
-496.77
-471.21
-449.70
-430.35
-410.79
-388.91
-363.87
-336.28
-308.01
-281.33
-258.20
-239.82
-224.67
-210.49
-194.89
-176.42
-154.70
-130.72
-106.31
-83.44
-63.67
-46.99
-32.71
-19.40
-7.21
2.97
9.29
9.57
2.03
-14.08
-38.26
-69.21
-104.23
-139.98
-171.62
-193.43
-200.19
-189.64
-164.08
-130.38
-97.77
-74.22
-63.93
-65.99
-76.03
-88.76
-100.77
-110.37
-116.96
-119.78
-117.31
-107.67
-89.42
-62.79
-29.87
5.70
39.51
68.25
90.21
105.50
115.47
122.13
127.15
131.23
133.97
134.31
131.31
124.66
115.32
105.13
96.27
90.20
87.21
86.30
86.17
86.12
85.75
84.28
79.92
70.18
53.21
29.71
3.40
-21.20
-40.16
-52.56
-60.90
-69.44
-81.04
-94.59
-104.49
-103.23
-85.26
-50.07
-3.07
46.44
89.18
118.92
133.98
136.77
131.71
122.53
111.05
97.36
81.93
66.19
52.07
40.48
29.98
17.25
-1.02
-25.65
-54.08
-80.96
-100.75
-110.51
-110.85
-105.01
-96.76
-88.64
-80.67
-72.44
-62.98
-51.59
-38.07
-22.62
-5.33
13.41
32.79
51.00
65.17
72.45
70.69
59.35
39.60
14.14
-12.82
-37.60
-57.69
-72.27
-82.25
-90.21
-99.22
-111.94
-128.25
-144.38
-153.88
-150.16
-129.95
-95.50
-55.18
-17.93
8.35
21.13
23.76
23.23
26.30
36.74
54.24
75.79
97.38
114.74
123.97
121.55
105.33
76.38
40.69
8.12
-10.31
-7.22
16.49
51.46
83.13
97.52
87.12
53.68
6.95
-39.64
-73.33
-87.34
-82.04
-62.34
-34.71
-4.48
24.54
49.78
69.69
82.88
88.05
85.24
76.38
64.51
52.64
42.50
34.06
25.34
13.24
-4.92
-29.42
-56.18
-77.58
-86.38
-80.07
-63.50
-48.76
-46.40
-62.86
-96.38
-136.69
-169.75
-183.83
-174.15
-143.51
-99.41
-49.96
-1.35
42.52
79.42
106.84
122.10
123.59
112.38
93.42
74.50
63.98
65.68
77.21
91.03
98.89
96.04
83.39
66.63
52.78
44.60
38.73
29.68
12.90
-11.98
-40.27
-64.62
-78.25
-77.58
-65.35
-48.80
-35.96
-32.86
-42.05
-60.27
-84.94
-113.09
-141.62
-169.32
-195.86
-220.82
-243.59
-263.69
-281.46
-298.55
-320.66
-345.75
-369.76
-386.13
-386.68
-364.74
-318.21
-251.13
-173.05
-95.33
-25.95
30.15
72.10
101.82
122.20
135.69
144.31
150.49
151.72
149.58
145.69
141.41
137.15
132.57
126.70
118.60
107.69
93.68
77.83
60.34
40.89
18.55
-7.25
-36.83
-69.99
-106.16
-144.42
-182.69
-219.89
-255.13
-288.06
-316.78
-339.42
-354.22
-359.76
-355.00
-338.76
-311.55
-273.95
-227.69
-171.74
-106.12
-32.31
46.62
126.84
204.87
276.34
339.66
393.89
444.57
496.92
554.20
616.61
682.25
748.45
810.66
868.74
923.23
981.47
1047.28
1118.67
1187.12
1242.63
1279.00
1293.72
1293.85
1238.53
1102.93
880.49
588.57
260.15
-66.77
-341.00
-552.99
-699.65
-785.00
-814.68
-803.37
-768.73
-731.02
-705.79
-700.33
-717.18
-749.45
-789.06
-822.57
-838.06
-818.61
-754.84
-648.80
-515.81
-381.01
-262.75
-169.62
-96.69
-35.47
19.40
64.75
93.24
103.74
94.48
72.06
46.88
30.83
30.99
47.47
73.45
100.78
124.16
143.22
165.67
196.92
241.95
299.86
361.49
403.28
402.90
348.08
242.82
107.17
-33.21
-156.87
-253.02
-322.88
-369.13
-392.90
-395.86
-382.45
-359.90
-332.71
-308.39
-287.66
-270.42
-254.15
-235.53
-212.66
-185.66
-155.55
-123.91
-92.80
-63.01
-35.00
-7.84
19.57
47.97
76.29
101.73
121.11
131.69
133.49
127.52
115.80
100.40
83.06
65.30
48.90
35.71
24.18
13.88
3.73
-6.86
-17.26
-25.17
-27.08
-19.40
-0.21
29.05
63.61
95.78
117.80
124.78
117.00
99.85
82.77
76.46
89.27
124.91
180.64
247.80
313.58
363.69
385.02
369.97
318.85
239.51
144.66
47.37
-42.01
-117.34
-176.54
-221.43
-254.89
-279.46
-296.72
-307.29
-310.54
-304.27
-285.32
-245.77
-185.91
-116.26
-53.19
-9.73
10.37
11.53
1.58
-12.60
-27.25
-42.56
-59.38
-76.90
-92.89
-105.20
-113.21
-118.03
-121.57
-125.73
-132.34
-141.16
-149.73
-154.86
-154.10
-146.78
-134.08
-118.28
-102.02
-88.04
-77.95
-71.57
-67.77
-65.05
-62.22
-58.46
-53.13
-45.59
-35.13
-23.65
-11.32
2.27
17.80
35.78
56.40
79.72
105.76
134.50
165.81
199.28
233.07
263.70
286.73
298.24
296.53
282.92
261.41
237.09
214.48
195.75
180.54
166.90
152.72
136.84
119.37
101.34
84.05
68.75
56.15
46.43
39.29
34.03
29.73
25.31
19.88
12.95
4.62
-4.70
-14.57
-24.80
-35.59
-47.29
-60.02
-73.09
-84.72
-92.17
-92.17
-82.17
-61.73
-33.60
-3.93
18.80
25.98
11.63
-25.26
-79.66
-141.43
-197.90
-237.44
-252.67
-242.12
-210.09
-164.57
-114.42
-66.89
-26.42
5.30
28.40
43.62
51.96
54.69
53.75
51.55
50.37
51.44
54.51
58.20
60.60
60.50
57.86
53.77
49.76
47.10
46.13
46.22
46.06
44.17
39.54
32.00
22.32
12.03
2.93
-3.36
-5.92
-4.72
-0.57
5.27
11.51
17.13
21.60
24.75
26.66
27.51
27.51
26.90
25.95
24.95
24.10
23.49
23.05
22.72
22.55
22.83
24.04
26.63
30.93
36.95
44.47
53.11
62.50
72.36
82.51
92.81
103.20
113.61
123.93
133.98
143.33
151.27
156.91
159.48
158.61
154.54
147.88
139.29
129.09
117.22
103.65
88.86
74.22
61.81
53.69
50.91
52.93
57.48
61.43
61.82
56.80
46.04
30.44
11.24
-10.77
-35.83
-65.25
-100.86
-144.26
-195.89
-254.20
-315.20
-372.55
-418.54
-445.76
-449.33
-428.72
-388.27
-336.15
-281.83
-233.03
-193.55
-162.52
-135.50
-106.72
-71.63
-28.87
18.75
65.00
102.25
124.20
128.19
116.09
93.40
67.06
43.05
24.94
13.89
9.66
11.75
19.71
32.70
48.71
64.51
76.44
81.81
80.05
73.05
64.07
56.43
52.11
51.14
51.91
52.11
49.89
44.67
37.29
29.43
22.88
18.75
17.04
16.87
16.88
15.89
13.31
9.27
4.40
-0.54
-4.92
-8.50
-11.23
-13.26
-14.77
-15.92
-16.87
-17.81
-18.97
-20.52
-22.63
-25.23
-28.06
-30.60
-32.22
-32.29
-30.43
-26.65
-21.29
-14.91
-8.09
-1.33
4.94
10.31
14.32
16.56
16.84
15.40
12.91
10.34
8.65
8.37
9.38
10.99
12.25
12.46
11.59
10.32
9.67
10.48
12.85
16.13
19.19
21.09
21.48
20.86
20.26
20.66
22.51
25.31
27.77
28.17
24.72
16.08
1.81
-17.18
-38.30
-57.15
-68.30
-66.72
-50.13
-20.65
14.95
47.18
67.12
69.94
56.63
33.13
7.46
-13.77
-27.47
-34.12
-36.00
-35.21
-32.50
-27.59
-20.42
-12.06
-4.81
-1.14
-2.39
-8.04
-15.78
-22.47
-25.45
-23.61
-17.64
-9.70
-2.46
1.82
1.91
-2.10
-8.98
-16.94
-24.22
-29.56
-32.38
-32.64
-30.55
-26.49
-20.95
-14.68
-8.60
-3.62
-0.21
1.81
3.14
4.57
6.45
8.53
9.97
9.90
7.87
4.16
-0.43
-4.85
-8.25
-10.20
-10.73
-10.24
-9.24
-8.20
-7.36
-6.82
-6.57
-6.68
-7.30
-8.64
-10.88
-14.01
-17.79
-21.83
-25.69
-29.02
-31.53
-33.04
-33.39
-32.38
-29.91
-26.02
-20.96
-15.23
-9.56
-4.74
-1.58
-0.64
-2.10
-5.64
-10.54
-15.85
-20.68
-24.39
-26.63
-27.34
-26.57
-24.47
-21.29
-17.37
-13.11
-8.84
-4.74
-0.83
2.89
6.25
8.75
9.63
8.19
4.14
-2.15
-9.59
-16.63
-21.62
-23.22
-20.71
-14.22
-4.61
6.66
17.84
27.38
34.17
37.81
38.50
36.80
33.25
28.19
21.63
13.62
4.56
-4.55
-12.34
-17.46
-19.28
-18.08
-14.99
-11.37
-8.14
-5.52
-3.04
-0.07
3.75
8.19
12.68
16.53
19.30
20.88
21.31
20.60
18.60
15.08
9.94
3.56
-3.08
-8.45
-10.87
-9.04
-2.59
7.65
19.83
31.58
40.70
45.74
46.36
43.23
37.75
31.50
25.83
21.46
18.41
16.10
13.69
10.54
6.48
1.86
-2.61
-6.22
-8.53
-9.51
-9.43
-8.73
-7.85
-7.17
-7.04
-7.71
-9.26
-11.46
-13.91
-16.18
-18.01
-19.41
-20.61
-21.71
-22.52
-22.47
-20.75
-16.73
-10.22
-1.70
7.81
17.00
24.64
29.93
32.57
32.79
31.07
27.95
23.85
19.07
13.87
8.63
3.85
-0.04
-2.70
-4.04
-4.21
-3.53
-2.35
-1.09
-0.11
0.26
-0.20
-1.51
-3.48
-5.70
-7.75
-9.32
-10.33
-10.94
-11.44
-12.26
-13.67
-15.80
-18.44
-21.03
-22.72
-22.66
-20.22
-15.23
-8.10
0.28
8.82
16.44
22.35
26.13
27.66
27.15
25.00
21.77
18.09
14.60
11.85
10.21
9.78
10.47
11.98
13.98
16.15
18.20
19.88
20.90
21.05
20.17
18.24
15.43
12.06
8.49
5.00
1.74
-1.27
-4.05
-6.56
-8.63
-10.06
-10.70
-10.60
-9.99
-9.17
-8.25
-6.98
-4.70
-0.59
5.98
15.00
25.55
35.91
43.93
47.74
46.36
40.03
30.06
18.33
6.50
-4.41
-14.11
-22.85
-31.07
-39.23
-47.92
-57.75
-69.16
-81.61
-93.07
-100.21
-99.85
-90.94
-75.99
-60.55
-50.63
-49.52
-55.68
-63.45
-66.06
-59.31
-43.51
-22.73
-1.95
15.88
31.03
45.91
62.84
82.30
102.83
122.21
138.78
152.04
162.08
168.80
171.49
169.26
161.74
149.70
135.00
120.03
106.96
97.38
92.11
91.26
94.12
99.21
104.44
107.77
108.05
105.33
100.69
95.20
88.81
79.90
65.81
44.13
14.09
-22.76
-63.01
-102.37
-136.97
-164.07
-182.28
-191.25
-191.38
-183.66
-169.71
-151.81
-132.46
-113.95
-97.65
-83.64
-70.73
-56.84
-39.82
-18.18
8.22
38.12
69.17
98.52
123.67
142.90
155.47
161.40
161.17
155.27
144.22
128.60
109.28
87.48
64.69
42.38
21.68
3.25
-12.74
-26.34
-37.52
-46.05
-51.61
-54.21
-54.52
-53.99
-54.40
-57.15
-62.59
-69.91
-77.52
-83.95
-88.54
-91.69
-94.44
-97.77
-101.92
-106.33
-109.81
-111.12
-109.35
-104.14
-95.70
-84.71
-72.15
-59.18
-46.86
-35.89
-26.39
-17.89
-9.59
-0.73
9.04
19.60
30.34
40.46
49.23
56.16
61.08
64.12
65.57
65.70
64.69
62.54
59.09
54.14
47.62
39.71
30.85
21.67
12.89
5.09
-1.27
-6.01
-9.38
-12.09
-15.24
-20.10
-27.47
-37.42
-49.07
-60.95
-71.57
-80.13
-86.73
-92.22
-97.64
-103.58
-109.95
-115.98
-120.69
-123.33
-123.63
-121.74
-118.07
-113.03
-106.97
-100.24
-93.22
-86.42
-80.36
-75.52
-71.99
-69.50
-67.34
-64.56
-60.28
-54.03
-45.92
-36.68
-27.42
-19.19
-12.73
-8.15
-5.00
-2.61
-0.30
2.32
5.36
8.70
12.06
15.02
17.12
17.85
16.81
13.89
9.37
3.89
-1.74
-6.90
-11.36
-15.38
-19.48
-24.20
-29.74
-35.86
-41.96
-47.25
-51.10
-53.14
-53.40
-52.23
-50.17
-47.79
-45.48
-43.45
-41.70
-40.09
-38.50
-36.77
-34.71
-32.03
-28.42
-23.53
-17.24
-9.68
-1.31
7.28
15.48
22.83
29.14
34.36
38.51
41.68
43.91
45.24
45.72
45.40
44.31
42.55
40.22
37.50
34.64
31.84
29.27
26.94
24.79
22.62
20.23
17.40
13.95
9.90
5.53
1.54
-1.11
-1.42
1.31
7.21
15.80
26.09
36.93
47.23
56.14
63.02
67.46
69.18
68.18
64.82
59.80
54.16
48.97
45.06
42.82
42.19
42.71
43.82
45.06
46.23
47.34
48.50
49.69
50.72
51.22
50.81
49.32
46.88
43.91
41.01
38.78
37.62
37.61
38.43
39.27
39.03
36.50
30.73
21.53
9.57
-3.67
-16.26
-26.33
-32.59
-34.42
-31.96
-25.97
-17.62
-8.33
0.54
7.90
13.14
16.20
17.57
18.07
18.62
20.00
22.74
27.06
32.86
39.71
46.85
53.34
58.18
60.60
60.17
56.89
51.13
43.46
34.54
25.02
15.60
6.99
-0.09
-5.03
-7.42
-7.13
-4.33
0.71
7.71
16.51
26.98
39.00
52.34
66.60
81.24
95.48
108.34
118.59
125.04
126.81
123.69
116.12
104.95
90.95
74.46
55.42
33.75
9.97
-14.56
-37.88
-58.20
-74.56
-87.16
-96.91
-104.74
-111.12
-115.81
-118.25
-118.02
-115.09
-110.09
-104.07
-98.34
-93.99
-91.59
-90.84
-90.75
-90.08
-87.86
-83.69
-77.41
-68.38
-54.95
-35.02
-7.32
27.12
64.52
99.40
126.60
143.21
149.26
146.91
138.76
126.61
111.12
92.56
71.92
51.26
33.27
20.05
11.77
6.02
-1.96
-17.76
-45.82
-87.13
-138.25
-191.99
-239.64
-273.85
-290.62
-289.57
-272.79
-243.13
-203.20
-155.66
-104.01
-53.14
-8.59
25.11
46.12
55.77
57.79
56.47
55.10
55.29
57.22
60.29
63.82
67.47
71.26
75.55
80.85
87.50
95.30
103.28
109.85
113.23
112.25
106.80
97.66
85.95
72.40
57.21
40.33
22.16
3.97
-12.16
-24.15
-30.89
-32.76
-31.48
-29.32
-28.12
-28.69
-30.70
-33.21
-35.35
-36.74
-37.64
-38.70
-40.73
-44.46
-50.40
-58.88
-69.97
-83.46
-98.86
-115.30
-131.56
-146.09
-157.20
-163.50
-164.42
-160.55
-153.45
-145.00
-136.50
-128.05
-118.53
-106.21
-89.45
-67.21
-39.08
-5.13
34.11
77.36
122.22
165.37
203.19
233.04
254.14
267.66
275.84
280.64
282.64
280.89
273.65
259.48
238.05
210.15
177.16
140.37
100.83
59.62
18.36
-20.55
-54.25
-80.22
-97.06
-104.82
-104.68
-98.38
-87.54
-73.34
-56.62
-38.19
-19.09
-0.68
15.54
28.25
36.48
39.83
38.49
33.42
26.39
19.89
16.48
17.94
24.39
33.84
42.79
47.43
45.13
35.49
20.33
2.73
-14.35
-29.06
-40.87
-49.83
-55.84
-58.36
-56.68
-50.72
-41.46
-30.87
-21.14
-13.85
-9.31
-6.73
-4.69
-1.79
2.84
9.57
18.38
29.05
41.29
54.71
68.85
83.17
96.87
108.67
116.84
119.41
114.86
102.85
84.64
62.75
40.16
19.38
1.93
-11.37
-19.95
-23.11
-20.26
-11.56
1.26
14.87
24.65
25.84
14.85
-9.38
-44.72
-86.10
-126.52
-158.99
-178.40
-183.00
-174.99
-160.17
-146.45
-141.65
-150.99
-174.90
-208.27
-241.39
-262.72
-262.48
-235.53
-182.74
-110.29
-27.62
54.98
128.13
184.59
219.94
233.33
227.76
209.52
186.46
165.58
150.94
142.90
138.96
135.52
129.55
119.39
104.74
86.06
64.16
40.31
16.30
-5.62
-23.28
-35.40
-42.09
-44.55
-44.16
-41.58
-36.26
-27.08
-13.33
4.52
24.51
43.89
60.04
71.33
77.30
78.51
76.01
71.12
65.26
59.96
56.64
56.14
58.31
61.87
64.91
65.60
63.08
57.76
50.93
44.03
37.88
32.33
26.42
19.02
9.28
-3.05
-17.74
-34.35
-52.39
-71.48
-91.27
-111.37
-131.14
-149.71
-165.87
-178.31
-185.86
-187.90
-184.48
-176.26
-164.20
-149.19
-131.94
-113.03
-93.12
-73.04
-53.54
-35.06
-17.50
-0.36
16.66
33.27
48.41
60.71
69.11
73.49
74.76
74.31
73.33
72.09
69.90
65.58
58.22
47.73
35.04
21.67
9.20
-1.21
-9.03
-14.20
-17.06
-18.23
-18.49
-18.66
-19.29
-20.43
-21.61
-22.06
-21.16
-18.84
-15.77
-12.96
-11.36
-11.37
-12.78
-14.89
-16.94
-18.44
-19.18
-19.32
-19.16
-19.05
-19.30
-20.04
-21.26
-22.69
-23.90
-24.48
-24.28
-23.49
-22.70
-22.69
-24.10
-27.28
-32.14
-38.32
-45.31
-52.54
-59.41
-65.33
-69.74
-72.16
-72.40
-70.45
-66.42
-60.35
-52.07
-41.36
-28.16
-12.96
3.21
18.89
32.65
43.59
51.40
56.33
58.80
59.10
57.27
53.31
47.50
40.54
33.60
27.85
24.04
22.35
22.48
24.02
26.86
31.34
38.12
47.94
61.23
77.98
97.84
120.27
144.66
170.37
196.58
222.07
245.37
264.86
279.25
287.92
290.84
288.35
280.46
266.66
245.81
216.92
179.90
136.15
88.55
40.65
-4.30
-44.25
-78.58
-107.97
-133.68
-156.92
-178.41
-198.04
-214.96
-227.80
-235.16
-236.11
-230.61
-219.54
-204.49
-187.27
-169.41
-151.97
-135.70
-121.10
-108.72
-99.08
-92.48
-88.79
-87.29
-86.66
-85.22
-81.20
-73.14
-60.22
-42.49
-20.92
2.83
26.63
48.38
66.32
79.27
86.64
88.38
84.72
76.30
64.12
49.50
34.04
19.19
5.93
-5.55
-15.77
-25.70
-35.99
-46.69
-57.12
-66.21
-73.22
-78.13
-81.98
-86.40
-93.18
-103.48
-117.58
-134.85
-154.03
-173.61
-192.02
-207.78
-219.32
-225.10
-223.66
-214.03
-196.02
-170.49
-139.29
-104.85
-69.82
-36.60
-7.16
17.01
34.86
45.80
49.98
48.22
42.11
33.62
24.64
16.52
9.76
4.21
-0.70
-5.44
-10.34
-15.56
-21.34
-28.09
-36.44
-46.98
-59.93
-74.93
-90.97
-106.66
-120.60
-131.70
-139.46
-144.02
-145.91
-145.78
-144.18
-141.28
-136.85
-130.27
-120.80
-107.86
-91.35
-71.85
-50.52
-28.90
-8.41
10.00
26.18
40.77
55.11
70.93
90.02
113.75
142.62
175.89
211.45
246.21
276.78
300.41
315.61
322.38
321.96
316.04
306.18
293.26
277.51
258.80
237.13
213.00
187.58
162.48
139.32
119.31
102.86
89.59
78.49
68.24
57.26
43.93
26.64
4.09
-24.15
-57.26
-93.14
-129.07
-162.55
-192.22
-217.79
-239.32
-256.18
-266.38
-267.07
-255.86
-232.47
-199.50
-161.95
-125.55
-94.77
-71.53
-55.17
-43.49
-34.20
-25.94
-18.58
-12.80
-9.36
-8.64
-10.46
-14.16
-18.89
-23.65
-27.30
-28.62
-26.42
-19.78
-8.30
7.77
27.60
49.85
72.86
94.75
113.50
127.28
134.92
136.29
132.41
125.19
116.77
108.70
101.40
93.98
84.64
71.52
53.50
30.83
5.22
-20.52
-43.04
-59.19
-66.57
-64.10
-52.56
-34.74
-15.12
1.26
10.53
11.51
6.33
-0.44
-3.80
-0.50
9.77
24.72
40.91
55.35
66.43
73.72
77.21
76.76
72.15
63.91
53.61
43.73
36.68
33.73
34.59
37.76
41.41
44.18
45.47
45.12
43.09
39.41
34.43
29.13
25.06
23.64
25.44
29.83
35.11
39.44
41.66
41.58
39.70
36.64
32.71
27.93
22.40
16.58
11.43
8.04
7.11
8.71
12.28
16.93
21.83
26.36
29.92
31.85
31.38
27.93
21.59
13.40
5.11
-1.35
-4.67
-4.41
-1.03
4.61
11.77
20.38
31.23
45.98
66.50
93.99
127.62
163.74
196.20
217.76
222.63
208.71
178.50
138.12
94.84
54.31
18.86
-12.45
-42.39
-73.57
-107.08
-142.29
-177.57
-211.27
-242.24
-269.72
-292.65
-309.16
-316.75
-313.02
-296.86
-269.20
-232.81
-191.47
-148.69
-106.88
-67.29
-30.48
3.08
32.70
57.76
78.09
94.18
106.98
117.43
126.12
133.25
139.23
144.86
151.32
159.52
169.25
178.95
186.02
188.00
183.63
173.34
158.81
142.04
124.39
106.24
87.38
67.51
46.78
25.82
5.31
-14.36
-33.10
-50.92
-67.58
-82.40
-94.49
-103.17
-108.34
-110.57
-110.91
-110.31
-109.25
-107.55
-104.66
-100.11
-93.90
-86.64
-79.26
-72.59
-66.89
-61.78
-56.52
-50.29
-42.61
-33.64
-24.19
-15.54
-9.19
-6.58
-8.57
-15.00
-24.31
-33.73
-39.96
-40.35
-34.03
-22.26
-7.92
5.75
16.50
23.95
29.37
34.84
42.03
51.38
61.91
71.71
78.71
81.41
79.22
72.41
61.82
48.57
33.79
18.56
3.93
-9.13
-19.83
-27.78
-33.10
-36.49
-38.81
-40.69
-42.21
-43.07
-42.95
-42.03
-40.97
-40.71
-41.76
-43.61
-44.75
-43.23
-37.64
-27.95
-15.76
-3.87
4.78
8.21
6.17
0.08
-7.56
-14.13
-18.04
-19.06
-18.17
-16.79
-16.00
-15.93
-15.89
-14.87
-12.10
-7.52
-1.69
4.61
10.80
16.75
22.54
28.14
33.02
36.10
36.15
32.29
24.68
14.74
4.97
-1.91
-4.05
-1.35
4.40
10.32
13.95
14.74
14.57
17.03
25.49
41.20
62.38
84.80
103.24
113.20
111.65
97.16
69.79
31.19
-14.93
-62.65
-104.77
-134.65
-148.67
-147.55
-135.94
-120.22
-105.66
-94.53
-85.95
-77.35
-66.28
-51.65
-33.94
-14.54
5.15
24.20
42.06
58.30
72.31
83.52
91.68
97.21
101.18
104.91
109.47
115.23
121.80
128.22
133.50
136.99
138.70
139.11
138.79
137.87
135.81
131.54
123.80
111.62
94.63
73.00
47.44
19.05
-10.65
-39.81
-66.46
-89.07
-107.23
-121.96
-135.29
-149.23
-164.69
-180.85
-195.59
-206.60
-212.60
-213.78
-211.29
-206.23
-198.75
-188.07
-173.15
-153.78
-131.12
-107.47
-85.14
-65.40
-48.11
-32.19
-16.75
-1.83
11.48
21.87
28.80
33.17
36.93
42.08
49.52
58.51
66.79
71.42
69.94
61.24
46.16
27.44
9.19
-4.00
-8.04
-0.26
20.06
51.44
90.16
130.65
166.29
190.73
199.49
191.16
167.94
134.97
98.73
65.19
38.31
19.66
8.90
4.75
5.62
9.94
15.95
21.70
25.19
24.93
20.48
12.79
4.13
-2.55
-4.38
0.71
13.34
32.64
56.37
81.19
103.13
118.42
124.25
119.40
104.48
81.48
53.07
22.01
-9.29
-38.87
-65.19
-87.30
-104.97
-118.68
-129.29
-137.46
-143.09
-145.65
-144.66
-140.45
-134.24
-127.44
-120.68
-113.21
-103.29
-89.16
-70.41
-48.32
-25.39
-4.22
13.68
28.19
40.16
50.56
59.81
67.58
73.21
76.26
76.86
75.71
73.77
71.91
70.71
70.52
71.55
73.91
77.24
80.33
81.11
76.98
65.74
46.59
20.61
-9.35
-39.44
-65.90
-86.01
-98.37
-103.06
-101.29
-95.09
-86.93
-79.27
-73.98
-71.87
-72.48
-74.15
-74.63
-71.92
-64.95
-54.00
-40.46
-26.30
-13.28
-2.32
6.58
14.03
20.84
27.65
34.85
42.59
50.73
58.69
65.48
69.93
71.15
69.13
64.98
60.68
58.34
59.41
64.06
71.16
78.70
84.43
86.57
84.22
77.54
67.55
55.74
43.51
31.70
20.32
8.69
-4.05
-18.40
-34.13
-50.17
-65.00
-77.07
-85.28
-89.09
-88.57
-84.18
-76.70
-67.20
-56.93
-47.29
-39.61
-34.82
-33.24
-34.44
-37.36
-40.53
-42.46
-41.93
-38.31
-31.57
-22.21
-10.96
1.36
14.08
26.66
38.63
49.59
59.17
67.07
73.13
77.37
79.97
81.15
81.13
79.97
77.58
73.55
67.41
58.71
47.44
34.35
20.96
9.11
0.17
-5.66
-9.63
-13.96
-20.78
-31.13
-44.28
-58.10
-69.87
-77.43
-79.86
-77.56
-71.74
-63.85
-55.09
-46.36
-38.48
-32.20
-28.11
-26.36
-26.35
-26.79
-26.20
-23.50
-18.53
-12.20
-6.08
-1.75
-0.18
-1.49
-5.12
-10.21
-16.18
-22.87
-30.50
-39.16
-48.42
-56.88
-62.40
-62.63
-55.94
-42.13
-22.81
-1.13
19.03
34.16
41.99
41.95
35.16
23.83
10.67
-1.77
-11.48
-17.26
-18.83
-16.99
-13.56
-10.83
-10.92
-14.96
-22.52
-31.64
-39.47
-43.32
-41.60
-34.43
-23.43
-10.99
0.56
9.71
15.97
19.82
22.33
24.70
27.98
32.80
38.98
45.64
51.24
54.16
53.26
48.40
40.67
31.96
24.19
18.47
14.76
12.03
8.91
4.21
-2.64
-11.69
-22.71
-35.20
-48.46
-61.43
-72.72
-80.84
-84.70
-83.81
-78.43
-69.45
-57.99
-45.22
-32.17
-19.74
-8.70
0.36
7.22
12.03
15.20
17.39
19.23
21.34
24.21
28.29
33.91
41.15
49.76
59.09
68.28
76.34
82.54
86.43
87.95
87.33
85.00
81.39
76.77
71.13
64.04
54.80
42.66
27.41
9.84
-7.91
-22.72
-31.32
-31.45
-22.92
-7.85
9.89
25.96
37.06
41.74
40.50
35.04
27.30
18.72
10.06
1.79
-5.60
-11.40
-15.01
-16.44
-16.75
-17.85
-21.97
-30.62
-43.92
-60.44
-77.64
-92.76
-103.66
-109.32
-109.84
-106.19
-99.62
-91.21
-81.69
-71.36
-60.31
-48.69
-36.99
-26.06
-17.03
-10.86
-7.92
-7.76
-9.10
-10.19
-9.21
-4.67
4.45
18.43
36.73
57.89
79.74
99.83
115.94
126.67
131.65
131.50
127.37
120.51
111.85
101.93
90.91
78.86
65.80
51.74
36.50
19.62
0.40
-21.74
-46.85
-73.99
-101.27
-126.21
-146.51
-160.62
-168.21
-169.89
-166.95
-160.85
-152.90
-144.07
-134.75
-124.72
-113.17
-99.17
-82.36
-63.48
-44.59
-28.32
-16.81
-10.38
-7.16
-3.74
3.26
15.53
32.17
50.03
65.26
74.91
78.18
76.28
71.47
65.76
60.11
54.50
48.63
42.80
38.06
35.84
36.98
41.00
46.06
49.61
49.52
44.97
36.75
26.72
16.88
8.38
1.19
-5.60
-13.00
-21.18
-29.29
-35.76
-39.22
-39.19
-36.32
-31.95
-27.31
-23.04
-19.02
-14.78
-10.01
-4.95
-0.36
2.83
3.90
2.74
-0.06
-3.29
-5.28
-4.26
1.13
11.28
25.19
40.50
54.08
62.91
65.16
60.68
50.89
38.12
24.81
12.90
3.68
-2.07
-3.92
-1.67
4.59
14.49
27.42
42.72
59.71
77.58
95.15
110.51
121.17
124.73
119.76
106.66
88.00
67.89
50.82
40.32
37.89
42.91
53.21
66.17
79.59
92.05
102.71
110.96
116.30
118.47
117.85
115.50
112.78
110.67
109.14
106.98
102.27
93.22
78.90
59.53
36.33
11.00
-14.69
-39.23
-61.45
-80.61
-96.39
-109.11
-119.59
-128.92
-138.03
-147.23
-156.09
-163.52
-168.26
-169.33
-166.52
-160.38
-151.99
-142.28
-131.65
-119.86
-106.43
-91.28
-75.17
-59.81
-47.19
-38.77
-34.82
-34.16
-34.67
-34.13
-30.93
-24.33
-14.32
-1.16
14.87
33.33
53.43
73.75
92.29
106.77
115.13
116.02
109.02
94.57
73.73
48.05
19.53
-9.42
-35.93
-56.92
-69.42
-71.36
-62.03
-42.51
-15.29
16.18
48.18
77.31
100.75
116.29
122.31
117.85
102.82
78.35
46.88
11.98
-22.16
-51.60
-73.50
-86.55
-91.10
-88.68
-81.28
-70.87
-59.01
-46.87
-35.47
-25.78
-18.62
-14.46
-13.11
-13.70
-14.96
-15.60
-14.83
-12.61
-9.64
-7.02
-5.78
-6.32
-8.02
-9.22
-7.77
-1.76
9.58
25.41
43.39
60.30
72.92
78.93
77.20
67.82
51.72
30.17
4.60
-23.50
-52.52
-80.68
-106.08
-126.97
-142.11
-151.06
-154.43
-153.75
-151.09
-148.53
-147.53
-148.67
-151.63
-155.48
-159.12
-161.50
-161.74
-159.03
-152.58
-141.77
-126.40
-106.99
-84.87
-62.08
-40.96
-23.60
-11.38
-4.68
-2.82
-4.37
-7.51
-10.54
-12.22
-12.00
-9.91
-6.30
-1.61
3.85
9.77
15.77
21.27
25.61
28.30
29.52
30.24
32.14
36.91
45.39
57.00
69.67
80.59
87.34
88.85
85.75
80.05
74.19
70.13
68.85
70.47
74.73
81.52
91.12
103.88
119.81
138.09
157.05
174.39
187.79
195.40
196.17
189.85
176.83
158.07
135.00
109.55
83.86
60.06
39.79
23.83
11.96
3.13
-3.99
-10.55
-17.03
-23.16
-28.26
-31.59
-32.81
-32.00
-29.70
-26.57
-23.23
-20.19
-17.86
-16.59
-16.52
-17.51
-19.02
-20.24
-20.26
-18.37
-14.20
-7.87
-0.07
8.06
15.08
19.54
20.41
17.37
10.99
2.53
-6.40
-14.46
-20.86
-25.54
-28.83
-30.97
-31.76
-30.42
-25.93
-17.43
-4.76
11.48
30.01
49.30
67.90
84.46
97.78
106.67
110.26
108.13
100.64
88.87
74.26
58.22
41.64
24.99
8.48
-7.51
-22.31
-35.08
-45.27
-52.91
-58.66
-63.54
-68.23
-72.64
-75.71
-75.90
-71.85
-63.13
-50.67
-36.46
-22.90
-12.03
-4.92
-1.60
-1.20
-2.40
-3.70
-3.67
-1.27
3.79
10.67
17.26
20.65
18.11
8.20
-8.47
-29.43
-51.32
-71.28
-87.79
-100.82
-111.13
-119.25
-124.68
-126.01
-121.54
-110.33
-92.86
-71.17
-48.14
-26.41
-7.39
9.20
24.82
40.90
57.61
73.23
84.75
89.24
85.55
74.97
60.85
47.03
36.23
29.11
24.55
20.73
16.35
11.35
6.84
4.41
5.49
10.73
19.93
32.03
45.37
58.04
68.35
75.30
78.80
79.64
79.02
78.05
77.34
76.92
76.61
76.23
75.86
75.67
75.87
76.55
77.87
80.15
83.86
89.25
95.85
102.09
105.43
103.13
93.32
75.86
52.60
26.92
2.63
-17.18
-31.00
-39.12
-43.23
-45.71
-48.81
-54.05
-62.16
-73.23
-87.08
-103.49
-121.91
-141.06
-158.67
-171.73
-177.38
-174.21
-162.97
-146.61
-129.18
-114.27
-103.64
-96.96
-92.44
-88.09
-82.95
-77.45
-72.93
-70.70
-71.21
-73.71
-76.73
-78.76
-78.91
-77.19
-74.16
-70.41
-66.18
-61.26
-55.25
-47.95
-39.49
-30.23
-20.61
-10.79
-0.73
9.62
20.17
30.70
41.15
51.85
63.68
77.72
94.76
114.72
136.46
157.98
177.12
192.25
202.73
209.06
212.43
214.26
215.66
217.27
219.32
221.76
224.40
226.95
228.83
229.24
227.38
223.03
216.95
210.57
205.11
200.47
194.73
184.80
167.96
143.49
113.43
82.03
53.77
31.49
15.29
2.95
-8.50
-21.15
-35.21
-49.14
-60.66
-67.92
-70.22
-68.27
-63.90
-59.56
-57.83
-61.00
-70.57
-86.51
-106.86
-127.61
-143.65
-150.68
-147.01
-134.67
-119.04
-106.98
-104.26
-113.21
-131.55
-153.26
-170.85
-178.29
-173.11
-157.13
-135.27
-113.35
-95.96
-85.10
-80.57
-81.11
-85.90
-94.80
-108.00
-124.94
-143.80
-162.12
-178.07
-191.30
-203.03
-214.67
-226.08
-234.70
-235.84
-224.45
-197.40
-155.03
-101.03
-40.96
19.78
77.34
129.36
174.03
208.95
231.05
237.63
227.87
203.60
168.66
126.86
80.10
27.95
-30.79
-95.42
-161.00
-218.31
-256.40
-266.43
-245.42
-197.67
-133.50
-65.92
-6.64
37.14
63.90
77.02
82.81
88.03
97.81
114.26
136.15
159.45
178.77
189.14
187.55
173.73
150.24
121.62
93.14
69.52
53.70
45.96
43.53
41.15
32.53
12.60
-20.01
-61.88
-105.38
-141.17
-161.48
-162.87
-147.00
-119.14
-85.80
-52.25
-21.31
6.33
30.85
52.02
68.26
76.71
74.13
58.36
29.45
-10.04
-55.52
-102.07
-145.90
-185.29
-220.69
-254.07
-288.02
-324.67
-364.64
-406.29
-445.48
-476.40
-493.03
-491.14
-469.92
-432.26
-383.42
-329.13
-273.83
-220.09
-169.18
-122.02
-79.54
-42.24
-9.54
20.96
52.97
90.21
134.67
185.18
237.06
282.92
314.98
327.63
319.51
294.05
258.27
220.39
187.23
162.64
147.31
139.86
138.17
140.41
145.08
150.79
155.86
158.37
156.63
149.80
138.26
123.63
108.23
94.28
83.32
75.90
71.69
69.91
69.75
70.59
72.07
73.90
75.77
77.24
77.77
76.80
73.90
68.96
62.36
55.11
48.73
44.93
45.12
49.97
59.27
72.01
86.74
101.67
114.65
123.23
124.93
118.03
102.62
81.25
58.49
39.38
27.44
23.14
23.87
25.17
22.57
13.10
-4.31
-29.31
-60.93
-97.84
-138.27
-179.56
-218.04
-249.63
-270.86
-279.85
-276.77
-263.37
-241.94
-214.27
-181.09
-142.35
-97.96
-48.71
3.38
55.40
104.56
149.06
188.12
221.12
246.37
260.58
259.74
241.27
206.03
159.17
108.84
63.34
28.31
5.37
-7.38
-13.27
-14.75
-12.28
-4.66
9.60
30.95
58.28
89.41
121.86
153.51
182.65
207.60
226.30
236.13
234.36
218.88
189.05
146.17
93.51
35.71
-22.09
-75.27
-120.46
-156.03
-181.93
-199.24
-209.55
-214.26
-214.26
-209.93
-201.41
-189.05
-173.74
-156.98
-140.54
-125.95
-114.04
-104.69
-97.10
-90.19
-83.11
-75.51
-67.59
-59.79
-52.45
-45.72
-39.42
-33.35
-27.37
-21.47
-15.83
-10.64
-6.21
-2.77
-0.60
0.06
-0.93
-3.48
-7.08
-10.79
-13.40
-13.78
-11.21
-5.63
2.37
11.72
21.19
29.65
36.19
40.22
41.40
39.66
35.21
28.58
20.62
12.36
4.95
-0.71
-4.10
-5.22
-4.59
-3.07
-1.55
-0.72
-0.84
-1.90
-3.63
-5.83
-8.37
-11.25
-14.53
-18.25
-22.43
-27.07
-32.06
-37.04
-41.32
-43.87
-43.49
-39.33
-31.08
-19.32
-5.29
9.33
22.91
34.19
42.43
47.34
48.95
47.52
43.51
37.63
30.85
24.29
19.01
15.76
14.84
15.97
18.57
21.78
24.81
27.11
28.34
28.39
27.27
25.08
21.94
18.11
13.88
9.50
5.13
0.70
-4.02
-9.35
-15.22
-21.08
-25.93
-28.60
-28.25
-24.64
-18.19
-9.80
-0.55
8.55
16.52
22.50
25.71
25.74
22.79
17.81
12.22
7.46
4.53
3.70
4.65
6.85
9.81
13.20
16.75
20.08
22.64
23.86
23.31
20.88
16.93
12.00
6.74
1.68
-2.89
-6.85
-10.29
-13.40
-16.40
-19.45
-22.60
-25.56
-27.73
-28.25
-26.18
-20.95
-12.64
-2.02
9.59
20.73
30.23
37.46
42.25
44.70
44.89
42.91
38.95
33.44
27.18
21.15
16.32
13.30
12.31
13.08
15.07
17.61
20.13
22.16
23.38
23.62
22.78
20.79
17.63
13.40
8.32
2.84
-2.58
-7.52
-11.80
-15.52
-19.03
-22.76
-27.04
-31.84
-36.68
-40.63
-42.48
-41.05
-35.58
-26.05
-13.21
1.54
16.56
30.37
41.87
50.47
55.89
58.09
57.11
53.25
47.08
39.46
31.43
23.93
17.56
12.46
8.48
5.29
2.67
0.56
-0.94
-1.70
-1.71
-1.10
-0.23
0.44
0.45
-0.42
-2.18
-4.50
-6.87
-8.82
-10.10
-10.85
-11.43
-12.30
-13.73
-15.71
-17.81
-19.27
-19.17
-16.68
-11.38
-3.37
6.55
17.12
26.88
34.53
39.30
40.95
39.73
36.11
30.70
24.16
17.14
10.39
4.61
0.42
-1.85
-2.17
-0.87
1.55
4.42
7.14
9.20
10.28
10.18
8.90
6.54
3.25
-0.77
-5.33
-10.14
-14.87
-19.18
-22.90
-26.02
-28.75
-31.37
-33.97
-36.29
-37.66
-37.16
-34.01
-27.83
-18.86
-7.87
3.98
15.48
25.61
33.61
38.96
41.29
40.48
36.63
30.31
22.52
14.59
7.92
3.60
2.10
3.16
5.95
9.37
12.46
14.60
15.69
15.99
15.89
15.67
15.37
14.70
13.27
10.69
6.81
1.68
-4.54
-11.56
-19.03
-26.43
-32.98
-37.72
-39.67
-38.11
-32.84
-24.30
-13.35
-1.09
11.45
23.32
33.57
41.12
44.90
44.01
38.27
28.47
16.38
4.46
-4.88
-9.91
-10.12
-6.22
0.12
6.88
12.22
14.92
14.53
11.30
5.86
-0.96
-8.34
-15.63
-22.38
-28.28
-33.27
-37.48
-41.07
-44.07
-46.20
-46.84
-45.16
-40.49
-32.56
-21.74
-8.95
4.51
17.30
28.23
36.33
40.84
41.23
37.34
29.47
18.59
6.25
-5.74
-15.60
-22.10
-24.72
-23.73
-19.94
-14.44
-8.23
-2.10
3.39
7.93
11.30
13.30
13.74
12.58
9.84
5.70
0.40
-5.80
-12.58
-19.43
-25.65
-30.33
-32.55
-31.69
-27.64
-20.93
-12.59
-3.82
4.30
11.05
16.06
19.19
20.40
19.69
17.22
13.42
9.02
5.01
2.32
1.55
2.71
5.26
8.32
11.06
12.89
13.63
13.38
12.26
10.29
7.34
3.25
-2.03
-8.34
-15.32
-22.48
-29.28
-35.13
-39.35
-41.23
-40.09
-35.57
-27.83
-17.60
-6.03
5.59
16.13
24.78
31.03
34.62
35.40
33.40
28.93
22.60
15.40
8.39
2.57
-1.48
-3.65
-4.30
-4.01
-3.41
-2.93
-2.65
-2.48
-2.25
-1.93
-1.74
-2.08
-3.45
-6.23
-10.66
-16.60
-23.55
-30.62
-36.56
-40.05
-40.00
-35.88
-27.96
-17.26
-5.19
6.79
17.54
26.37
32.86
36.79
38.03
36.61
32.90
27.68
22.08
17.37
14.51
13.95
15.43
18.10
20.86
22.64
22.73
20.79
16.77
10.76
2.85
-6.83
-17.98
-30.00
-41.99
-52.95
-61.96
-68.33
-71.55
-71.14
-66.62
-57.60
-44.10
-26.70
-6.73
14.03
33.66
50.47
63.25
71.28
74.22
72.08
65.30
54.86
42.28
29.49
18.37
10.36
6.02
4.93
5.92
7.53
8.52
8.25
6.80
4.72
2.80
1.57
1.13
1.17
1.12
0.36
-1.63
-5.16
-10.38
-17.17
-25.07
-33.13
-40.02
-44.27
-44.70
-40.87
-33.16
-22.76
-11.21
-0.02
9.54
16.64
20.72
21.55
19.21
14.14
7.27
-0.18
-6.85
-11.59
-13.71
-13.15
-10.42
-6.41
-2.10
1.77
4.82
7.06
8.60
9.51
9.57
8.41
5.67
1.23
-4.67
-11.57
-18.87
-25.97
-32.15
-36.59
-38.34
-36.63
-31.21
-22.62
-12.07
-1.08
9.03
17.52
24.17
29.08
32.14
33.08
31.46
27.10
20.32
12.07
3.68
-3.49
-8.39
-10.61
-10.32
-8.30
-5.54
-3.08
-1.68
-1.70
-3.12
-5.61
-8.70
-11.93
-14.87
-17.23
-18.82
-19.51
-19.10
-17.32
-13.76
-8.04
-0.03
10.08
21.62
33.62
44.97
54.62
61.79
65.93
66.69
63.95
57.81
48.80
37.90
26.44
15.84
7.27
1.36
-1.87
-2.95
-2.63
-1.67
-0.59
0.29
0.85
1.02
0.75
-0.04
-1.50
-3.80
-7.19
-11.84
-17.72
-24.39
-30.95
-36.09
-38.47
-37.07
-31.62
-22.72
-11.66
-0.02
10.72
19.56
25.94
29.67
30.74
29.25
25.43
19.78
13.12
6.52
1.03
-2.60
-4.12
-3.82
-2.37
-0.53
1.04
1.93
1.94
0.99
-0.91
-3.69
-7.18
-11.20
-15.54
-20.03
-24.64
-29.39
-34.19
-38.71
-42.26
-43.85
-42.52
-37.62
-29.12
-17.70
-4.58
8.84
21.19
31.42
38.85
43.07
43.97
41.70
36.69
29.70
21.75
13.98
7.38
2.71
0.23
-0.15
1.07
3.16
5.34
6.88
7.30
6.35
4.10
0.77
-3.23
-7.53
-11.79
-15.80
-19.42
-22.68
-25.69
-28.51
-31.13
-33.16
-33.96
-32.72
-28.81
-22.03
-12.84
-2.13
8.94
19.34
28.33
35.49
40.60
43.47
43.91
41.77
37.15
30.47
22.50
14.22
6.61
0.41
-4.01
-6.63
-7.69
-7.59
-6.77
-5.65
-4.70
-4.29
-4.66
-5.82
-7.57
-9.58
-11.58
-13.44
-15.33
-17.61
-20.72
-24.89
-29.97
-35.28
-39.72
-42.05
-41.24
-36.85
-29.16
-19.08
-7.91
3.10
12.97
21.01
26.85
30.31
31.33
30.05
26.83
22.25
17.13
12.27
8.38
5.89
4.92
5.27
6.51
8.08
9.36
9.85
9.24
7.42
4.54
0.83
-3.41
-7.86
-12.26
-16.39
-20.10
-23.36
-26.30
-29.04
-31.55
-33.52
-34.25
-32.93
-28.93
-22.13
-13.06
-2.72
7.67
17.02
24.52
29.69
32.31
32.37
29.96
25.48
19.57
13.07
6.91
1.96
-1.17
-2.25
-1.45
0.71
3.53
6.30
8.46
9.66
9.81
8.94
7.16
4.57
1.19
-2.90
-7.64
-12.95
-18.64
-24.47
-30.05
-34.73
-37.70
-38.10
-35.28
-29.02
-19.77
-8.48
3.52
14.86
24.40
31.40
35.47
36.52
34.73
30.49
24.51
17.79
11.55
6.92
4.64
4.82
6.86
9.69
12.09
13.11
12.20
9.38
4.97
-0.55
-6.77
-13.36
-20.07
-26.63
-32.75
-38.21
-42.81
-46.41
-48.76
-49.42
-47.73
-43.01
-34.88
-23.49
-9.72
4.99
18.98
30.79
39.49
44.75
46.73
45.81
42.52
37.34
30.76
23.37
15.80
8.77
2.97
-1.04
-3.01
-2.94
-1.10
2.01
5.80
9.59
12.67
14.41
14.33
12.21
8.12
2.44
-4.36
-11.80
-19.55
-27.37
-34.93
-41.59
-46.36
-48.04
-45.60
-38.62
-27.53
-13.65
1.09
14.67
25.36
32.09
34.57
33.20
28.92
22.98
16.67
10.97
6.54
3.53
1.78
0.95
0.79
1.15
2.03
3.42
5.07
6.57
7.33
6.79
4.63
0.90
-4.04
-9.62
-15.30
-20.73
-25.71
-30.11
-33.78
-36.43
-37.71
-37.31
-35.04
-30.85
-24.86
-17.18
-8.04
2.28
13.30
24.19
33.82
40.95
44.51
43.93
39.43
31.89
22.66
13.22
4.75
-2.00
-6.76
-9.53
-10.51
-9.92
-8.11
-5.57
-3.03
-1.36
-1.44
-3.83
-8.58
-15.09
-22.25
-28.81
-33.75
-36.57
-37.32
-36.38
-34.09
-30.45
-25.08
-17.43
-7.12
5.82
20.83
36.90
52.66
66.46
76.59
81.45
79.96
71.85
57.97
40.24
21.25
3.65
-10.51
-20.18
-25.37
-26.87
-25.79
-23.03
-19.13
-14.28
-8.58
-2.33
3.84
9.01
12.25
12.85
10.47
5.15
-2.71
-12.41
-22.91
-32.84
-40.70
-45.11
-45.17
-40.74
-32.49
-21.78
-10.32
0.17
8.29
13.21
14.75
13.40
10.16
6.26
2.83
0.71
0.25
1.39
3.74
6.81
10.03
12.90
14.97
15.86
15.32
13.26
9.77
5.13
-0.25
-5.88
-11.37
-16.55
-21.35
-25.85
-30.02
-33.61
-36.11
-36.82
-35.14
-30.75
-23.84
-15.03
-5.27
4.36
12.72
18.87
22.14
22.30
19.69
15.13
9.80
4.98
1.84
1.13
3.06
7.28
12.82
18.32
22.30
23.61
21.78
17.13
10.65
3.54
-3.20
-9.12
-14.26
-19.05
-23.94
-29.25
-34.97
-40.64
-45.47
-48.53
-49.01
-46.52
-41.16
-33.43
-23.96
-13.29
-1.75
10.27
21.94
31.86
38.13
39.08
34.06
24.07
11.75
0.69
-5.88
-6.37
-1.49
6.05
12.79
16.09
15.33
12.21
9.99
11.94
19.94
33.35
49.32
63.63
72.09
71.85
62.37
45.84
27.11
12.69
8.48
17.03
35.33
54.30
60.69
41.62
-10.03
-91.71
-191.03
-289.75
-370.33
-421.91
-443.13
-440.49
-423.90
-401.76
-378.30
-353.97
-327.82
-300.08
-272.86
-248.86
-229.13
-211.76
-192.07
-164.81
-126.47
-76.53
-17.17
47.78
113.96
176.96
232.29
275.43
302.79
313.26
309.40
297.02
283.24
273.75
270.88
273.41
278.10
281.76
282.74
280.95
276.86
270.53
261.38
248.88
233.46
216.70
200.88
187.77
177.53
168.30
156.85
140.00
116.01
85.59
51.75
18.83
-8.99
-28.90
-40.11
-43.77
-42.44
-39.41
-37.88
-40.32
-47.91
-60.11
-74.85
-89.00
-99.35
-103.56
-100.73
-91.50
-77.60
-61.19
-44.27
-28.42
-14.66
-3.55
4.73
10.45
14.15
16.63
18.64
20.75
23.09
25.49
27.55
28.97
29.74
30.17
30.70
31.64
32.99
34.26
34.66
33.37
29.83
23.93
16.06
6.94
-2.55
-11.50
-19.12
-24.67
-27.62
-27.68
-24.89
-19.73
-13.04
-5.87
0.73
5.91
9.13
10.23
9.29
6.64
2.71
-2.07
-7.28
-12.52
-17.41
-21.52
-24.35
-25.47
-24.54
-21.49
-16.41
-9.57
-1.29
8.02
17.73
26.98
34.59
39.51
41.02
39.12
34.46
28.04
20.87
13.63
6.59
-0.26
-7.05
-13.80
-20.43
-26.84
-32.92
-38.51
-43.37
-47.14
-49.33
-49.48
-47.26
-42.66
-36.02
-28.04
-19.65
-11.79
-5.28
-0.59
2.08
2.80
1.78
-0.65
-4.10
-8.03
-11.82
-14.80
-16.36
-16.16
-14.17
-10.74
-6.48
-2.14
1.54
4.02
5.10
4.89
3.73
2.09
0.33
-1.41
-3.14
-4.93
-6.82
-8.76
-10.64
-12.37
-13.87
-15.11
-15.96
-16.27
-15.88
-14.82
-13.31
-11.66
-10.09
-8.46
-6.35
-3.21
1.35
7.24
13.90
20.46
26.09
30.18
32.45
32.93
31.70
28.88
24.63
19.24
13.22
7.23
1.97
-1.97
-4.25
-4.90
-4.26
-2.90
-1.45
-0.45
-0.25
-0.97
-2.41
-4.16
-5.68
-6.43
-6.07
-4.58
-2.38
-0.26
0.80
0.04
-2.79
-7.18
-12.06
-16.15
-18.55
-19.08
-18.35
-17.38
-17.19
-18.42
-21.08
-24.67
-28.35
-31.21
-32.43
-31.47
-28.13
-22.59
-15.29
-6.93
1.71
9.76
16.41
20.97
23.04
22.65
20.26
16.66
12.78
9.43
7.11
5.99
6.00
6.96
8.59
10.61
12.72
14.63
16.02
16.64
16.30
14.97
12.77
10.02
7.10
4.37
2.04
0.09
-1.68
-3.57
-5.77
-8.35
-11.16
-14.01
-16.66
-19.02
-21.08
-23.04
-25.13
-27.58
-30.51
-33.75
-36.82
-38.95
-39.25
-36.94
-31.70
-23.78
-13.97
-3.40
6.72
15.36
21.87
25.98
27.81
27.69
26.13
23.72
21.00
18.49
16.61
15.61
15.56
16.29
17.47
18.66
19.47
19.69
19.31
18.51
17.48
16.32
15.00
13.34
11.22
8.65
5.80
2.93
0.28
-2.06
-4.16
-6.22
-8.38
-10.72
-13.17
-15.66
-18.06
-20.31
-22.46
-24.60
-26.84
-29.25
-31.88
-34.70
-37.60
-40.28
-42.18
-42.60
-40.84
-36.47
-29.53
-20.63
-10.87
-1.53
6.39
12.37
16.50
19.21
21.10
22.62
24.06
25.56
27.14
28.79
30.36
31.51
31.83
30.94
28.78
25.65
22.29
19.50
17.89
17.58
18.24
19.17
19.67
19.21
17.60
15.02
11.84
8.45
5.04
1.57
-2.21
-6.53
-11.38
-16.41
-20.93
-24.17
-25.56
-25.02
-23.01
-20.40
-18.22
-17.32
-18.13
-20.53
-23.80
-26.78
-28.14
-26.75
-22.05
-14.28
-4.43
6.12
16.02
24.35
30.79
35.41
38.37
39.56
38.65
35.27
29.44
21.87
13.86
6.92
2.14
-0.22
-0.78
-0.62
-0.56
-0.68
-0.22
1.96
6.74
14.05
22.68
30.68
36.18
38.32
37.76
36.54
37.13
41.32
49.18
59.01
68.01
73.66
75.05
73.18
70.38
68.99
70.64
76.20
86.39
102.02
123.31
148.73
173.87
191.68
194.17
175.13
132.44
68.64
-10.43
-98.11
-188.79
-277.90
-360.18
-427.94
-470.90
-478.78
-446.08
-376.35
-283.35
-187.52
-108.79
-58.90
-37.15
-32.19
-28.67
-15.29
10.28
41.66
68.56
82.65
81.38
67.79
47.68
26.38
7.06
-8.65
-19.38
-23.27
-18.89
-7.26
6.94
16.52
14.88
-0.12
-24.01
-46.95
-57.66
-48.27
-17.74
28.42
81.45
132.89
177.17
211.38
233.90
243.76
241.25
228.16
208.39
186.97
168.12
154.02
145.22
141.69
143.62
150.65
158.91
161.37
150.28
120.61
72.76
12.20
-53.71
-118.95
-180.35
-238.24
-293.06
-343.11
-385.41
-418.74
-446.05
-474.36
-510.90
-544.82
-560.59
-542.89
-484.84
-392.65
-282.05
-170.63
-72.17
5.73
58.69
90.50
105.85
110.52
112.03
118.33
134.78
161.46
193.00
219.16
229.02
216.05
182.05
136.52
92.36
60.42
45.82
47.67
61.36
80.88
100.57
116.20
124.98
125.30
116.83
100.94
80.66
60.06
42.96
31.48
25.77
24.18
23.80
21.53
15.04
3.48
-12.26
-29.77
-46.13
-58.59
-65.30
-65.60
-59.96
-49.56
-35.80
-19.99
-3.25
13.31
28.34
40.37
48.02
50.45
47.70
40.76
31.29
21.11
11.68
3.87
-2.08
-6.29
-8.99
-10.37
-10.61
-10.01
-8.95
-7.92
-7.35
-7.51
-8.54
-10.31
-12.59
-15.03
-17.30
-19.13
-20.45
-21.47
-22.58
-24.18
-26.42
-28.93
-30.82
-30.87
-28.00
-21.73
-12.40
-1.09
10.74
21.77
31.14
38.50
43.78
46.90
47.74
46.22
42.53
37.22
31.17
25.35
20.59
17.47
16.23
16.88
19.15
22.51
26.18
29.29
31.18
31.65
30.92
29.48
27.64
25.39
22.36
18.18
12.76
6.45
-0.10
-6.28
-11.71
-16.25
-19.87
-22.35
-23.21
-21.89
-17.98
-11.46
-2.80
7.14
17.39
26.93
34.92
40.65
43.64
43.70
41.00
36.07
29.79
23.22
17.35
12.94
10.29
9.24
9.18
9.34
8.95
7.45
4.61
0.47
-4.78
-10.87
-17.57
-24.60
-31.61
-38.13
-43.68
-48.02
-51.33
-54.21
-57.36
-61.16
-65.20
-68.30
-68.89
-65.65
-58.24
-47.54
-35.34
-23.70
-14.35
-8.16
-5.28
-5.33
-7.48
-10.54
-12.75
-12.06
-6.67
4.12
19.32
36.32
51.81
63.00
68.77
69.78
67.87
64.85
61.74
58.66
55.48
52.60
51.10
52.39
57.29
65.39
74.84
83.13
88.03
88.60
85.56
80.88
76.80
74.76
74.69
74.99
73.23
67.15
55.62
39.15
19.63
0.03
-16.44
-26.84
-28.93
-21.60
-5.14
18.63
46.42
74.07
97.45
113.33
120.02
117.72
108.45
95.62
83.40
75.81
75.66
83.69
98.17
115.33
130.60
140.13
142.21
137.65
129.38
121.09
115.91
115.28
118.81
124.65
130.17
132.74
130.27
121.47
106.05
84.74
59.16
31.54
4.15
-21.47
-45.03
-67.63
-91.46
-118.81
-150.68
-185.78
-220.56
-250.39
-271.70
-283.60
-288.20
-289.20
-289.58
-289.83
-288.13
-282.14
-271.30
-258.04
-246.84
-241.61
-243.10
-247.95
-250.01
-243.37
-225.06
-196.29
-161.49
-126.22
-94.86
-69.31
-49.24
-33.12
-19.62
-8.39
0.06
4.98
6.28
5.00
3.11
2.71
5.27
10.93
18.59
26.48
32.91
36.90
38.45
38.29
37.43
36.63
36.17
35.76
34.91
33.07
29.97
25.71
20.74
15.73
11.37
8.31
6.85
7.05
8.73
11.66
15.70
20.88
27.29
34.89
43.27
51.58
58.64
63.24
64.56
62.41
57.26
50.11
42.22
34.75
28.63
24.37
22.12
21.69
22.69
24.57
26.73
28.56
29.48
28.98
26.77
22.88
17.67
11.81
6.06
1.03
-3.04
-6.28
-9.06
-11.79
-14.68
-17.62
-20.20
-21.78
-21.75
-19.58
-14.98
-7.97
1.11
11.56
22.39
32.42
40.48
45.53
46.97
44.78
39.68
32.94
26.08
20.49
17.02
15.80
16.36
17.89
19.62
21.03
21.93
22.28
22.07
21.18
19.49
16.96
13.76
10.19
6.56
3.16
0.08
-2.70
-5.26
-7.71
-10.14
-12.48
-14.54
-15.88
-15.87
-13.86
-9.42
-2.62
5.95
15.28
24.35
32.30
38.67
43.30
46.12
46.95
45.49
41.47
34.86
26.10
16.16
6.33
-2.06
-8.01
-11.06
-11.36
-9.50
-6.34
-2.72
0.70
3.49
5.47
6.59
6.93
6.58
5.73
4.54
3.21
1.79
0.22
-1.66
-4.08
-7.17
-10.90
-14.95
-18.69
-21.36
-22.17
-20.64
-16.68
-10.69
-3.43
4.21
11.45
17.78
22.97
26.97
29.75
31.19
31.19
29.77
27.17
23.92
20.73
18.22
16.85
16.67
17.33
18.15
18.38
17.35
14.68
10.37
4.71
-1.81
-8.58
-15.00
-20.51
-24.68
-27.26
-28.30
-28.11
-27.21
-26.07
-25.02
-24.15
-23.29
-22.19
-20.58
-18.23
-14.94
-10.57
-5.07
1.50
8.88
16.62
24.07
30.48
35.05
37.15
36.47
33.18
27.96
21.82
15.82
10.78
7.06
4.59
3.04
2.10
1.60
1.59
2.20
3.44
5.10
6.71
7.66
7.39
5.63
2.50
-1.53
-5.85
-9.81
-12.98
-15.09
-16.11
-16.16
-15.63
-15.12
-15.30
-16.71
-19.38
-22.68
-25.36
-26.00
-23.57
-17.90
-9.82
-0.87
7.25
13.27
16.73
17.91
17.51
16.18
14.33
12.02
9.22
6.00
2.69
-0.21
-2.22
-3.08
-2.82
-1.66
0.06
2.02
3.93
5.55
6.61
6.81
5.95
3.95
0.89
-2.98
-7.27
-11.47
-15.07
-17.63
-19.00
-19.29
-18.90
-18.33
-17.86
-17.43
-16.57
-14.69
-11.24
-6.12
0.35
7.48
14.39
20.23
24.38
26.42
26.20
23.88
19.91
15.01
10.01
5.64
2.43
0.64
0.19
0.83
2.26
4.12
6.09
7.87
9.15
9.70
9.43
8.36
6.70
4.71
2.58
0.49
-1.50
-3.41
-5.17
-6.77
-8.20
-9.57
-10.96
-12.44
-13.81
-14.75
-14.88
-14.05
-12.41
-10.34
-8.16
-5.93
-3.39
-0.14
3.91
8.37
12.38
14.97
15.51
13.98
11.01
7.53
4.44
2.27
1.15
0.91
1.20
1.71
2.23
2.60
2.68
2.37
1.57
0.21
-1.65
-3.84
-6.10
-8.15
-9.85
-11.20
-12.37
-13.55
-14.84
-16.20
-17.47
-18.48
-19.07
-19.24
-18.98
-18.26
-16.93
-14.72
-11.40
-6.86
-1.19
5.27
12.04
18.58
24.28
28.58
30.97
31.13
29.00
24.88
19.39
13.30
7.36
2.14
-2.07
-5.16
-7.16
-8.13
-8.10
-7.17
-5.59
-3.82
-2.53
-2.45
-4.10
-7.54
-12.25
-17.22
-21.37
-23.87
-24.62
-24.16
-23.42
-23.20
-23.75
-24.58
-24.82
-23.67
-20.94
-17.10
-13.11
-9.86
-7.67
-6.20
-4.71
-2.40
1.19
6.03
11.74
17.73
23.38
28.06
31.23
32.41
31.38
28.26
23.55
18.01
12.49
7.70
4.21
2.38
2.23
3.47
5.51
7.55
8.86
9.05
8.12
6.45
4.54
2.78
1.29
-0.02
-1.40
-2.98
-4.77
-6.61
-8.23
-9.45
-10.21
-10.64
-11.06
-11.79
-12.99
-14.55
-15.95
-16.52
-15.58
-12.77
-8.13
-2.15
4.29
10.12
14.24
15.80
14.45
10.50
4.86
-1.20
-6.43
-9.99
-11.58
-11.42
-9.99
-7.78
-5.09
-2.12
0.94
3.79
6.08
7.55
8.27
8.72
9.60
11.47
14.17
16.66
17.23
14.35
7.83
-0.51
-6.97
-7.10
2.67
23.46
53.38
87.53
119.43
142.80
153.31
149.80
134.50
112.56
90.48
74.08
66.27
65.78
67.29
63.22
46.72
14.52
-31.34
-83.81
-133.06
-170.02
-189.55
-192.25
-183.98
-173.44
-168.69
-174.33
-189.95
-210.70
-229.09
-237.63
-231.14
-208.13
-170.64
-123.40
-72.34
-23.16
19.73
53.72
77.81
92.22
97.89
96.27
89.21
78.95
67.67
57.18
48.34
40.86
33.59
24.92
13.04
-3.78
-26.91
-56.62
-91.05
-125.44
-152.79
-165.62
-158.45
-129.92
-83.42
-26.23
32.52
84.10
121.87
142.34
145.42
134.29
114.51
92.61
74.16
62.17
56.48
54.42
52.54
48.35
41.25
32.43
23.97
17.81
15.13
16.39
21.44
29.93
41.43
55.37
70.87
86.90
102.22
115.65
126.19
133.18
136.60
137.18
136.48
136.40
138.59
143.73
151.17
159.18
165.41
167.53
163.41
151.21
129.61
98.08
57.47
10.26
-39.79
-88.57
-132.79
-170.78
-202.30
-227.50
-245.59
-254.07
-249.14
-227.45
-188.08
-134.06
-72.31
-12.07
37.39
68.96
78.96
67.34
37.30
-5.29
-52.43
-95.09
-124.89
-136.33
-128.75
-106.69
-78.35
-52.38
-34.51
-25.56
-21.71
-16.97
-6.43
11.40
34.10
56.71
73.95
82.13
80.06
68.73
50.77
29.78
10.12
-3.68
-7.91
-1.34
13.52
30.50
41.73
40.88
25.83
-0.51
-31.70
-60.75
-82.79
-96.12
-101.48
-100.52
-94.25
-82.82
-66.43
-46.38
-25.39
-6.81
6.71
14.47
17.84
19.64
22.63
28.37
36.60
45.46
52.62
56.37
56.39
53.72
49.88
45.89
41.66
36.09
27.87
16.39
2.35
-12.34
-25.32
-34.81
-40.31
-42.71
-43.72
-45.14
-48.08
-52.68
-58.30
-64.00
-69.05
-73.18
-76.60
-79.77
-83.06
-86.49
-89.71
-92.17
-93.43
-93.41
-92.42
-91.02
-89.76
-89.00
-88.87
-89.35
-90.46
-92.14
-94.26
-96.47
-98.38
-99.64
-100.04
-99.17
-95.92
-88.15
-72.98
-48.02
-13.04
28.95
71.96
108.72
133.32
143.33
140.34
128.94
114.51
101.23
91.20
84.65
81.04
79.86
80.97
84.14
88.60
92.68
94.19
91.18
82.72
69.32
52.83
35.78
20.46
8.22
-0.90
-7.95
-14.50
-21.92
-30.77
-40.38
-48.79
-53.23
-50.93
-40.17
-21.18
3.67
30.42
54.76
73.34
84.56
88.53
86.44
79.80
70.08
58.92
48.43
41.12
39.17
43.37
52.31
62.65
70.14
71.33
64.86
51.89
35.44
19.19
6.06
-2.51
-6.70
-7.76
-7.38
-7.02
-7.58
-9.22
-11.56
-13.99
-15.89
-17.00
-17.43
-17.58
-17.90
-18.58
-19.36
-19.41
-17.65
-12.97
-4.62
7.35
21.91
37.09
50.15
58.15
58.78
51.31
37.25
20.25
5.06
-4.17
-5.41
0.58
10.62
20.54
26.68
27.07
21.83
12.72
2.41
-6.45
-11.79
-12.67
-9.36
-3.23
3.53
8.42
9.20
4.40
-6.27
-21.65
-39.06
-54.76
-64.99
-67.21
-61.27
-49.52
-36.08
-25.21
-19.78
-20.26
-24.76
-30.01
-32.61
-30.38
-22.96
-11.78
0.53
11.09
17.81
19.93
18.19
14.34
10.44
8.02
7.67
9.06
11.34
13.68
15.67
17.28
18.67
19.92
20.87
21.29
21.13
20.65
20.35
20.66
21.54
22.37
22.21
20.19
16.05
10.28
4.01
-1.47
-5.24
-7.07
-7.53
-7.76
-8.99
-12.16
-17.50
-24.35
-31.29
-36.56
-38.57
-36.58
-30.91
-22.93
-14.50
-7.21
-1.84
1.88
5.03
8.88
14.25
21.16
28.81
35.93
41.25
43.91
43.63
40.77
36.05
30.31
24.23
18.33
12.86
8.02
4.00
1.04
-0.69
-1.16
-0.58
0.67
2.12
3.39
4.37
5.10
5.71
6.23
6.47
6.06
4.62
1.91
-1.95
-6.45
-10.83
-14.39
-16.70
-17.87
-18.48
-19.36
-21.30
-24.69
-29.27
-34.13
-38.03
-39.63
-38.11
-33.53
-26.90
-20.00
-14.71
-12.45
-13.57
-17.18
-21.53
-24.62
-24.92
-21.79
-15.61
-7.63
0.32
6.26
8.57
6.55
0.70
-7.24
-14.75
-19.37
-19.54
-15.17
-7.63
0.81
7.85
11.96
12.82
11.26
8.82
7.05
6.93
8.39
10.34
11.08
9.09
3.65
-4.97
-15.49
-26.21
-35.48
-41.97
-44.87
-43.74
-38.56
-29.70
-18.11
-5.24
7.03
16.87
22.93
24.69
22.68
18.20
12.97
8.51
5.79
5.05
5.94
7.89
10.41
13.33
16.64
20.34
24.08
27.21
28.85
28.40
25.83
21.78
17.44
13.97
11.98
11.25
10.71
8.98
5.03
-1.38
-9.47
-17.79
-24.81
-29.46
-31.46
-31.32
-29.95
-28.29
-27.01
-26.35
-26.11
-25.83
-24.90
-22.69
-18.77
-12.96
-5.58
2.64
10.60
17.13
21.27
22.61
21.50
18.91
16.15
14.39
14.14
15.19
16.72
17.73
17.48
15.78
13.00
9.86
7.09
5.19
4.33
4.38
4.98
5.71
6.14
5.95
5.00
3.43
1.50
-0.50
-2.35
-4.02
-5.60
-7.23
-8.96
-10.75
-12.39
-13.74
-14.68
-15.19
-15.28
-14.82
-13.64
-11.60
-8.86
-5.97
-3.79
-3.17
-4.53
-7.73
-12.13
-17.19
-22.83
-29.67
-38.61
-50.17
-63.73
-77.28
-87.88
-92.50
-89.17
-77.69
-59.74
-38.23
-16.54
2.36
16.35
24.21
25.84
22.73
18.44
18.39
28.18
50.72
83.55
118.22
142.67
146.08
123.72
79.35
23.76
-29.66
-69.90
-91.36
-93.66
-79.39
-51.63
-13.03
33.53
83.52
130.47
167.26
188.29
191.57
179.30
156.93
130.80
105.87
84.40
65.78
47.63
27.41
3.72
-23.00
-50.75
-76.75
-98.41
-114.04
-123.14
-126.29
-124.76
-120.08
-113.71
-106.78
-99.93
-93.18
-85.87
-76.77
-64.46
-47.71
-25.99
0.30
29.37
57.80
80.56
91.79
86.39
62.29
22.10
-26.83
-74.28
-110.65
-130.34
-133.43
-124.83
-111.28
-98.18
-87.66
-78.93
-69.98
-59.44
-47.05
-32.67
-14.94
9.18
43.10
88.08
141.14
194.82
239.42
266.65
272.69
259.19
231.70
196.72
158.99
120.54
81.55
42.05
3.32
-31.96
-60.78
-81.00
-92.22
-95.59
-92.94
-85.94
-75.78
-63.54
-50.75
-39.61
-32.51
-31.08
-35.22
-42.93
-51.14
-57.28
-60.68
-63.21
-68.51
-80.30
-100.51
-128.09
-159.07
-187.70
-208.14
-215.89
-208.74
-187.09
-153.62
-112.70
-69.43
-28.67
5.94
32.38
49.98
58.70
58.55
49.73
33.39
12.41
-8.59
-24.52
-31.71
-29.49
-20.41
-8.94
0.67
6.03
7.13
5.47
2.88
0.86
0.57
3.11
9.24
18.83
30.37
41.17
48.60
51.37
50.26
47.69
46.31
47.60
51.34
56.07
60.19
62.84
64.01
63.95
62.47
58.77
51.93
41.81
29.54
17.47
8.45
4.72
7.13
14.75
25.26
35.83
44.11
48.85
50.09
48.82
46.38
43.97
42.34
41.74
42.06
42.91
43.60
43.14
40.31
34.05
23.95
10.80
-3.29
-15.29
-22.25
-22.36
-15.80
-4.58
8.15
19.31
26.85
30.12
29.53
25.83
19.54
10.73
-0.67
-14.41
-29.58
-44.61
-57.56
-66.62
-70.50
-68.77
-61.78
-50.51
-36.25
-20.34
-4.03
11.51
25.07
35.49
41.91
44.13
42.88
39.68
36.37
34.41
34.31
35.43
36.33
35.32
31.02
22.71
10.38
-5.31
-23.10
-41.23
-57.62
-70.21
-77.54
-79.19
-75.94
-69.29
-60.75
-51.06
-39.87
-26.08
-8.64
12.44
35.61
57.95
76.05
87.15
89.95
84.86
73.70
58.95
43.12
28.39
16.37
8.05
3.87
3.66
6.79
12.38
19.63
27.97
37.01
46.20
54.64
61.06
64.19
63.29
58.45
50.60
41.14
31.43
22.51
14.98
9.05
4.59
1.16
-1.93
-5.23
-8.83
-12.14
-14.03
-13.45
-10.11
-4.93
0.06
2.45
0.20
-7.72
-21.07
-38.39
-57.23
-74.63
-87.57
-93.72
-92.12
-83.54
-70.39
-55.94
-43.34
-34.67
-30.57
-30.48
-33.30
-38.01
-44.07
-51.15
-58.66
-65.35
-69.26
-68.16
-60.36
-45.46
-24.69
-0.71
23.14
43.81
59.24
68.57
72.00
70.36
64.76
56.54
47.32
38.93
33.11
30.89
32.05
35.26
38.88
42.06
45.41
50.77
59.94
73.32
89.02
103.21
111.30
109.33
94.99
67.83
29.14
-18.15
-69.35
-117.96
-156.45
-177.91
-178.29
-158.18
-123.04
-81.62
-43.09
-14.18
2.59
8.87
8.96
7.43
7.37
9.61
13.29
17.11
20.47
24.08
29.48
38.21
50.77
66.39
83.22
99.12
112.44
122.02
127.14
127.11
121.61
110.96
96.76
81.60
67.92
56.68
46.36
33.78
15.96
-7.78
-34.82
-60.15
-78.58
-86.84
-84.48
-73.52
-57.12
-38.80
-22.37
-12.34
-13.81
-31.39
-67.03
-118.00
-176.41
-230.48
-267.96
-279.84
-263.08
-221.36
-163.67
-101.45
-45.14
-2.19
24.07
33.68
29.08
14.32
-5.49
-24.56
-37.40
-40.27
-32.47
-16.76
1.87
18.31
29.43
34.86
36.29
35.67
33.85
30.30
24.02
14.79
3.88
-6.37
-13.73
-17.03
-16.34
-12.50
-6.29
1.92
11.94
23.07
33.55
40.84
42.46
37.24
26.14
12.13
-0.75
-8.91
-10.61
-6.48
0.93
8.33
13.14
14.41
12.95
10.72
9.81
11.40
15.29
19.90
22.99
22.49
17.38
8.18
-3.16
-13.94
-21.56
-24.46
-22.45
-16.64
-8.89
-1.11
5.33
9.87
12.67
14.36
15.62
16.86
18.00
18.60
18.20
16.79
15.00
13.93
14.66
17.65
22.43
27.75
32.14
34.61
35.11
34.55
34.38
35.90
39.70
45.28
51.19
55.38
55.87
51.46
42.30
29.97
17.06
6.33
-0.27
-2.32
-0.91
1.82
3.45
2.20
-2.57
-10.31
-19.53
-28.34
-34.99
-38.27
-37.66
-33.42
-26.40
-17.92
-9.50
-2.73
1.04
0.99
-2.78
-9.02
-15.39
-18.98
-17.24
-8.91
5.39
23.21
40.98
55.09
62.81
62.81
55.20
41.23
22.93
2.99
-15.59
-29.82
-37.38
-37.18
-29.81
-17.11
-1.52
14.94
31.01
45.83
57.99
65.00
63.46
50.42
25.32
-8.78
-45.07
-74.76
-89.90
-86.14
-64.16
-29.32
10.50
47.74
77.30
97.23
107.85
110.01
103.69
87.79
61.21
24.46
-19.02
-63.01
-99.87
-122.67
-127.14
-112.73
-82.47
-41.99
1.90
42.61
74.84
95.27
102.84
98.64
85.38
66.71
46.31
27.15
10.88
-2.29
-13.29
-23.55
-34.26
-45.81
-57.55
-68.07
-75.74
-79.39
-78.93
-75.57
-71.58
-69.50
-71.23
-77.05
-85.39
-93.24
-97.15
-94.55
-84.63
-68.55
-48.90
-28.71
-10.56
4.05
14.72
21.98
26.77
30.23
33.32
36.66
40.30
43.70
45.82
45.56
42.31
36.43
29.45
23.59
21.05
23.10
29.54
38.77
48.31
55.68
59.07
57.72
51.95
42.82
31.92
20.99
11.64
5.01
1.46
0.45
0.69
0.70
-0.67
-3.85
-8.48
-13.74
-18.71
-22.68
-25.15
-25.81
-24.41
-20.93
-15.71
-9.58
-3.73
0.57
2.44
1.80
-0.52
-3.08
-4.32
-3.23
0.20
4.94
9.38
11.93
11.63
8.41
3.01
-3.31
-9.20
-13.56
-15.89
-16.41
-16.06
-15.93
-16.58
-17.35
-16.30
-10.92
0.56
18.07
39.46
61.18
79.62
92.18
97.59
95.56
86.23
69.96
47.65
21.29
-6.02
-30.69
-49.67
-61.56
-66.86
-67.50
-65.68
-62.76
-58.72
-52.33
-42.16
-27.59
-9.61
9.09
24.91
34.54
36.06
29.66
17.49
2.96
-10.21
-19.01
-21.78
-18.64
-11.40
-3.06
3.19
5.22
2.79
-2.30
-7.08
-8.84
-6.47
-1.04
4.86
8.33
7.68
3.11
-3.51
-9.45
-12.39
-11.25
-6.48
0.17
6.43
10.28
10.62
7.29
0.83
-8.06
-18.87
-31.09
-43.73
-54.88
-61.82
-61.89
-53.81
-38.50
-19.23
-0.70
12.46
16.74
10.32
-7.26
-35.19
-71.18
-110.82
-147.44
-173.03
-180.55
-166.89
-134.70
-92.12
-50.07
-18.46
-2.61
-1.93
-11.04
-22.69
-30.82
-32.51
-28.19
-20.33
-11.42
-2.26
8.73
25.09
50.70
87.71
135.06
188.29
240.64
285.12
316.28
331.06
328.40
308.54
272.48
222.31
161.77
96.32
32.09
-25.93
-75.20
-115.33
-146.12
-165.57
-169.44
-153.23
-115.68
-61.57
-1.88
49.49
80.56
85.53
66.26
30.59
-11.32
-50.45
-80.77
-99.41
-105.60
-99.99
-84.42
-62.09
-37.41
-15.25
0.35
7.45
6.77
1.22
-5.36
-9.74
-10.42
-7.69
-3.07
1.78
5.90
9.20
12.13
15.08
17.99
20.37
21.68
21.65
20.49
18.87
17.68
17.73
19.43
22.49
25.61
26.54
22.86
13.12
-1.90
-18.72
-31.99
-36.41
-28.85
-9.75
17.10
45.96
71.26
89.00
97.32
95.95
85.34
66.03
38.46
3.21
-38.75
-85.65
-134.75
-182.20
-223.10
-252.20
-264.88
-258.43
-233.05
-192.03
-141.06
-86.88
-35.85
7.13
38.96
58.33
65.41
61.74
50.02
33.83
17.04
3.16
-5.33
-7.31
-3.08
6.00
17.73
29.45
38.39
42.27
39.94
31.94
20.40
8.48
-0.71
-5.09
-4.16
1.11
8.86
17.03
23.88
28.14
28.91
25.65
18.29
7.47
-5.23
-17.53
-26.84
-31.01
-28.96
-20.99
-8.64
5.89
20.35
33.00
42.66
48.67
50.72
48.95
44.06
37.42
30.92
26.38
24.94
26.62
30.33
34.36
37.17
37.90
36.54
33.56
29.37
24.08
17.48
9.49
0.60
-7.93
-14.32
-16.95
-14.96
-8.77
0.19
9.91
18.47
24.46
27.08
26.00
21.23
13.33
3.52
-6.11
-13.01
-15.00
-11.18
-2.57
8.01
16.91
20.96
18.60
10.38
-1.50
-14.10
-24.74
-31.62
-34.01
-32.05
-26.46
-18.37
-9.16
-0.31
6.84
11.46
13.42
13.47
12.88
13.07
14.97
18.66
23.23
27.09
28.43
25.91
19.09
8.59
-4.16
-17.40
-29.52
-39.31
-46.05
-49.39
-49.27
-45.83
-39.62
-31.58
-23.09
-15.65
-10.52
-8.28
-8.53
-10.00
-10.92
-9.74
-5.75
0.64
8.09
14.84
19.42
21.11
20.05
17.06
13.33
10.37
9.74
12.96
20.94
33.49
49.00
64.69
77.52
85.26
87.32
84.61
78.88
71.63
63.46
54.07
42.85
29.70
15.42
1.55
-10.30
-19.12
-24.85
-28.37
-31.16
-34.79
-40.45
-48.70
-59.20
-70.84
-81.92
-90.51
-94.96
-94.08
-87.29
-74.59
-56.56
-34.52
-10.71
11.70
29.05
38.14
37.46
28.03
13.39
-1.35
-11.15
-12.70
-5.41
8.46
24.71
38.60
46.18
45.21
35.51
18.82
-1.89
-23.02
-41.18
-53.75
-59.31
-57.74
-50.05
-37.88
-23.10
-7.43
7.69
20.99
31.36
37.97
40.40
38.92
34.41
28.18
21.44
15.07
9.51
5.00
1.94
1.01
3.06
8.55
17.04
26.94
35.83
41.15
41.11
35.32
24.86
11.93
-0.75
-10.72
-16.19
-16.36
-11.45
-2.62
8.17
18.59
26.45
30.40
30.42
27.90
25.08
24.10
25.99
30.22
34.97
38.00
37.71
33.79
27.13
19.18
11.14
3.49
-3.94
-11.53
-19.39
-27.13
-34.03
-39.28
-42.32
-42.88
-40.98
-36.96
-31.54
-25.86
-21.41
-19.44
-20.37
-23.34
-26.22
-26.33
-21.53
-11.16
3.50
19.55
33.27
41.15
40.80
31.49
14.54
-6.88
-28.16
-44.29
-51.18
-46.97
-32.65
-11.79
10.70
30.19
43.70
50.51
51.87
50.13
47.83
46.87
48.18
51.54
55.66
58.36
57.22
50.17
36.36
16.91
-5.03
-24.86
-37.56
-39.32
-28.84
-8.10
17.70
41.10
54.21
50.80
28.19
-11.61
-62.23
-114.32
-157.88
-184.64
-189.89
-173.43
-139.47
-95.68
-51.41
-15.46
6.17
11.81
4.31
-10.27
-24.93
-34.17
-35.46
-29.36
-18.50
-6.22
4.46
11.36
13.27
10.01
2.60
-6.74
-15.11
-19.75
-19.09
-13.26
-3.95
6.43
15.67
22.42
26.20
27.08
25.18
20.39
12.55
1.69
-11.61
-25.99
-39.35
-49.21
-53.19
-49.68
-38.56
-21.44
-1.52
17.33
31.65
39.43
40.43
36.01
28.41
20.03
12.87
8.17
6.30
6.73
8.21
9.02
7.48
2.48
-6.08
-17.05
-28.21
-36.73
-39.89
-35.93
-24.78
-8.27
10.25
27.01
39.13
45.51
46.78
44.63
40.71
35.86
30.12
23.21
15.09
6.29
-2.26
-9.59
-14.85
-17.35
-16.44
-11.66
-3.16
7.90
19.33
28.39
32.75
31.32
24.57
14.24
2.53
-8.72
-18.35
-25.75
-30.46
-31.94
-29.54
-22.80
-11.77
2.71
19.02
34.87
47.81
55.67
57.09
51.77
40.47
24.74
6.63
-11.59
-27.54
-38.93
-43.97
-42.00
-34.08
-23.02
-12.61
-6.23
-5.38
-9.20
-14.95
-19.36
-20.02
-16.09
-8.07
2.95
15.92
29.90
43.77
55.95
64.54
68.13
66.48
60.79
53.14
45.51
38.89
33.11
27.46
21.60
15.99
11.63
9.29
8.68
8.32
6.14
0.44
-9.33
-22.38
-37.05
-51.41
-64.01
-74.03
-81.28
-86.00
-88.66
-89.87
-90.17
-89.85
-88.90
-87.01
-83.95
-79.77
-74.79
-69.26
-62.79
-54.11
-41.31
-22.84
1.36
29.08
56.08
77.25
88.38
87.56
75.83
56.71
34.96
15.18
0.70
-6.92
-7.84
-3.61
3.38
10.53
15.45
16.56
13.31
6.31
-2.87
-12.16
-19.44
-23.09
-22.28
-17.08
-8.39
2.36
13.61
24.01
32.81
39.87
45.62
50.80
56.13
62.07
68.54
74.81
79.36
80.02
74.53
61.54
41.72
18.22
-4.07
-20.39
-28.22
-28.44
-24.99
-22.89
-26.04
-35.70
-50.45
-67.26
-82.98
-95.20
-102.40
-103.60
-98.08
-85.66
-67.20
-44.90
-21.92
-1.43
14.49
25.43
32.51
37.55
41.93
45.90
48.48
48.24
44.29
36.91
27.49
17.98
10.18
5.51
4.97
9.18
18.05
30.26
43.01
52.46
55.11
49.45
36.88
21.40
7.95
0.37
-0.01
5.64
14.66
24.34
32.79
38.86
41.65
40.09
33.18
20.78
4.34
-13.16
-28.25
-38.47
-43.48
-45.08
-46.21
-49.21
-54.72
-61.31
-66.32
-66.95
-61.21
-48.49
-29.50
-6.19
18.55
41.20
58.18
66.71
65.56
55.52
39.17
20.21
2.34
-11.63
-20.44
-24.43
-25.23
-25.05
-25.89
-28.90
-33.95
-39.68
-44.00
-44.82
-40.73
-31.47
-18.11
-2.79
11.81
23.26
29.99
31.78
29.64
25.50
21.55
19.59
20.59
24.47
30.20
36.07
40.16
40.93
37.86
31.76
24.78
19.62
18.53
22.25
29.59
37.80
43.65
44.92
41.12
33.68
24.99
17.30
11.61
7.30
2.59
-4.66
-15.88
-31.14
-48.94
-66.61
-81.01
-89.38
-90.11
-82.99
-69.15
-50.61
-29.72
-8.58
11.17
28.32
41.84
50.74
54.16
51.70
43.87
32.28
19.49
8.38
1.32
-0.55
2.42
8.66
15.87
21.65
23.82
20.54
10.36
-7.58
-33.06
-64.42
-98.39
-130.55
-156.47
-172.94
-178.82
-175.01
-163.51
-146.08
-123.40
-94.93
-59.84
-18.25
27.93
74.86
117.60
151.26
172.22
178.92
172.04
154.07
128.46
98.45
66.02
31.44
-6.25
-48.06
-93.46
-139.37
-180.16
-208.90
-219.28
-207.44
-173.08
-119.54
-53.14
17.74
83.89
136.84
170.92
185.31
184.86
178.75
176.87
185.28
203.19
223.00
233.83
226.61
198.32
153.34
101.53
54.30
20.83
5.78
8.90
25.92
49.92
72.72
86.22
83.72
61.23
18.51
-40.27
-106.79
-169.56
-216.28
-236.97
-227.05
-189.12
-132.47
-70.21
-15.19
23.63
43.07
45.19
35.02
18.01
-1.72
-21.66
-40.36
-56.64
-68.91
-75.22
-73.55
-62.49
-41.86
-13.48
18.38
47.24
65.57
66.99
48.69
13.12
-32.00
-75.61
-106.74
-118.00
-107.80
-80.47
-44.49
-9.46
16.73
29.94
30.23
21.07
7.71
-4.48
-11.37
-10.80
-2.62
11.56
29.05
46.60
61.07
70.02
72.26
68.21
59.75
49.55
40.00
32.16
25.48
18.23
8.75
-3.41
-16.91
-29.07
-37.02
-39.05
-35.33
-27.77
-19.16
-12.09
-8.19
-7.83
-10.21
-13.75
-16.49
-16.68
-13.42
-7.19
0.10
5.83
7.85
5.60
0.50
-4.64
-7.13
-5.75
-1.37
3.60
6.69
6.71
4.45
2.20
2.59
7.34
16.40
27.99
39.25
47.09
49.13
44.20
32.61
16.04
-2.82
-20.88
-35.05
-42.77
-42.25
-32.69
-14.55
10.25
38.30
65.17
86.32
98.35
100.01
92.40
78.48
61.72
45.01
29.95
17.02
6.10
-2.90
-9.87
-14.60
-17.07
-17.46
-16.06
-13.20
-9.22
-4.69
-0.53
2.05
1.96
-1.17
-6.63
-12.75
-17.51
-19.34
-17.76
-13.50
-8.12
-3.35
-0.46
0.08
-1.36
-3.87
-6.32
-7.74
-7.65
-6.38
-5.10
-5.65
-9.89
-18.87
-32.13
-47.53
-61.83
-71.91
-75.97
-74.33
-69.26
-64.08
-61.79
-63.90
-69.88
-77.29
-82.61
-82.25
-73.66
-56.15
-31.27
-2.51
25.67
49.08
65.02
72.94
74.30
71.65
67.56
63.68
60.47
57.43
53.69
48.59
41.95
34.08
25.59
17.22
9.71
3.57
-1.01
-4.21
-6.50
-8.29
-9.78
-10.80
-11.03
-10.42
-9.48
-9.35
-11.42
-16.60
-24.71
-34.39
-43.41
-49.69
-52.05
-50.74
-47.18
-43.29
-40.67
-40.05
-41.17
-43.02
-44.31
-43.90
-40.96
-35.12
-26.56
-16.04
-4.93
5.07
12.42
16.29
17.06
16.27
16.25
19.50
27.89
42.35
62.64
87.62
115.36
143.49
169.41
190.55
204.81
210.97
208.94
199.70
184.95
166.54
146.02
124.51
102.85
81.74
61.70
42.66
23.62
2.44
-23.36
-55.54
-93.62
-134.42
-172.69
-203.02
-222.10
-230.16
-231.06
-231.03
-236.87
-253.93
-284.68
-327.58
-376.79
-422.93
-455.20
-464.57
-446.81
-403.94
-343.53
-275.69
-209.50
-150.45
-99.88
-55.99
-15.65
24.03
64.45
104.51
140.24
165.48
173.86
161.74
130.54
86.96
40.68
0.57
-28.35
-46.08
-55.92
-61.92
-66.88
-71.97
-77.86
-85.75
-97.33
-113.58
-133.32
-152.56
-165.66
-167.14
-154.02
-127.10
-90.49
-49.93
-10.56
24.57
54.64
80.09
101.17
117.15
126.57
128.32
122.74
111.97
99.12
86.85
76.22
66.37
55.72
43.07
28.73
14.51
2.65
-5.29
-9.26
-10.52
-10.79
-11.21
-11.61
-10.53
-5.89
4.22
20.85
43.86
72.16
103.94
136.87
167.74
192.47
206.83
207.81
195.45
173.55
149.02
129.00
117.70
114.15
112.26
103.36
79.88
38.71
-17.21
-79.32
-135.86
-175.21
-189.13
-175.36
-138.13
-86.84
-33.12
12.88
45.11
62.41
67.69
66.16
63.68
65.58
75.53
94.75
121.28
150.18
175.01
190.26
193.60
186.40
172.92
158.09
145.52
136.63
131.07
127.77
125.86
124.87
124.45
124.00
122.81
120.51
117.50
114.83
113.59
114.17
115.72
116.38
114.07
107.41
96.36
82.08
66.28
50.49
35.65
22.23
10.54
1.05
-5.73
-9.67
-11.25
-11.56
-11.96
-13.51
-16.67
-21.19
-26.39
-31.34
-35.08
-36.76
-35.73
-31.79
-25.38
-17.80
-10.91
-6.65
-6.36
-10.15
-16.70
-23.62
-28.41
-29.40
-26.56
-21.57
-17.10
-15.67
-18.37
-24.52
-32.00
-38.62
-43.16
-45.99
-48.86
-54.15
-64.27
-80.66
-102.93
-128.16
-150.85
-164.06
-161.51
-139.95
-100.83
-50.17
3.59
52.31
90.76
117.48
134.08
143.55
148.84
152.24
155.30
159.45
165.95
175.56
187.94
201.10
211.58
215.29
209.21
192.72
168.20
140.21
113.44
90.80
72.32
55.70
38.10
18.16
-3.01
-22.55
-37.59
-46.95
-51.84
-55.08
-59.57
-66.90
-76.91
-88.41
-100.44
-113.00
-126.84
-142.33
-158.32
-171.86
-179.07
-176.80
-164.19
-143.34
-118.63
-95.00
-76.21
-63.68
-56.62
-52.88
-50.36
-47.97
-45.78
-44.57
-45.12
-47.74
-52.08
-57.38
-62.65
-66.80
-68.81
-67.86
-63.71
-56.91
-48.85
-41.32
-36.05
-34.15
-35.87
-40.69
-47.57
-55.24
-62.39
-67.93
-71.09
-71.57
-69.49
-65.15
-58.75
-50.30
-39.73
-27.27
-13.86
-1.18
8.72
14.15
14.49
10.43
3.81
-3.18
-8.75
-12.13
-13.56
-13.89
-13.95
-14.05
-13.94
-12.97
-10.63
-6.82
-1.91
3.40
8.46
12.84
16.43
19.30
21.49
22.91
23.34
22.52
20.36
17.08
13.26
9.74
7.32
6.54
7.43
9.52
12.03
14.07
14.96
14.26
11.95
8.29
3.82
-0.79
-4.86
-7.74
-9.05
-8.71
-7.14
-5.19
-4.01
-4.62
-7.62
-12.82
-19.18
-25.01
-28.35
-27.54
-21.75
-11.30
2.30
16.53
28.47
35.51
36.19
30.69
20.92
9.94
1.01
-3.47
-2.71
2.35
9.51
16.25
20.61
21.79
20.20
17.10
13.93
11.72
10.74
10.63
10.74
10.53
9.86
8.99
8.37
8.34
8.83
9.49
9.75
9.17
7.55
4.93
1.51
-2.41
-6.43
-9.99
-12.43
-13.18
-12.02
-9.34
-6.03
-3.22
-1.84
-2.22
-4.02
-6.40
-8.29
-8.75
-7.01
-2.67
4.24
13.08
22.57
30.95
36.43
37.78
34.91
28.99
22.11
16.56
14.00
14.88
18.44
23.07
27.01
29.01
28.71
26.60
23.72
21.20
19.82
19.71
20.34
20.69
19.74
16.86
12.06
6.03
-0.20
-5.65
-9.75
-12.43
-13.94
-14.59
-14.58
-13.99
-12.89
-11.55
-10.50
-10.30
-11.28
-13.30
-15.69
-17.39
-17.43
-15.30
-11.26
-6.20
-1.42
2.05
3.81
4.22
4.09
4.03
4.13
3.85
2.34
-1.10
-6.97
-15.53
-27.01
-41.58
-58.89
-77.44
-94.27
-105.72
-108.89
-103.07
-90.23
-73.86
-56.92
-40.01
-21.07
3.08
34.17
70.58
107.24
137.48
155.74
159.92
151.74
135.47
115.96
96.75
79.58
64.80
52.36
42.36
35.20
31.25
30.16
30.70
31.07
29.55
25.39
19.28
13.13
9.25
9.12
12.43
17.00
19.57
17.38
9.69
-1.57
-12.34
-18.14
-15.96
-5.60
10.38
27.74
42.41
51.82
55.27
53.57
47.98
39.63
29.37
18.18
7.38
-1.49
-7.41
-10.52
-12.20
-14.50
-19.01
-26.00
-34.21
-41.66
-46.77
-49.33
-50.57
-52.49
-56.72
-63.87
-73.45
-84.35
-95.44
-105.79
-114.55
-120.87
-123.89
-123.08
-118.51
-110.83
-101.05
-90.12
-78.74
-67.63
-57.70
-50.10
-45.83
-45.17
-47.46
-51.40
-55.66
-59.52
-62.90
-65.88
-68.01
-67.96
-63.98
-54.61
-39.57
-20.12
1.25
21.57
38.23
49.80
56.42
59.62
61.65
64.31
67.98
71.26
71.47
65.91
53.17
33.80
10.27
-14.05
-36.10
-53.86
-66.65
-74.73
-78.69
-79.02
-75.88
-69.20
-59.04
-45.89
-30.92
-15.87
-2.60
7.56
14.25
18.11
20.27
21.69
22.70
22.95
21.99
19.76
16.97
14.87
14.73
17.04
21.27
26.08
29.95
31.99
32.23
31.55
31.12
31.84
33.96
37.14
40.79
44.59
48.69
53.70
60.25
68.59
78.25
88.08
96.77
103.47
108.33
112.43
117.15
123.30
130.43
137.19
141.93
143.85
143.52
142.57
142.98
146.11
152.32
160.85
170.46
179.52
186.12
188.13
183.32
169.95
147.22
115.66
77.08
34.33
-9.43
-51.39
-89.53
-122.52
-149.05
-167.34
-174.96
-169.51
-149.98
-118.45
-80.54
-44.20
-16.80
-1.74
3.35
5.74
14.21
34.89
68.27
109.15
149.19
180.06
196.37
196.32
180.85
152.11
112.49
64.67
12.34
-39.73
-86.99
-126.89
-160.50
-192.44
-228.75
-273.67
-326.75
-381.83
-428.82
-457.21
-459.94
-436.04
-390.94
-334.50
-277.87
-230.21
-196.54
-177.14
-168.50
-164.91
-160.53
-150.96
-134.03
-110.04
-81.28
-51.28
-23.94
-2.76
10.01
13.71
9.53
0.34
-9.93
-16.94
-16.94
-7.60
11.22
37.45
67.07
95.27
117.54
130.63
133.04
124.90
107.69
83.96
57.20
31.47
10.61
-2.82
-8.52
-8.47
-5.84
-3.53
-2.86
-3.30
-3.20
-0.98
4.18
12.23
22.78
35.42
49.50
63.68
75.47
81.57
78.86
65.76
43.04
13.79
-17.46
-46.18
-68.96
-84.11
-91.39
-91.30
-84.41
-71.05
-51.66
-27.38
-0.58
25.22
46.12
58.77
61.38
54.04
38.66
18.49
-2.44
-19.99
-30.67
-32.32
-24.70
-9.44
10.38
31.24
50.02
64.60
74.04
78.33
78.28
75.18
70.65
66.30
63.36
62.29
62.51
62.76
61.58
58.02
51.92
44.03
35.63
28.08
22.45
19.36
19.00
21.21
25.48
30.91
36.19
39.78
40.32
37.21
30.97
23.18
15.87
10.72
8.22
7.58
7.28
5.97
3.34
0.24
-1.72
-1.06
2.87
9.62
17.89
26.13
33.00
37.71
40.04
40.36
39.40
38.17
37.69
38.69
41.36
45.21
49.06
51.35
50.58
45.81
37.16
25.99
14.49
4.92
-1.35
-4.43
-5.88
-7.84
-12.16
-19.62
-29.88
-42.00
-54.82
-67.21
-77.94
-85.52
-88.33
-85.23
-76.16
-62.35
-46.00
-29.39
-14.25
-1.32
9.43
18.36
25.76
31.81
36.81
41.27
45.99
51.60
58.24
65.35
71.77
76.09
77.25
74.94
69.61
62.46
54.91
48.22
43.07
39.47
36.82
34.24
30.93
26.46
20.88
14.64
8.28
2.23
-3.27
-7.90
-11.19
-12.56
-11.82
-9.64
-7.88
-9.12
-15.64
-28.16
-45.22
-63.46
-78.80
-87.96
-89.35
-83.27
-71.19
-55.01
-36.68
-18.32
-2.36
8.75
13.37
11.72
6.24
0.80
-0.93
2.69
10.34
18.46
22.98
21.33
13.59
2.31
-8.84
-16.69
-19.80
-18.80
-15.92
-13.87
-14.85
-19.70
-27.80
-37.39
-46.27
-52.60
-55.34
-54.43
-50.27
-43.43
-34.25
-22.90
-9.75
4.50
18.74
31.80
42.69
50.75
55.56
56.76
54.15
47.88
38.66
27.82
16.85
7.04
-0.98
-7.20
-11.88
-15.28
-17.49
-18.63
-19.12
-19.57
-20.51
-21.85
-22.84
-22.40
-19.82
-15.28
-9.74
-4.30
0.54
5.21
10.83
18.37
28.02
39.06
50.25
60.40
68.75
74.89
78.41
78.77
75.51
68.74
59.36
48.98
39.25
31.26
25.26
20.98
18.23
17.25
18.52
22.13
27.22
31.85
33.60
30.62
22.48
10.68
-1.67
-10.75
-13.15
-6.94
7.71
28.45
51.25
71.39
84.67
88.40
81.89
66.36
44.36
18.97
-6.99
-31.53
-53.72
-73.62
-91.95
-109.61
-127.20
-144.77
-161.67
-176.70
-188.22
-194.49
-194.04
-186.18
-171.48
-151.99
-130.87
-111.41
-95.87
-84.46
-75.48
-66.30
-54.86
-40.82
-25.74
-12.27
-2.53
2.95
5.50
7.48
10.98
16.86
24.59
32.89
40.57
47.19
52.90
58.06
62.62
66.01
67.46
66.65
64.24
61.80
61.28
63.96
69.77
77.00
82.88
84.78
81.44
73.58
63.70
55.14
50.47
50.63
54.49
59.47
62.73
62.25
57.47
49.22
39.23
29.28
20.78
14.50
10.57
8.82
8.81
9.94
11.48
12.67
12.85
11.76
9.73
7.54
6.21
6.48
8.49
11.64
14.71
16.31
15.50
12.09
6.74
0.85
-4.16
-7.32
-8.60
-8.90
-9.57
-11.62
-15.32
-19.99
-24.27
-26.57
-25.26
-18.86
-6.24
12.91
37.47
64.50
89.75
108.75
118.32
117.51
107.42
90.37
68.66
44.02
17.63
-9.26
-34.99
-57.63
-75.57
-88.07
-95.28
-98.01
-97.29
-94.37
-90.55
-87.28
-85.34
-83.83
-79.99
-70.06
-51.42
-24.44
6.96
36.86
60.22
75.63
86.17
97.54
114.85
139.37
167.55
192.47
206.73
205.16
186.09
151.04
103.64
48.74
-7.87
-59.52
-99.19
-120.83
-121.04
-100.71
-65.48
-24.78
10.61
31.33
31.89
11.97
-23.86
-67.93
-112.12
-150.30
-179.63
-200.20
-213.47
-220.25
-219.54
-208.84
-185.78
-150.12
-104.88
-55.87
-9.79
27.90
54.50
69.89
75.26
71.59
58.84
36.68
6.18
-28.74
-61.37
-84.03
-90.99
-80.80
-56.86
-25.97
4.38
28.35
42.68
46.18
38.69
20.59
-6.66
-39.38
-71.36
-94.94
-103.43
-93.73
-67.81
-32.22
4.25
33.38
49.72
51.17
38.36
13.56
-19.85
-57.26
-92.56
-118.64
-128.63
-117.88
-85.58
-35.31
25.74
88.80
145.70
190.73
221.25
237.39
241.10
234.98
221.35
201.80
177.16
147.70
113.53
75.06
33.27
-9.93
-51.52
-87.60
-113.99
-127.20
-125.50
-109.72
-83.38
-51.99
-21.72
2.21
16.80
21.76
19.08
11.86
3.04
-5.59
-13.54
-21.24
-29.27
-37.89
-46.86
-55.68
-63.76
-70.37
-74.57
-75.14
-70.97
-61.77
-48.61
-33.82
-20.20
-9.72
-2.74
1.95
6.13
10.79
15.41
18.31
18.10
14.95
11.10
10.01
14.42
24.92
39.25
53.14
61.91
62.14
52.76
35.21
13.12
-8.71
-25.49
-33.91
-33.28
-25.80
-15.74
-7.56
-3.77
-3.97
-5.36
-4.60
0.01
7.50
14.81
18.44
16.33
8.68
-2.35
-13.93
-23.60
-29.76
-31.48
-28.11
-19.33
-5.64
11.13
27.70
40.07
44.86
40.65
28.71
12.66
-2.88
-14.09
-19.17
-18.62
-14.39
-8.62
-2.57
3.59
10.34
17.98
26.07
33.41
38.59
40.64
39.56
36.11
31.48
26.58
21.84
17.16
12.32
7.35
2.72
-0.78
-2.31
-1.29
2.47
8.84
17.52
27.97
39.25
49.89
57.93
61.49
59.45
52.07
41.13
29.40
19.76
14.28
13.67
17.30
23.55
30.44
36.11
39.38
39.94
38.38
35.95
33.98
33.40
34.32
35.94
36.64
34.34
26.70
11.52
-12.74
-46.21
-86.85
-130.12
-169.68
-198.91
-212.86
-209.92
-192.24
-164.94
-134.28
-105.90
-83.40
-67.93
-58.48
-52.66
-47.69
-41.34
-32.50
-21.36
-9.11
2.68
12.72
20.36
25.53
28.45
29.33
28.27
25.53
21.65
17.47
13.78
10.88
8.28
4.76
-1.06
-10.09
-22.26
-36.50
-51.12
-64.40
-75.07
-82.35
-85.78
-85.05
-79.91
-70.58
-57.91
-43.38
-28.71
-15.24
-3.39
7.32
17.88
29.05
40.79
52.15
61.48
67.06
67.64
62.99
54.08
43.06
32.80
26.21
25.24
30.15
39.19
49.16
56.51
58.62
54.82
46.48
36.34
27.37
21.63
19.62
20.50
22.59
24.14
23.79
20.78
14.96
6.75
-2.80
-12.03
-18.91
-21.53
-18.84
-11.26
-0.78
9.73
17.59
21.46
21.87
20.90
21.14
24.48
31.38
40.89
51.21
60.63
68.02
72.99
75.74
76.61
75.88
73.59
69.61
63.69
55.58
45.23
32.95
19.63
6.66
-4.29
-11.74
-14.87
-13.90
-10.05
-5.04
-0.41
3.28
6.74
11.68
19.81
31.74
46.16
59.97
69.42
71.62
65.81
53.66
38.52
23.82
11.70
2.36
-5.41
-13.02
-20.91
-28.07
-32.55
-32.62
-27.87
-19.75
-11.02
-4.82
-3.51
-7.97
-17.54
-30.36
-43.98
-56.05
-64.86
-69.71
-70.96
-69.68
-67.26
-64.86
-63.34
-63.25
-64.95
-68.61
-73.93
-79.88
-84.82
-86.96
-84.98
-78.57
-68.39
-55.82
-42.49
-29.91
-19.32
-11.60
-7.18
-5.90
-7.10
-9.75
-12.84
-15.59
-17.33
-17.43
-15.29
-10.55
-3.44
4.98
12.93
18.58
20.66
19.06
14.75
9.36
4.59
1.64
1.00
2.47
5.39
8.84
11.85
13.57
13.48
11.55
8.26
4.44
1.00
-1.43
-2.65
-2.85
-2.42
-1.73
-0.92
0.01
1.11
2.32
3.51
4.46
4.97
4.96
4.39
3.34
1.99
0.72
0.09
0.67
2.82
6.43
10.89
15.22
18.47
20.01
19.85
18.67
17.50
17.31
18.60
21.13
23.95
25.84
25.82
23.66
19.98
15.94
12.64
10.47
8.90
6.74
2.84
-3.27
-10.95
-18.65
-24.51
-27.02
-25.66
-20.94
-14.10
-6.64
0.17
5.46
8.83
10.30
10.31
9.71
9.59
10.81
13.44
16.43
17.89
15.86
9.37
-0.92
-12.86
-23.61
-30.77
-33.28
-31.64
-27.45
-22.68
-19.04
-17.42
-17.92
-19.90
-22.16
-23.33
-22.21
-18.20
-11.59
-3.41
4.84
11.75
16.42
18.64
18.82
17.66
15.86
13.93
12.24
11.24
11.43
13.23
16.64
21.00
25.07
27.39
27.00
23.81
18.75
13.23
8.51
5.03
2.33
-0.57
-4.47
-9.33
-14.24
-17.83
-18.97
-17.36
-13.74
-9.43
-5.67
-3.00
-1.03
1.24
4.74
9.58
14.80
18.51
18.77
14.50
6.26
-3.64
-11.93
-15.69
-13.60
-6.55
2.65
10.54
14.47
13.72
9.67
4.98
2.30
3.10
7.12
12.58
16.98
18.01
14.24
5.54
-6.80
-20.07
-30.55
-34.38
-29.13
-15.18
3.53
20.39
28.45
23.32
5.28
-20.53
-45.94
-62.90
-66.39
-56.08
-35.90
-12.31
8.04
20.28
22.36
15.18
1.96
-12.75
-24.42
-29.69
-27.10
-17.36
-3.07
12.10
24.50
31.46
32.05
27.20
19.27
11.23
5.73
4.37
7.32
13.47
20.81
27.12
30.58
30.22
26.25
19.84
12.76
6.79
3.09
1.91
2.52
3.50
3.26
0.54
-5.13
-13.29
-22.59
-31.08
-36.70
-37.89
-34.17
-26.38
-16.48
-6.99
-0.10
2.93
2.18
-1.24
-5.47
-8.59
-8.94
-5.38
2.38
13.56
26.17
37.22
43.52
42.95
35.37
23.02
9.82
-0.06
-3.80
-0.93
6.66
15.59
22.45
24.96
22.56
16.34
8.40
1.07
-3.86
-5.61
-4.39
-1.27
2.32
5.04
5.91
4.48
0.87
-4.34
-10.26
-15.82
-19.99
-22.04
-21.66
-19.15
-15.39
-11.55
-8.85
-8.15
-9.76
-13.29
-17.85
-22.23
-25.28
-26.22
-24.81
-21.36
-16.52
-10.87
-4.75
1.78
8.65
15.37
20.95
24.04
23.49
19.03
11.63
3.35
-3.24
-6.05
-4.28
1.36
8.82
15.57
19.50
19.62
16.26
10.82
5.10
0.63
-1.80
-2.27
-1.48
-0.37
0.22
-0.15
-1.49
-3.45
-5.53
-7.25
-8.39
-8.96
-9.20
-9.31
-9.36
-9.23
-8.80
-8.16
-7.79
-8.36
-10.42
-13.92
-18.01
-21.28
-22.40
-20.86
-17.12
-12.32
-7.54
-3.17
1.12
5.85
11.03
15.86
19.13
20.02
18.90
17.24
16.92
19.06
23.21
27.37
28.79
25.27
16.12
2.53
-12.84
-26.72
-36.27
-39.95
-37.88
-31.77
-24.23
-17.95
-14.80
-15.24
-18.32
-22.10
-24.40
-23.60
-19.17
-11.68
-2.41
7.18
15.98
23.42
29.40
34.00
37.24
38.91
38.68
36.29
31.85
26.04
20.07
15.46
13.63
15.31
20.23
26.97
33.38
37.09
36.33
30.44
20.07
7.08
-5.78
-15.35
-18.89
-14.88
-3.86
11.28
25.89
34.91
34.70
24.49
6.70
-14.02
-32.77
-46.39
-54.64
-59.93
-66.05
-76.32
-92.16
-112.63
-134.91
-155.48
-171.28
-180.31
-181.63
-175.02
-160.73
-139.49
-112.68
-82.08
-49.28
-15.13
20.70
58.93
99.51
140.64
178.52
208.55
227.12
233.14
228.26
215.82
199.07
179.89
158.45
133.56
103.59
67.25
24.29
-23.62
-72.42
-115.65
-145.65
-155.73
-142.75
-108.84
-61.23
-10.23
34.07
64.64
78.92
78.29
66.44
47.34
24.24
-0.53
-25.11
-47.51
-65.60
-77.47
-82.05
-79.30
-70.30
-57.02
-42.02
-28.34
-19.10
-16.86
-22.74
-35.72
-52.50
-68.33
-78.56
-80.40
-74.06
-62.78
-51.60
-45.58
-47.92
-58.86
-75.55
-92.80
-104.60
-106.08
-95.30
-74.17
-47.78
-22.51
-3.28
8.35
14.64
20.24
29.76
45.92
68.86
97.02
128.38
161.16
193.17
220.70
238.20
239.35
219.38
177.44
117.85
49.40
-17.30
-72.86
-111.47
-131.41
-133.78
-120.27
-91.63
-47.54
11.89
84.08
162.92
239.62
305.04
352.63
380.22
389.90
386.33
374.48
358.09
339.33
319.31
298.47
276.48
252.10
223.30
187.83
144.55
94.46
40.91
-11.04
-56.19
-90.88
-113.97
-127.39
-135.76
-145.42
-162.61
-191.27
-230.74
-274.83
-312.83
-332.95
-327.06
-294.46
-242.94
-186.20
-138.93
-111.62
-107.69
-123.43
-150.47
-179.31
-202.13
-214.36
-214.95
-205.79
-190.73
-174.38
-160.73
-152.21
-149.25
-150.46
-153.35
-155.45
-155.10
-151.88
-146.59
-140.63
-134.94
-129.17
-121.14
-107.21
-83.61
-48.08
-1.21
53.17
108.94
159.75
201.17
232.19
254.97
273.26
290.19
306.57
320.77
329.95
331.92
326.27
314.09
296.78
274.47
245.54
207.70
159.54
101.76
37.03
-31.07
-98.89
-162.87
-218.80
-261.39
-284.98
-285.63
-263.43
-223.65
-175.68
-129.95
-94.51
-72.86
-64.03
-64.65
-71.37
-82.35
-97.01
-114.47
-131.98
-144.78
-147.47
-136.37
-111.45
-76.95
-39.80
-6.98
17.08
31.82
39.80
44.81
49.60
54.58
57.93
56.86
49.07
33.92
12.86
-10.86
-32.89
-48.74
-54.95
-49.99
-34.67
-11.94
13.97
38.86
59.59
74.68
84.10
88.60
89.07
86.23
80.70
73.24
64.92
56.90
49.98
44.18
38.70
32.27
23.85
13.28
1.55
-9.38
-17.35
-20.83
-19.71
-15.32
-10.05
-6.40
-6.03
-9.28
-15.04
-21.28
-25.77
-26.83
-23.86
-17.48
-9.23
-1.19
4.74
7.36
6.69
3.95
1.32
1.27
5.76
15.55
29.73
45.84
60.42
69.94
71.79
65.06
50.82
31.80
11.57
-6.51
-20.15
-28.42
-31.64
-30.75
-26.80
-20.74
-13.48
-6.24
-0.54
2.07
0.59
-4.98
-13.48
-22.86
-30.82
-35.38
-35.21
-29.76
-19.25
-4.54
12.80
30.75
46.99
59.31
65.98
66.09
59.76
48.15
33.27
17.59
3.51
-7.10
-13.14
-14.36
-11.18
-4.53
4.26
13.52
21.38
26.09
26.38
21.86
13.07
1.31
-11.77
-24.58
-35.76
-44.33
-49.59
-51.27
-49.68
-45.71
-40.68
-35.84
-31.91
-28.69
-25.19
-20.16
-12.73
-2.93
8.30
19.38
28.72
35.07
37.86
37.12
33.37
27.43
20.25
12.83
6.02
0.52
-3.30
-5.36
-5.81
-4.96
-3.12
-0.67
2.01
4.49
6.38
7.34
7.10
5.57
2.79
-1.00
-5.46
-10.09
-14.36
-17.69
-19.59
-19.67
-17.81
-14.32
-9.79
-5.12
-1.20
1.29
2.08
1.30
-0.51
-2.54
-3.93
-3.91
-2.01
1.83
7.12
12.99
18.25
21.87
23.19
22.09
19.02
14.73
10.05
5.70
2.11
-0.51
-2.21
-3.17
-3.72
-4.28
-5.41
-7.58
-11.05
-15.66
-20.85
-25.78
-29.66
-32.03
-32.77
-32.10
-30.27
-27.32
-23.14
-17.52
-10.51
-2.47
5.98
14.26
21.98
29.08
35.57
41.38
46.20
49.54
51.00
50.50
48.34
45.14
41.70
38.69
36.60
35.58
35.43
35.65
35.54
34.50
32.30
29.26
26.25
24.33
24.32
26.43
30.01
33.74
36.07
35.87
32.81
27.56
21.48
16.06
12.26
10.16
9.05
7.83
5.66
2.40
-1.31
-4.25
-5.08
-2.76
3.10
11.92
22.02
30.58
33.95
28.49
11.75
-16.08
-51.35
-87.59
-117.53
-136.00
-142.35
-140.97
-139.61
-146.20
-165.72
-198.51
-240.53
-285.09
-325.05
-354.35
-368.76
-365.84
-344.86
-306.85
-254.80
-193.49
-128.92
-67.29
-14.11
26.61
52.93
65.04
65.41
58.46
49.88
45.56
50.20
65.90
91.39
121.98
150.27
167.84
167.53
145.76
104.23
50.11
-5.66
-51.34
-77.97
-81.80
-64.91
-33.77
3.16
37.90
64.37
78.81
79.94
68.85
49.33
27.32
10.02
4.01
13.31
38.32
75.68
119.62
163.41
201.27
229.71
248.14
258.69
265.44
272.80
284.00
299.87
318.56
336.36
349.07
353.44
348.05
333.36
311.07
283.41
252.43
219.71
186.36
153.05
119.87
86.37
51.97
17.42
-14.42
-38.19
-47.34
-36.57
-4.33
45.97
107.22
171.15
231.24
285.07
333.23
377.62
418.97
455.36
482.45
495.00
488.89
462.53
417.87
359.13
291.80
221.09
150.74
82.84
18.62
-40.56
-93.00
-135.49
-166.07
-184.91
-194.80
-200.43
-206.64
-216.50
-230.46
-247.87
-264.35
-277.46
-286.22
-291.00
-292.88
-292.89
-291.60
-289.20
-288.32
-285.75
-280.93
-273.08
-261.57
-246.36
-228.62
-210.90
-196.84
-194.96
-204.53
-228.63
-268.58
-322.90
-386.60
-451.42
-507.30
-545.35
-566.29
-564.53
-545.44
-516.39
-483.19
-447.59
-407.42
-359.35
-266.96
-179.52
-99.78
-38.35
-2.35
7.92
-0.85
-18.23
-34.61
-45.02
-55.83
-65.28
-78.18
-97.25
-122.55
-152.53
-185.23
-218.55
-249.54
-277.65
-291.88
-286.80
-260.64
-217.43
-166.46
-119.21
-84.90
-67.49
-68.02
-78.81
-95.66
-116.84
-142.78
-173.40
-205.80
-233.75
-249.92
-250.34
-232.52
-199.51
-156.09
-105.97
-50.26
11.96
81.62
157.52
235.20
309.52
374.99
428.41
469.71
501.64
528.00
551.11
570.04
580.38
576.17
552.86
510.05
451.89
385.47
318.20
255.92
202.85
162.61
138.92
134.63
149.69
179.24
213.71
241.34
252.14
241.00
208.68
160.44
104.08
48.08
0.33
-33.07
-49.16
-49.60
-40.71
-31.63
-30.62
-41.40
-61.43
-82.86
-96.33
-95.13
-78.15
-50.30
-20.30
2.63
11.84
5.06
-15.49
-44.23
-74.03
-98.15
-111.64
-112.13
-100.02
-78.25
-51.69
-26.22
-7.27
1.65
0.33
-7.88
-16.90
-19.87
-11.48
10.03
42.04
77.97
108.80
125.42
121.11
93.95
47.97
-7.26
-58.95
-94.77
-106.54
-92.64
-58.13
-12.69
32.56
68.27
88.79
92.90
83.19
64.89
44.31
27.21
17.40
15.79
20.38
27.18
31.81
31.03
23.66
10.68
-5.36
-21.26
-33.98
-41.33
-42.44
-37.96
-29.92
-21.06
-13.83
-9.44
-7.50
-6.42
-4.48
-0.89
3.76
7.98
10.28
10.19
8.40
6.47
5.92
7.55
11.09
15.31
18.55
19.22
16.38
10.26
2.57
-3.52
-4.36
2.56
16.98
35.01
49.84
54.11
42.96
16.57
-19.08
-53.77
-76.28
-78.31
-57.59
-18.78
28.13
71.10
99.95
109.15
98.77
73.29
39.48
3.98
-27.98
-52.88
-68.66
-74.44
-70.85
-60.23
-46.58
-34.58
-28.02
-28.40
-34.28
-41.88
-46.55
-44.46
-34.00
-16.16
5.94
28.18
46.70
58.86
63.77
62.32
56.63
49.26
42.34
36.87
32.64
28.60
23.82
18.07
12.23
7.84
6.38
8.58
13.91
20.84
27.24
31.08
31.06
27.04
20.20
12.73
7.11
5.21
7.56
13.11
19.64
24.59
25.85
22.32
14.35
3.81
-6.02
-11.35
-9.48
-0.43
12.05
21.30
20.27
4.96
-23.08
-56.56
-84.90
-98.39
-91.95
-66.97
-30.54
7.43
37.58
53.75
54.11
40.82
18.73
-6.12
-28.01
-42.61
-47.53
-42.65
-29.98
-13.11
3.65
16.45
22.85
22.45
16.84
8.82
1.50
-2.78
-3.01
0.33
5.61
10.70
13.74
13.68
10.58
5.47
-0.06
-4.41
-6.53
-6.20
-4.17
-1.87
-0.79
-1.86
-5.04
-9.22
-12.71
-14.09
-12.92
-10.10
-7.52
-7.14
-10.01
-15.63
-22.11
-26.93
-27.99
-24.38
-16.62
-6.33
4.36
13.47
19.49
21.80
20.66
17.37
14.17
13.71
18.25
28.57
43.26
59.02
71.83
78.66
78.72
73.71
66.70
60.49
56.19
52.87
48.28
40.31
28.23
13.10
-2.78
-16.97
-27.98
-35.86
-42.06
-48.72
-57.56
-69.12
-82.46
-95.43
-105.64
-111.20
-111.36
-106.53
-97.92
-87.03
-75.17
-63.12
-51.08
-38.88
-26.32
-13.65
-1.82
7.67
13.33
14.43
11.48
6.08
0.26
-4.42
-7.27
-8.34
-7.71
-5.10
0.19
8.69
20.17
33.25
45.69
55.10
59.62
58.33
51.28
39.44
24.55
9.14
-3.71
-11.01
-10.94
-3.81
7.60
18.76
24.94
22.99
12.54
-3.73
-20.98
-33.83
-38.32
-33.23
-20.46
-4.27
10.44
19.92
22.90
20.63
15.98
11.98
10.49
11.69
14.48
17.47
19.80
21.49
23.15
25.31
27.79
29.53
28.92
24.74
17.02
7.50
-0.89
-5.35
-4.66
0.06
5.78
8.87
6.74
-1.19
-13.47
-27.25
-39.09
-45.53
-43.69
-32.21
-12.26
12.01
34.03
46.95
46.22
31.61
7.36
-19.42
-41.44
-53.62
-54.12
-44.13
-26.83
-6.35
13.10
27.73
34.87
33.46
24.40
10.45
-4.54
-16.50
-22.12
-19.70
-9.69
5.12
20.13
30.05
30.69
20.49
1.40
-21.64
-42.40
-55.60
-58.63
-52.15
-39.30
-24.12
-10.02
1.09
8.75
13.31
15.22
14.79
12.36
8.59
4.63
1.85
1.42
4.08
10.02
18.93
29.90
41.11
49.51
51.16
42.58
22.55
-6.35
-37.69
-62.97
-74.78
-69.79
-50.11
-22.48
4.58
23.86
31.68
28.41
17.25
2.46
-12.17
-24.05
-31.67
-34.21
-31.30
-23.08
-10.73
3.26
15.50
22.77
23.27
17.57
8.71
1.16
-0.70
5.78
20.28
39.32
57.04
67.00
64.28
47.44
19.48
-12.68
-40.19
-55.23
-53.77
-36.96
-10.48
17.71
40.31
52.92
54.86
48.37
37.06
24.32
12.37
2.30
-5.54
-11.09
-14.39
-15.75
-15.84
-15.60
-15.90
-17.08
-18.81
-20.17
-20.08
-17.82
-13.45
-7.85
-2.48
1.34
3.02
3.06
2.83
3.86
7.02
11.91
16.99
20.21
19.99
15.95
9.23
2.08
-2.78
-3.04
2.34
12.53
24.62
34.07
36.00
27.06
7.04
-20.45
-48.85
-70.77
-80.57
-76.36
-60.47
-38.43
-16.73
-0.67
7.16
7.16
1.96
-4.78
-9.72
-10.73
-7.30
-0.33
8.33
16.53
22.43
24.87
23.60
19.14
12.56
5.20
-1.63
-6.88
-9.84
-10.33
-8.73
-5.93
-3.14
-1.46
-1.57
-3.45
-6.45
-9.58
-11.88
-12.82
-12.42
-11.21
-9.97
-9.40
-9.78
-10.91
-12.15
-12.76
-12.16
-10.22
-7.21
-3.60
0.15
3.75
7.08
9.93
11.98
12.78
12.03
9.84
6.80
3.85
1.96
1.68
2.98
5.19
7.40
8.72
8.58
6.87
3.86
0.02
-4.05
-7.74
-10.44
-11.60
-10.80
-7.93
-3.19
2.92
9.78
16.86
23.76
30.08
35.26
38.37
38.29
34.11
25.68
14.08
1.48
-9.51
-16.76
-19.41
-18.10
-14.57
-10.83
-8.41
-7.84
-8.81
-10.52
-12.24
-13.51
-14.27
-14.67
-15.00
-15.58
-16.72
-18.57
-20.97
-23.41
-25.02
-24.89
-22.34
-17.15
-9.76
-1.04
7.81
15.51
20.93
23.23
22.03
17.52
10.50
2.23
-5.77
-12.09
-15.78
-16.58
-14.97
-11.90
-8.33
-4.88
-1.56
2.03
6.37
11.54
17.05
21.98
25.34
26.47
25.12
21.39
15.57
8.20
0.23
-6.80
-11.03
-10.93
-6.12
1.98
10.36
15.51
14.94
8.46
-1.52
-10.82
-15.08
-11.50
0.09
17.11
35.15
49.37
56.13
53.99
44.16
29.87
15.15
3.35
-3.86
-6.81
-7.23
-7.36
-9.06
-13.35
-20.24
-28.88
-37.74
-44.76
-47.76
-44.97
-35.61
-20.33
-1.27
18.33
34.79
44.67
45.58
36.68
19.06
-4.21
-28.55
-48.81
-60.63
-61.70
-52.50
-36.23
-17.78
-2.14
7.17
9.04
4.77
-2.98
-11.33
-18.32
-23.10
-25.67
-26.33
-25.48
-23.76
-22.25
-22.36
-25.14
-30.50
-36.64
-40.44
-38.60
-29.14
-12.49
8.53
29.76
47.41
59.50
66.42
70.28
73.58
77.72
82.06
84.18
80.96
70.12
51.48
27.16
0.86
-23.51
-42.97
-56.12
-62.90
-64.08
-60.76
-54.14
-45.61
-36.66
-28.68
-22.47
-17.96
-14.22
-10.04
-4.54
2.24
9.27
14.92
17.65
16.54
11.63
3.86
-5.27
-14.28
-21.82
-26.82
-28.37
-25.76
-18.97
-9.11
1.26
8.41
8.70
0.17
-16.09
-35.69
-52.23
-59.72
-55.10
-39.59
-18.21
2.32
16.43
21.77
19.82
14.66
10.81
11.13
15.91
23.28
30.64
36.11
39.14
40.30
40.51
40.15
38.93
36.20
31.68
25.79
19.58
14.00
9.30
4.61
-1.67
-10.95
-23.45
-37.65
-50.50
-58.37
-58.37
-49.62
-33.73
-14.49
3.26
15.11
18.45
13.17
1.51
-12.75
-25.47
-33.14
-33.52
-26.01
-11.63
7.08
26.45
42.32
50.99
50.35
40.74
25.08
8.24
-4.46
-9.08
-4.51
7.02
20.65
30.67
32.56
24.56
8.17
-12.59
-32.79
-48.16
-56.21
-56.48
-50.03
-38.82
-25.16
-11.33
0.52
8.69
12.14
10.84
5.91
-0.60
-6.25
-8.84
-7.15
-1.25
7.56
17.14
25.19
29.93
30.48
26.93
20.08
11.00
0.71
-9.75
-19.16
-26.01
-28.87
-27.16
-21.74
-14.91
-9.58
-7.91
-10.09
-14.04
-16.31
-13.74
-5.12
8.17
22.68
34.37
40.15
38.98
31.99
21.99
12.50
6.74
6.76
12.81
23.33
35.29
45.22
50.21
48.88
41.70
30.59
18.18
6.95
-1.15
-5.03
-4.47
-0.38
5.09
8.90
8.02
0.86
-11.62
-25.79
-36.55
-39.49
-32.99
-19.06
-2.60
10.56
16.11
12.71
2.16
-11.68
-24.49
-32.88
-35.23
-31.59
-23.31
-12.37
-0.88
9.32
16.97
21.56
23.46
23.66
23.57
24.45
27.05
31.38
36.73
41.88
45.50
46.61
44.83
40.76
35.85
32.16
31.63
35.14
41.83
48.79
51.71
46.37
30.51
5.24
-24.74
-52.42
-71.13
-77.07
-71.06
-58.20
-45.80
-40.40
-45.23
-59.26
-78.08
-96.16
-109.20
-115.61
-116.47
-114.27
-111.30
-108.84
-107.27
-106.83
-108.51
-113.81
-123.86
-138.24
-154.28
-167.72
-174.18
-170.83
-157.48
-136.50
-111.71
-86.85
-64.33
-44.46
-25.75
-5.62
18.44
47.97
83.13
122.75
164.46
204.76
239.19
262.87
271.76
264.57
244.28
218.24
196.32
187.42
196.02
220.54
254.28
288.41
315.22
330.05
331.23
318.82
293.11
254.34
203.49
143.30
78.41
14.73
-42.39
-89.76
-127.07
-156.53
-181.87
-207.04
-235.15
-267.53
-302.76
-336.30
-361.04
-369.32
-355.68
-319.21
-264.23
-198.65
-130.77
-66.28
-6.92
48.41
101.47
152.51
199.66
239.87
270.44
290.03
298.54
296.37
283.74
260.92
229.08
191.28
152.77
120.09
99.21
93.55
102.67
122.39
146.24
167.55
181.26
184.94
178.62
163.70
142.04
115.49
85.80
54.96
25.28
-1.10
-23.11
-41.45
-58.61
-77.69
-100.61
-126.61
-152.02
-171.70
-181.11
-178.28
-164.15
-141.74
-114.71
-86.54
-60.48
-40.03
-29.16
-31.42
-48.45
-78.44
-115.82
-152.50
-180.38
-193.98
-192.06
-177.83
-157.67
-138.78
-126.90
-124.70
-131.45
-143.93
-158.12
-170.37
-178.24
-180.37
-176.37
-166.84
-153.56
-139.40
-127.34
-119.28
-114.90
-111.66
-105.88
-94.60
-77.14
-55.20
-31.93
-10.40
7.39
20.73
29.70
34.75
36.49
35.73
33.60
31.18
29.15
27.45
25.60
23.15
20.33
17.91
16.75
17.71
21.54
28.77
39.28
51.76
63.39
70.54
70.00
60.23
43.39
25.24
13.41
14.33
30.55
59.81
96.51
133.39
163.00
180.55
184.83
178.18
165.32
151.45
140.59
134.81
132.61
127.90
113.82
85.54
43.00
-8.93
-62.55
-110.33
-146.84
-172.02
-192.22
-215.32
-247.42
-290.27
-341.60
-397.27
-453.30
-506.19
-536.02
-526.63
-470.86
-376.43
-261.46
-144.19
-36.36
50.65
121.06
177.22
216.19
234.20
229.29
202.69
157.43
97.95
30.41
-34.85
-86.44
-116.55
-123.54
-112.96
-94.51
-77.53
-69.39
-68.39
-69.71
-70.20
-69.89
-70.46
-73.38
-77.84
-80.82
-78.45
-67.52
-47.23
-20.07
9.28
36.16
57.76
73.97
86.83
99.41
114.60
133.93
157.27
183.20
209.86
235.24
257.55
275.19
286.92
292.12
290.70
283.05
269.84
251.74
229.32
203.11
173.81
142.35
109.55
75.61
40.26
3.46
-33.44
-67.01
-92.03
-103.07
-96.42
-71.49
-31.13
19.27
73.18
124.12
166.44
195.88
210.01
208.88
195.22
173.79
150.01
128.21
110.63
97.24
86.53
76.44
64.92
50.20
30.73
5.73
-24.23
-56.65
-87.39
-111.91
-126.87
-131.45
-127.56
-118.87
-109.07
-100.52
-93.51
-86.88
-79.03
-69.10
-57.44
-45.42
-34.80
-27.07
-23.04
-22.88
-26.22
-32.44
-40.79
-50.50
-60.69
-70.24
-77.65
-81.17
-79.18
-70.89
-56.89
-39.32
-21.31
-6.06
4.22
8.87
8.66
5.20
0.12
-5.26
-10.06
-13.65
-15.63
-15.83
-14.56
-12.69
-11.66
-13.23
-19.03
-30.11
-46.37
-66.42
-87.54
-106.10
-118.28
-121.10
-113.38
-96.17
-72.28
-45.13
-17.12
11.37
42.02
77.79
121.57
174.97
237.36
305.34
372.68
431.14
472.11
488.93
479.22
445.92
396.50
340.51
286.39
239.02
199.21
164.68
131.84
97.14
58.10
13.92
-34.10
-82.29
-125.32
-157.73
-176.04
-180.20
-173.57
-161.56
-149.43
-140.57
-135.73
-133.68
-132.08
-128.56
-121.14
-108.58
-90.83
-69.34
-47.30
-28.93
-18.11
-16.90
-24.78
-38.90
-55.45
-71.20
-84.30
-94.23
-100.93
-104.05
-102.97
-97.48
-88.58
-78.74
-71.27
-68.96
-72.92
-82.03
-93.44
-103.63
-109.79
-110.66
-106.69
-99.63
-91.63
-84.39
-78.51
-73.45
-68.03
-61.16
-52.39
-42.08
-31.01
-19.81
-8.69
2.50
13.81
24.86
34.74
42.41
47.20
49.14
48.89
47.37
45.31
43.04
40.63
38.14
35.79
33.85
32.37
30.88
28.53
24.54
18.76
11.91
5.25
-0.12
-4.17
-8.23
-14.54
-25.05
-40.06
-57.55
-73.46
-83.14
-83.29
-73.46
-56.67
-38.49
-25.14
-21.22
-27.99
-43.02
-61.19
-76.83
-85.77
-86.57
-80.33
-69.48
-56.43
-42.73
-28.99
-15.36
-1.72
12.59
29.15
50.41
78.46
113.32
151.53
186.33
209.61
215.15
201.32
171.93
134.84
99.00
71.26
54.60
47.97
47.72
49.45
49.57
46.11
38.69
28.32
16.93
7.08
1.41
2.00
9.63
23.13
39.35
53.80
61.72
59.29
44.55
17.68
-19.21
-62.53
-107.75
-149.91
-184.37
-207.78
-218.97
-219.50
-213.21
-205.04
-199.32
-198.38
-202.00
-208.13
-214.13
-217.89
-218.17
-214.14
-204.69
-188.25
-163.25
-129.21
-87.53
-41.37
5.48
50.36
92.75
134.06
175.95
218.32
258.36
291.08
311.45
316.66
307.22
286.58
259.40
229.84
200.64
173.38
149.27
129.79
116.28
109.06
106.69
106.05
103.57
96.72
84.95
69.52
52.51
35.39
18.25
0.00
-20.57
-43.63
-67.75
-90.22
-108.14
-119.63
-124.42
-123.81
-119.98
-115.07
-110.66
-107.38
-105.07
-102.96
-100.01
-95.34
-88.61
-80.26
-71.41
-63.59
-57.92
-54.71
-53.07
-51.31
-47.52
-40.36
-29.58
-16.24
-2.54
8.72
14.97
14.70
8.27
-1.96
-12.09
-18.08
-17.29
-9.77
1.59
12.16
17.42
15.01
5.75
-6.66
-17.32
-22.17
-19.71
-11.37
-0.69
8.27
12.70
11.87
7.15
1.10
-3.56
-4.98
-2.55
2.98
9.93
16.31
20.49
21.74
20.45
18.09
16.45
17.00
20.22
25.52
31.51
36.68
40.00
41.25
40.96
39.98
38.91
37.82
36.27
33.69
29.85
25.09
20.13
15.62
11.61
7.64
3.06
-2.26
-7.44
-10.65
-9.87
-3.84
7.13
20.95
34.47
44.60
49.43
48.85
44.30
37.95
31.65
26.31
21.81
17.57
13.20
8.86
5.00
1.87
-0.87
-4.13
-8.80
-15.20
-22.62
-29.45
-33.76
-33.97
-29.43
-20.67
-9.25
2.72
13.07
20.27
23.79
24.23
22.92
21.30
20.24
19.74
19.17
17.86
15.65
13.14
11.36
11.23
12.94
15.74
18.19
18.76
16.37
10.88
3.15
-5.21
-12.22
-16.26
-16.60
-13.78
-9.44
-5.67
-4.08
-5.14
-8.02
-11.24
-13.47
-14.25
-13.93
-13.23
-12.51
-11.45
-9.24
-5.31
0.17
6.18
11.24
13.97
13.52
9.74
3.15
-5.14
-13.54
-20.26
-23.69
-22.92
-18.14
-10.70
-2.69
3.72
7.00
6.73
3.66
-0.58
-3.92
-4.47
-1.05
6.34
16.46
27.13
35.96
41.02
41.53
37.84
31.22
23.24
15.25
8.10
2.15
-2.60
-6.46
-9.96
-13.77
-18.45
-24.07
-30.04
-35.15
-38.09
-38.08
-35.20
-30.31
-24.67
-19.25
-14.50
-10.37
-6.65
-3.38
-0.82
0.77
1.48
1.87
2.89
5.43
9.85
15.79
22.00
26.72
28.12
24.97
17.14
5.74
-7.05
-18.72
-27.16
-31.27
-31.04
-27.37
-21.50
-14.61
-7.60
-1.03
4.80
9.83
14.14
17.91
21.19
23.72
24.94
24.26
21.56
17.73
14.68
14.82
19.99
30.23
43.26
54.84
60.11
55.39
39.69
15.12
-13.70
-41.10
-62.08
-73.57
-74.93
-67.76
-55.05
-40.29
-26.60
-16.10
-9.79
-7.46
-8.17
-10.55
-13.23
-15.05
-15.18
-13.30
-9.66
-5.16
-1.09
1.15
0.76
-2.20
-6.57
-10.63
-12.73
-12.06
-9.00
-5.02
-2.04
-1.63
-4.49
-10.06
-16.79
-22.64
-25.76
-25.12
-20.96
-14.69
-8.41
-4.17
-3.22
-5.57
-10.02
-14.64
-17.50
-17.24
-13.49
-6.95
0.78
7.70
12.01
12.75
10.23
5.87
1.70
-0.69
-0.77
0.60
1.90
1.87
0.39
-1.38
-1.74
0.47
5.03
10.34
14.19
14.89
12.11
6.95
1.42
-2.44
-3.23
-0.58
4.82
11.28
16.55
18.34
15.11
6.85
-4.66
-16.19
-24.30
-26.78
-23.69
-17.33
-11.13
-7.99
-9.07
-13.38
-18.41
-21.44
-20.62
-15.56
-7.30
2.10
10.21
14.90
14.76
9.62
0.75
-9.17
-16.70
-18.36
-11.82
3.44
25.32
49.19
68.77
77.78
72.26
52.49
23.62
-5.75
-26.66
-33.52
-26.52
-11.51
2.83
8.97
3.75
-10.82
-29.23
-45.49
-55.73
-59.09
-56.95
-51.40
-43.93
-35.10
-25.12
-14.68
-5.16
1.72
4.64
3.55
-0.50
-5.45
-9.16
-9.96
-6.97
-0.26
9.35
20.62
32.28
43.44
53.80
63.60
73.32
83.22
93.07
102.04
109.17
113.94
116.94
120.03
125.79
136.58
153.46
175.75
201.29
227.20
250.85
270.42
284.92
293.69
296.02
290.97
277.66
255.71
225.56
188.39
145.78
99.34
50.45
0.34
-49.82
-98.64
-144.62
-186.29
-222.32
-251.57
-272.99
-285.69
-289.11
-283.48
-270.13
-251.57
-230.92
-211.05
-193.80
-179.59
-167.63
-156.59
-145.09
-132.06
-116.72
-98.50
-77.19
-53.34
-28.33
-4.15
17.29
34.96
49.07
60.73
71.22
81.21
90.61
99.22
107.50
116.87
129.18
145.52
165.21
185.62
203.02
214.04
216.77
211.04
197.65
177.41
150.61
117.24
77.77
33.76
-12.13
-56.74
-97.32
-132.23
-161.20
-185.12
-205.53
-223.90
-240.94
-256.13
-267.76
-273.52
-271.54
-261.44
-244.76
-224.50
-203.99
-185.66
-170.52
-158.49
-149.18
-142.71
-139.57
-140.09
-143.72
-148.72
-152.52
-152.47
-146.65
-134.38
-116.42
-94.83
-72.55
-52.73
-37.81
-28.79
-24.83
-23.61
-22.47
-19.52
-14.29
-7.58
-0.66
5.60
11.19
16.72
22.87
29.90
37.46
44.68
50.49
53.81
53.82
49.98
42.14
30.54
15.76
-1.24
-19.10
-36.07
-50.21
-59.76
-63.67
-62.03
-56.06
-47.74
-39.06
-31.56
-26.05
-22.78
-21.69
-22.68
-25.47
-29.53
-33.91
-37.32
-38.50
-36.58
-31.27
-22.89
-12.22
-0.43
11.14
21.14
28.61
33.28
35.76
37.36
39.54
43.23
48.27
53.41
56.92
57.55
55.42
52.31
51.19
55.13
66.24
84.81
109.14
136.08
161.88
183.19
197.87
205.32
206.43
203.07
197.43
191.23
185.42
180.28
175.73
171.98
169.72
170.04
173.80
180.74
188.83
194.34
193.27
183.14
164.44
140.78
117.64
100.05
90.46
87.68
87.49
84.15
72.04
47.13
7.82
-44.39
-104.69
-165.71
-219.27
-258.80
-281.57
-289.10
-285.55
-274.82
-258.39
-235.24
-204.54
-168.73
-134.83
-112.47
-109.50
-127.65
-161.18
-199.56
-232.22
-252.50
-258.80
-252.86
-236.83
-211.83
-178.50
-139.13
-98.92
-64.90
-42.87
-34.34
-35.58
-39.57
-39.74
-33.19
-21.87
-11.11
-6.90
-12.96
-29.22
-51.98
-75.17
-92.19
-97.49
-87.91
-63.45
-27.41
14.24
54.05
84.74
100.67
99.01
80.29
48.40
9.91
-27.38
-56.49
-73.36
-78.26
-75.28
-70.12
-66.99
-66.18
-63.65
-53.03
-29.07
9.41
58.42
110.56
158.00
195.46
221.60
238.32
248.85
255.76
259.74
259.68
253.32
238.31
213.06
177.31
132.68
82.76
33.02
-10.25
-41.28
-56.45
-55.33
-40.62
-17.26
8.96
32.79
50.37
59.54
59.85
52.56
40.42
27.21
16.97
12.85
16.25
26.61
41.72
58.78
75.44
90.41
103.48
115.05
125.47
134.65
142.05
146.89
148.45
146.29
140.28
130.61
117.82
102.78
86.60
70.51
55.56
42.45
31.38
21.91
13.10
3.73
-7.38
-21.00
-37.17
-55.14
-73.47
-90.39
-104.36
-114.62
-121.38
-125.77
-129.20
-132.74
-136.69
-140.59
-143.59
-145.09
-144.91
-143.13
-139.53
-133.17
-122.45
-105.89
-83.08
-55.32
-25.57
2.42
25.42
41.67
51.28
55.87
57.70
58.72
59.98
61.49
62.55
62.36
60.37
56.57
51.48
46.02
41.37
38.64
38.58
41.25
45.89
51.06
55.18
57.23
57.19
56.06
55.17
55.27
55.79
54.88
50.07
39.39
22.32
0.06
-24.78
-48.93
-69.25
-83.29
-89.55
-87.60
-78.16
-63.03
-44.94
-26.98
-11.96
-1.70
3.28
3.66
0.97
-2.98
-6.48
-8.02
-6.26
-0.12
10.78
25.65
42.20
57.01
66.46
68.04
61.38
48.37
32.50
17.53
6.37
0.39
-0.49
2.64
8.29
14.87
20.94
25.29
27.12
26.18
22.76
17.53
11.31
4.94
-0.81
-5.25
-7.87
-8.48
-7.35
-5.34
-3.62
-3.40
-5.50
-10.07
-16.57
-23.96
-31.02
-36.57
-39.62
-39.42
-35.64
-28.45
-18.77
-8.17
1.40
8.29
11.66
11.94
10.58
9.38
9.75
12.05
15.61
19.20
21.85
23.19
23.51
23.38
23.08
22.46
21.00
18.24
14.11
9.04
3.67
-1.57
-6.56
-11.46
-16.19
-20.15
-22.20
-21.19
-16.69
-9.62
-2.18
2.86
3.19
-2.00
-11.71
-23.37
-33.74
-39.83
-39.65
-32.77
-20.46
-5.49
8.45
17.81
20.43
16.38
8.12
-0.46
-5.59
-5.24
0.12
7.91
14.70
17.81
16.31
11.20
4.64
-1.20
-5.04
-6.80
-7.31
-7.62
-8.41
-9.78
-11.49
-13.27
-15.14
-17.25
-19.72
-22.35
-24.62
-25.83
-25.47
-23.46
-20.19
-16.44
-13.05
-10.73
-9.78
-9.97
-10.46
-10.01
-7.37
-1.82
6.37
15.94
25.04
31.90
35.40
35.26
31.95
26.28
19.33
12.29
6.70
4.12
5.73
11.63
20.50
29.85
36.90
39.79
38.28
33.74
28.39
24.16
21.84
20.81
19.44
15.81
8.65
-2.20
-15.68
-29.86
-42.52
-51.82
-56.83
-57.62
-55.08
-50.29
-43.97
-36.20
-26.47
-14.15
0.92
18.15
36.38
54.32
70.89
85.32
96.79
104.26
106.72
103.86
96.73
87.82
79.99
74.84
71.44
66.15
54.12
31.44
-2.76
-45.68
-91.45
-132.96
-163.99
-180.66
-182.07
-169.83
-147.07
-117.30
-84.03
-50.45
-19.66
5.31
21.67
27.75
24.14
14.17
3.28
-3.57
-3.34
4.40
18.00
34.99
53.29
71.86
90.57
109.53
127.29
141.51
149.93
151.46
146.36
135.76
120.76
102.00
79.50
51.43
15.80
-28.17
-79.00
-133.42
-187.41
-237.82
-282.82
-312.65
-318.74
-297.11
-251.52
-191.42
-126.89
-64.85
-8.98
39.39
80.36
113.48
138.59
155.88
167.43
175.02
179.54
180.64
177.53
169.85
156.99
138.75
115.47
87.68
55.10
18.04
-24.07
-72.32
-127.93
-192.33
-265.59
-344.95
-424.02
-493.86
-545.47
-573.44
-577.91
-564.58
-542.64
-520.85
-504.40
-493.57
-484.96
-473.73
-455.95
-429.26
-392.65
-345.84
-288.92
-222.73
-149.33
-72.21
4.13
74.82
135.79
184.56
220.50
244.43
258.07
263.43
262.43
256.85
248.55
239.79
233.42
232.82
241.16
260.27
289.73
326.26
364.59
399.42
427.52
448.66
464.86
478.25
489.06
494.79
491.10
473.70
440.26
391.25
329.56
259.47
185.77
113.22
46.08
-12.56
-61.65
-102.84
-140.36
-179.37
-223.26
-271.41
-318.33
-355.26
-373.56
-368.25
-340.26
-296.16
-245.03
-194.71
-149.10
-107.61
-66.98
-24.00
22.64
72.07
122.17
170.68
215.84
256.39
291.36
320.51
345.02
367.74
392.68
422.81
457.69
492.20
517.68
524.91
507.96
466.85
407.52
339.29
271.28
209.63
156.69
112.18
74.90
44.06
19.47
0.76
-13.26
-24.78
-36.03
-48.39
-61.67
-74.38
-84.37
-90.21
-92.14
-92.14
-93.49
-99.70
-113.37
-135.69
-166.58
-205.19
-250.47
-301.38
-356.31
-412.29
-464.71
-507.70
-535.46
-543.86
-531.73
-501.08
-456.39
-403.09
-346.10
-289.34
-235.81
-188.06
-148.35
-118.12
-97.40
-84.64
-77.39
-73.62
-72.54
-74.78
-81.22
-91.41
-102.60
-110.31
-110.10
-99.77
-80.62
-57.36
-36.44
-23.56
-21.66
-29.73
-42.88
-53.69
-54.45
-39.76
-8.88
33.34
77.16
110.82
124.59
114.53
84.67
45.93
12.50
-3.19
5.24
36.61
83.30
134.47
179.74
211.98
228.43
230.69
224.14
216.31
214.56
223.12
240.53
259.02
266.77
252.80
212.53
151.10
82.71
25.64
-4.98
-3.36
24.53
63.58
95.80
107.49
93.98
60.08
16.69
-24.57
-55.57
-73.45
-79.52
-76.63
-66.93
-51.45
-31.05
-7.79
14.39
30.50
36.48
31.29
17.87
2.47
-7.56
-6.84
5.80
26.58
48.23
62.93
65.54
55.53
36.97
16.44
-0.02
-9.19
-11.56
-10.33
-9.36
-11.20
-16.24
-23.14
-29.88
-34.49
-35.24
-30.68
-20.27
-5.33
10.01
19.42
16.61
-1.33
-31.48
-65.19
-91.23
-100.59
-90.36
-64.85
-33.12
-4.79
13.84
21.33
20.18
14.42
7.45
1.13
-4.04
-8.06
-10.76
-11.77
-10.79
-7.90
-3.59
1.40
6.41
10.93
14.58
17.22
18.82
19.41
19.02
17.43
14.41
10.19
6.10
4.86
9.92
23.83
46.50
74.24
100.46
117.67
120.24
106.44
79.08
44.56
10.75
-15.26
-29.30
-31.05
-24.06
-14.64
-10.03
-16.50
-37.50
-72.63
-117.34
-163.69
-201.77
-221.78
-216.33
-182.79
-124.51
-50.75
25.38
90.32
133.97
152.58
149.65
134.30
117.69
109.12
112.96
127.69
147.01
162.50
166.38
153.65
122.97
76.66
19.95
-40.01
-95.44
-139.34
-166.68
-175.55
-167.32
-146.01
-117.02
-85.71
-55.96
-29.57
-6.34
15.19
36.53
58.23
79.45
98.44
113.87
126.30
138.06
151.82
167.99
183.04
189.72
179.79
147.93
94.85
27.75
-42.04
-102.91
-146.65
-170.42
-176.65
-171.79
-164.34
-162.87
-173.86
-199.64
-236.80
-276.33
-306.17
-314.92
-295.67
-248.87
-182.71
-111.16
-49.67
-10.07
3.25
-5.45
-25.30
-43.79
-52.40
-49.95
-42.20
-37.63
-42.02
-55.00
-70.20
-78.63
-73.32
-52.07
-17.29
26.13
73.33
120.40
163.92
200.26
225.77
237.94
236.95
226.23
211.18
196.64
184.46
172.65
156.50
130.74
92.19
41.60
-15.74
-70.62
-111.83
-128.87
-115.02
-69.77
0.34
83.23
164.80
233.10
281.37
308.92
319.46
318.35
309.86
295.89
276.17
249.49
214.98
172.77
124.16
71.10
