1564662155.00
64.000000
-0.00
-0.00
-0.00
-0.00
-0.00
-0.00
-0.00
-0.00
-0.00
-0.00
0.00
0.01
0.01
-0.00
-0.03
-0.05
-0.05
0.00
0.13
0.36
0.66
1.01
1.37
1.72
2.06
2.40
2.79
3.24
3.80
4.44
5.10
5.73
6.32
6.88
7.48
8.19
9.08
10.24
11.56
12.92
14.18
15.27
16.26
17.33
18.72
20.58
23.12
26.14
29.33
32.40
35.20
37.85
40.71
44.24
48.76
54.61
61.39
68.56
75.52
81.99
88.11
94.46
101.81
110.70
121.59
133.87
146.65
159.02
170.46
181.17
191.98
204.36
217.04
232.15
250.05
270.61
292.52
312.99
327.98
333.19
325.47
303.89
270.55
228.88
182.87
135.68
89.13
43.90
0.21
-41.71
-81.46
-118.51
-153.00
-185.28
-215.94
-245.55
-274.85
-304.42
-334.16
-362.87
-388.04
-406.43
-415.31
-413.78
-403.23
-386.67
-367.03
-345.78
-322.57
-296.16
-266.36
-235.13
-206.13
-182.80
-166.20
-154.13
-142.32
-127.04
-107.34
-85.77
-66.86
-54.30
-48.47
-46.16
-42.52
-33.92
-20.30
-4.99
7.08
12.31
10.86
6.50
4.24
7.47
15.87
25.70
32.12
32.23
27.11
21.07
19.06
23.53
32.87
42.24
46.47
43.08
33.76
23.27
16.69
16.61
21.80
28.22
31.34
28.93
22.14
14.87
11.39
13.95
21.26
29.23
33.33
31.13
23.86
15.78
11.48
13.29
19.66
25.95
27.33
21.73
11.37
1.53
-2.54
1.36
10.86
20.40
24.35
20.32
10.51
0.48
-4.14
-0.81
8.49
18.45
23.37
20.36
10.91
-0.07
-7.16
-7.33
-1.40
6.51
11.62
11.22
6.27
0.61
-1.57
1.80
9.07
15.74
17.22
11.59
1.03
-9.27
-14.01
-10.82
-1.74
7.75
12.06
8.75
-0.21
-9.51
-13.60
-10.07
-1.03
8.06
11.64
7.13
-3.40
-14.33
-19.66
-16.52
-6.98
3.10
7.45
2.76
-9.14
-22.26
-29.87
-28.26
-18.83
-7.15
0.35
0.19
-6.03
-12.84
-14.58
-9.02
1.33
10.46
12.63
6.26
-5.01
-14.36
-15.75
-7.46
6.42
18.30
21.59
14.45
0.88
-11.42
-15.55
-9.29
3.40
14.98
19.08
14.01
3.85
-4.04
-3.50
6.34
20.56
31.30
32.09
21.78
5.25
-9.13
-14.32
-8.30
4.96
17.74
22.84
17.75
5.83
-5.85
-10.60
-6.05
4.26
13.21
14.48
6.65
-5.76
-14.85
-14.16
-2.75
13.98
27.38
30.62
22.68
9.10
-1.47
-2.45
6.71
20.27
29.64
28.47
16.40
-0.88
-14.94
-19.41
-13.34
-1.36
9.10
12.18
6.78
-3.25
-11.45
-12.48
-5.32
6.11
15.28
16.62
8.78
-4.48
-16.23
-20.34
-14.91
-3.55
6.91
10.45
5.30
-4.74
-12.57
-12.09
-1.92
13.34
25.62
27.96
18.77
2.72
-11.63
-16.57
-9.72
4.63
17.80
21.80
14.06
-1.40
-16.25
-22.64
-17.92
-5.85
5.79
10.12
5.25
-4.87
-13.03
-13.49
-5.23
7.07
16.05
16.32
7.84
-4.07
-11.92
-10.59
-0.19
13.72
23.27
22.97
12.97
-1.28
-12.07
-13.91
-6.68
4.49
12.21
11.24
1.93
-10.26
-17.87
-15.93
-5.01
9.14
18.62
18.09
7.94
-6.04
-16.07
-17.00
-8.90
3.01
11.58
11.97
4.61
-5.38
-11.46
-9.63
-0.88
9.28
14.21
10.17
-1.17
-13.64
-19.95
-16.11
-3.89
10.17
18.51
16.95
7.22
-4.04
-9.18
-4.19
8.75
22.65
29.69
25.88
13.45
-0.21
-7.14
-3.43
8.45
21.12
26.68
20.97
6.16
-10.51
-21.08
-21.18
-12.41
-1.28
4.78
1.83
-8.04
-17.98
-20.44
-11.81
5.28
22.96
32.29
28.41
13.30
-5.35
-18.31
-19.90
-11.05
1.69
10.23
9.72
1.29
-9.09
-14.40
-10.91
-0.57
10.11
14.12
8.39
-4.28
-16.70
-21.51
-15.64
-2.24
11.06
16.56
10.84
-3.26
-18.23
-26.11
-22.81
-10.43
4.12
13.03
11.85
1.77
-11.24
-19.90
-19.78
-11.71
-1.01
5.59
4.20
-3.61
-11.88
-13.88
-6.57
7.40
20.87
26.20
20.16
6.07
-8.13
-14.57
-9.91
2.59
15.06
19.90
14.49
2.53
-8.48
-11.93
-6.11
4.88
13.63
14.40
6.56
-5.06
-12.96
-11.51
-0.36
15.05
26.87
28.85
19.92
4.87
-8.35
-12.95
-7.36
4.14
13.76
14.64
4.96
-10.58
-23.37
-25.94
-16.32
0.59
15.79
21.27
14.82
1.26
-10.71
-13.83
-6.57
6.34
16.83
18.81
11.76
0.86
-6.53
-5.56
3.25
14.14
19.85
16.02
3.87
-10.33
-18.91
-17.05
-5.61
9.28
19.42
19.00
7.78
-8.80
-22.60
-27.13
-21.14
-9.05
1.70
4.96
-0.60
-10.82
-18.68
-18.56
-9.70
3.30
13.23
14.51
6.46
-6.35
-16.64
-18.68
-11.33
1.20
11.87
14.96
9.25
-1.14
-9.27
-9.56
-1.32
10.73
19.30
18.82
9.11
-4.39
-13.83
-13.62
-3.96
9.27
17.92
16.61
5.81
-8.44
-18.10
-17.73
-7.52
6.80
17.44
18.93
11.16
-0.78
-9.59
-10.03
-2.13
8.97
15.99
14.13
4.05
-8.24
-15.02
-11.61
0.67
14.88
22.43
18.16
3.62
-13.77
-24.86
-23.86
-11.43
5.55
17.95
19.56
10.32
-4.00
-15.21
-17.26
-9.66
2.50
11.73
12.76
5.55
-4.90
-11.59
-9.87
-0.35
11.36
18.18
15.96
5.92
-5.92
-12.25
-8.97
2.31
15.23
22.16
18.55
5.49
-10.81
-22.51
-24.36
-16.64
-4.65
4.34
5.26
-1.80
-11.85
-18.11
-16.12
-6.46
5.73
13.71
13.19
4.92
-5.91
-12.88
-12.16
-4.55
5.05
10.74
9.30
2.10
-5.95
-9.28
-5.13
4.91
15.88
22.32
21.45
14.61
6.34
1.56
2.96
9.47
17.15
21.69
20.82
15.57
9.50
6.52
8.65
14.95
22.11
26.68
27.14
24.90
23.37
25.85
33.29
43.34
51.70
54.53
50.91
43.70
38.23
39.82
50.98
70.14
92.27
110.94
120.72
118.97
106.26
85.30
59.56
31.93
4.04
-23.74
-51.66
-79.98
-108.39
-136.31
-163.12
-188.45
-212.29
-234.91
-256.54
-277.18
-296.59
-314.16
-328.48
-338.01
-341.10
-336.22
-322.14
-298.39
-265.56
-225.29
-179.71
-131.10
-81.37
-31.63
17.43
65.15
110.33
150.82
183.30
205.19
214.33
209.22
189.20
155.02
110.22
61.55
17.67
-13.89
-30.19
-35.07
-37.85
-47.83
-70.49
-103.82
-139.02
-164.64
-172.55
-159.74
-128.62
-84.77
-34.59
15.92
61.70
98.74
124.63
139.44
146.41
150.76
157.77
170.68
189.76
213.10
237.55
260.04
278.14
290.25
295.43
293.56
285.47
272.81
257.63
241.82
226.65
212.61
199.78
187.94
176.78
166.02
155.29
144.05
131.62
117.35
100.75
81.66
60.63
37.82
13.27
-13.07
-41.62
-73.46
-110.23
-153.44
-201.84
-251.46
-295.15
-323.96
-329.87
-308.84
-262.74
-199.37
-130.32
-67.89
-22.56
1.06
3.75
-9.05
-29.11
-47.52
-57.14
-54.22
-39.09
-15.51
10.26
30.99
40.08
33.18
9.72
-26.18
-66.44
-101.73
-123.35
-127.79
-117.17
-97.43
-75.72
-58.39
-50.41
-55.37
-75.86
-110.81
-155.11
-199.73
-233.85
-248.45
-239.24
-207.73
-158.49
-98.79
-35.30
27.19
85.73
138.29
183.00
218.38
243.65
259.15
266.03
266.49
262.62
256.04
247.60
237.34
225.02
210.52
193.96
175.75
156.75
137.86
119.83
103.73
89.48
76.97
66.27
57.69
51.49
47.94
46.96
48.08
50.46
52.84
54.21
53.89
51.63
47.50
41.91
35.39
28.45
21.56
14.86
8.60
3.15
-1.13
-3.85
-4.71
-3.57
-0.50
4.30
10.27
17.03
24.37
32.26
40.79
50.01
59.71
69.26
79.28
89.37
98.93
107.31
114.08
118.93
121.58
121.57
118.26
110.88
98.53
80.96
58.79
33.55
7.37
-17.64
-39.92
-58.95
-75.29
-90.30
-105.31
-121.04
-137.33
-153.30
-167.73
-179.72
-188.95
-195.99
-202.55
-211.31
-225.53
-247.89
-278.81
-314.81
-348.26
-368.99
-367.72
-339.70
-287.05
-218.44
-146.46
-83.83
-40.12
-19.92
-22.40
-42.20
-70.94
-99.16
-118.61
-124.37
-116.04
-97.48
-74.93
-54.27
-38.95
-29.04
-21.48
-11.57
5.40
32.30
68.86
111.08
152.01
183.52
198.87
194.96
172.95
137.81
96.48
55.80
20.77
-6.20
-25.17
-38.09
-47.63
-56.10
-64.43
-71.88
-76.63
-77.01
-73.07
-67.05
-62.29
-61.05
-62.70
-63.73
-59.82
-48.85
-32.86
-17.61
-9.29
-11.00
-20.18
-30.02
-33.36
-26.49
-10.34
11.66
36.57
63.83
94.26
127.87
161.70
189.91
206.36
207.24
192.43
164.88
129.00
88.94
49.21
15.02
-8.48
-18.10
-14.68
-3.64
6.78
12.44
10.82
3.02
-7.35
-16.53
-22.81
-26.87
-30.46
-34.71
-39.27
-43.38
-46.11
-47.15
-47.20
-47.72
-50.07
-54.92
-61.91
-69.83
-77.89
-85.56
-92.99
-100.85
-110.06
-121.36
-134.90
-150.13
-165.71
-180.60
-193.74
-204.28
-211.51
-214.93
-213.91
-207.77
-197.13
-181.38
-160.24
-134.02
-103.68
-70.79
-37.24
-4.92
24.55
50.01
70.99
87.24
98.68
105.46
107.91
106.48
101.69
94.12
84.53
73.74
62.31
50.76
39.48
28.78
18.90
10.02
2.21
-4.43
-9.81
-13.91
-16.79
-18.62
-19.43
-19.25
-18.05
-16.47
-14.78
-12.89
-10.60
-7.58
-3.43
2.06
8.88
16.83
25.63
35.22
45.64
57.19
70.18
84.56
99.86
115.09
129.02
140.95
151.34
161.88
174.88
191.85
212.32
233.62
251.96
264.19
268.93
266.87
259.33
246.97
229.51
206.47
178.66
149.02
121.86
100.75
86.54
76.82
67.41
54.93
39.16
23.26
11.50
6.75
8.41
12.57
14.23
10.25
0.98
-9.89
-17.65
-19.54
-16.62
-13.22
-14.41
-22.79
-36.60
-49.94
-56.07
-51.20
-36.94
-19.74
-7.30
-4.44
-10.21
-18.67
-22.65
-18.46
-8.10
1.94
4.62
-3.23
-19.02
-36.15
-48.13
-52.11
-49.85
-46.03
-44.48
-45.40
-45.36
-39.52
-24.95
-2.97
20.58
37.78
42.20
32.09
11.33
-11.96
-28.98
-34.27
-28.07
-16.01
-5.67
-2.35
-6.05
-11.48
-11.29
-1.06
17.32
36.16
45.57
38.54
14.61
-20.02
-55.60
-83.26
-98.07
-99.82
-91.31
-75.93
-56.27
-34.14
-11.65
8.02
20.70
22.93
13.91
-2.87
-20.21
-29.63
-25.11
-6.38
20.33
44.72
57.68
55.77
43.00
28.14
19.39
19.43
23.80
24.44
15.59
-1.67
-19.26
-26.75
-18.27
2.91
25.19
34.39
21.66
-11.24
-52.23
-84.72
-95.75
-81.88
-50.45
-15.38
9.87
18.46
11.94
-2.06
-14.86
-21.14
-20.85
-17.47
-14.55
-13.27
-11.80
-7.32
1.50
13.13
23.62
28.92
27.22
19.91
10.69
3.48
0.48
1.32
3.75
5.26
4.72
2.86
1.61
2.47
5.25
7.88
7.64
2.80
-6.20
-16.72
-25.19
-29.08
-28.31
-25.11
-22.71
-23.26
-26.16
-28.40
-26.12
-17.08
-2.33
13.97
26.41
31.03
27.60
19.58
12.17
9.37
11.81
16.37
18.26
13.82
2.78
-11.42
-23.40
-28.68
-25.98
-17.97
-9.68
-5.65
-7.56
-13.25
-18.04
-17.52
-10.36
0.82
10.67
14.20
10.04
1.53
-4.99
-3.98
5.46
18.31
25.80
20.34
0.12
-29.16
-57.22
-74.43
-76.94
-68.02
-54.90
-43.46
-34.46
-23.64
-5.71
20.72
50.95
76.26
88.67
85.70
71.40
53.72
39.61
31.08
24.27
11.70
-13.48
-53.66
-104.70
-156.89
-198.45
-219.88
-217.44
-194.41
-159.42
-122.93
-93.48
-75.42
-68.83
-71.18
-79.38
-90.92
-104.17
-117.54
-128.94
-135.87
-135.85
-126.95
-107.91
-78.37
-39.36
6.15
53.18
95.48
127.49
146.27
152.61
150.42
144.71
138.68
132.14
122.09
105.40
82.07
56.80
37.79
32.91
45.83
73.93
109.59
143.55
168.81
182.74
187.00
185.10
179.86
172.09
161.11
146.36
128.80
110.82
95.25
83.85
76.76
72.88
70.50
68.15
64.73
59.43
51.74
41.77
30.59
20.27
13.43
12.23
17.42
28.08
42.13
57.22
71.95
86.17
100.91
117.59
137.02
158.56
179.73
196.75
205.77
204.39
192.62
172.77
148.36
122.41
96.31
69.58
40.87
9.62
-22.97
-54.17
-81.16
-102.83
-120.61
-137.50
-155.78
-174.99
-191.44
-200.05
-197.40
-184.10
-164.86
-146.21
-133.02
-126.31
-123.23
-119.41
-111.80
-100.22
-87.02
-75.38
-67.37
-62.99
-60.53
-58.02
-54.53
-50.86
-49.08
-51.38
-58.73
-69.76
-80.91
-87.41
-85.16
-72.25
-49.60
-20.41
11.24
41.92
69.85
94.88
117.77
139.04
158.33
174.29
185.44
190.45
188.64
179.82
163.43
138.88
105.50
62.88
11.51
-46.75
-108.94
-171.43
-230.48
-282.95
-326.59
-360.11
-383.07
-396.75
-401.96
-399.22
-388.85
-371.30
-347.32
-318.03
-284.87
-249.44
-213.23
-177.21
-142.07
-108.18
-75.50
-44.05
-13.88
14.96
42.38
68.25
92.47
114.62
133.85
148.72
157.32
157.64
147.97
127.27
95.57
54.05
4.69
-50.15
-108.14
-167.32
-226.19
-283.51
-338.00
-388.13
-432.00
-467.55
-492.98
-507.17
-509.77
-501.38
-483.23
-456.87
-423.67
-384.17
-337.38
-280.62
-209.95
-122.16
-17.42
98.74
215.28
317.94
393.34
433.65
439.58
420.39
391.08
367.71
362.80
382.16
423.80
478.62
533.05
572.23
583.99
562.76
511.36
441.07
368.92
313.15
287.89
299.17
343.49
409.15
480.99
544.88
592.15
621.30
634.86
638.05
635.97
631.18
622.98
608.94
585.59
549.90
499.89
439.76
372.37
300.04
225.59
148.94
73.58
4.16
-55.09
-102.02
-136.94
-162.69
-182.87
-200.22
-215.95
-229.08
-238.06
-241.70
-240.22
-235.24
-228.81
-224.20
-224.09
-229.75
-240.28
-253.73
-267.83
-280.87
-291.74
-300.09
-305.72
-307.88
-305.14
-295.24
-275.98
-244.41
-199.88
-144.21
-81.32
-16.29
45.97
101.71
148.48
186.04
214.87
234.93
245.33
244.48
230.91
204.43
166.78
121.65
73.71
26.70
-16.20
-54.35
-89.11
-122.65
-156.79
-192.47
-230.09
-269.47
-309.56
-347.71
-379.45
-399.42
-403.71
-392.11
-368.77
-340.77
-314.66
-293.67
-276.68
-259.98
-240.26
-217.40
-195.26
-179.89
-176.20
-185.05
-202.47
-221.01
-232.93
-233.20
-221.09
-200.02
-175.15
-150.33
-125.98
-99.34
-66.84
-27.39
15.67
55.34
84.19
98.33
99.57
94.48
90.79
93.27
101.40
109.90
112.25
104.59
87.99
67.72
50.22
39.70
36.47
37.63
39.38
39.30
37.09
33.81
30.28
26.18
20.43
12.58
4.08
-1.87
-1.58
6.73
21.28
36.90
47.26
47.78
37.90
21.23
3.93
-7.62
-9.07
1.09
21.71
49.43
78.99
103.75
117.08
114.77
97.79
72.90
50.58
40.76
48.24
70.37
98.26
121.53
131.46
124.45
102.07
69.11
30.79
-9.13
-48.62
-86.55
-121.84
-153.62
-180.87
-203.41
-221.63
-236.18
-246.94
-252.28
-249.26
-235.26
-211.22
-180.34
-148.64
-122.50
-105.58
-96.52
-88.97
-73.61
-43.23
4.30
65.71
133.73
200.78
261.47
313.16
354.88
385.53
403.08
405.20
392.23
365.77
329.13
286.45
240.49
191.84
139.66
83.99
27.80
-22.67
-60.33
-80.13
-81.31
-67.64
-45.34
-20.58
2.29
20.97
34.49
42.52
45.72
46.25
47.51
53.19
65.67
84.65
106.88
127.15
139.97
141.41
130.97
111.93
91.33
77.36
75.75
86.20
101.36
109.76
101.95
77.08
44.22
18.53
13.12
31.95
67.71
106.24
134.73
148.24
151.80
155.49
167.85
190.61
218.46
242.55
255.45
253.89
238.63
213.68
183.00
149.05
111.47
67.18
11.80
-57.59
-137.23
-221.94
-299.58
-358.62
-393.10
-405.35
-404.09
-399.22
-396.26
-394.09
-387.63
-371.91
-346.89
-317.47
-290.14
-268.46
-251.19
-234.09
-213.45
-189.58
-166.04
-147.81
-137.23
-132.03
-126.35
-114.60
-95.08
-71.00
-49.00
-34.91
-30.60
-33.02
-36.09
-34.60
-27.37
-17.56
-10.48
-10.02
-15.74
-23.12
-26.16
-21.07
-8.65
5.92
16.05
17.70
11.34
1.77
-4.73
-4.02
3.64
14.08
21.67
22.65
17.08
8.61
2.38
2.10
7.82
16.26
22.90
24.45
20.76
14.68
10.14
9.94
13.90
19.15
22.09
20.64
15.63
10.40
8.66
12.11
19.14
25.78
28.17
25.06
18.71
13.56
13.55
19.53
28.47
35.04
34.68
26.45
13.57
1.83
-3.65
-1.19
6.54
14.20
16.88
12.81
4.25
-3.77
-6.61
-2.65
5.73
13.53
16.12
11.96
3.50
-4.32
-7.12
-3.53
3.89
10.24
11.16
5.47
-3.94
-11.75
-13.29
-7.27
3.40
13.16
16.90
13.00
4.16
-4.16
-6.83
-2.08
7.49
16.39
19.50
15.10
5.86
-2.82
-6.05
-2.41
5.35
11.99
12.97
7.09
-2.70
-11.15
-13.89
-9.97
-2.19
4.73
7.04
4.17
-0.79
-3.08
0.83
10.65
22.33
30.27
30.37
22.61
11.23
2.37
0.53
5.89
14.30
19.92
18.60
10.33
-0.52
-7.78
-7.21
0.92
12.02
19.71
19.51
11.32
-0.58
-10.03
-12.51
-7.64
0.77
6.97
6.73
-0.17
-9.99
-17.26
-17.82
-11.47
-2.01
5.11
6.13
1.19
-5.82
-9.65
-6.88
2.00
12.60
19.41
19.18
12.53
3.52
-2.91
-3.81
0.04
4.95
6.72
3.23
-4.10
-11.26
-13.83
-9.76
-0.53
9.27
14.65
12.90
5.27
-3.57
-8.28
-5.81
2.63
12.21
17.37
15.13
7.01
-1.99
-6.22
-2.93
6.06
15.37
19.13
14.49
3.53
-7.84
-13.31
-9.83
0.36
11.03
15.54
10.78
-0.76
-12.52
-17.79
-13.69
-2.70
8.65
13.83
10.25
0.78
-8.12
-10.43
-4.14
7.63
18.44
22.42
17.52
6.74
-3.87
-8.61
-5.35
3.28
11.45
13.73
8.31
-1.92
-11.05
-13.72
-8.25
2.32
12.01
15.51
11.10
1.73
-6.72
-8.91
-3.26
7.13
16.44
19.31
13.86
2.65
-8.65
-14.79
-13.74
-7.65
-1.41
0.33
-3.93
-11.48
-17.06
-16.00
-7.49
4.90
14.93
17.19
10.43
-1.75
-12.80
-17.18
-13.40
-4.76
2.89
4.72
-0.08
-7.85
-12.96
-11.30
-2.90
8.09
15.84
16.24
9.15
-1.63
-10.42
-12.96
-8.59
-0.51
6.33
7.98
3.66
-3.71
-9.43
-9.57
-3.65
5.22
12.08
12.96
7.32
-1.35
-7.52
-7.06
0.14
10.07
16.94
16.66
9.46
-0.24
-6.39
-5.04
3.02
12.87
18.27
15.57
6.10
-4.52
-9.83
-6.27
4.58
16.86
23.91
22.06
12.51
0.56
-7.66
-8.48
-2.86
4.48
8.25
5.53
-2.60
-11.84
-17.13
-15.51
-8.03
1.08
6.59
5.20
-2.51
-12.30
-18.50
-17.25
-8.97
1.88
9.11
8.26
-0.51
-12.49
-21.09
-21.66
-14.20
-3.30
4.73
5.87
0.72
-5.98
-8.67
-4.32
5.45
15.32
19.57
15.51
5.15
-6.14
-12.63
-11.35
-3.76
5.21
10.17
8.29
0.81
-7.79
-12.44
-10.33
-2.64
6.41
12.06
11.83
6.78
0.70
-2.24
-0.14
5.50
10.71
11.61
6.66
-2.05
-9.88
-12.31
-7.75
1.58
10.61
14.21
10.42
1.89
-5.59
-6.33
1.67
15.25
27.55
31.82
25.41
11.49
-2.86
-10.66
-9.02
-0.49
8.28
10.82
4.80
-6.97
-18.14
-22.64
-18.36
-8.24
1.54
5.28
0.89
-8.95
-18.47
-22.16
-18.02
-8.57
0.77
4.63
0.75
-8.57
-17.78
-21.32
-16.92
-6.87
3.40
8.55
6.62
0.33
-4.71
-3.66
4.31
15.65
24.23
25.13
17.98
7.18
-0.88
-1.43
5.54
15.36
21.43
19.05
8.25
-6.22
-17.61
-20.90
-15.50
-5.63
2.46
4.07
-1.40
-10.29
-16.73
-16.13
-7.95
4.02
13.81
16.72
11.87
2.78
-4.59
-5.39
1.06
10.81
17.70
16.80
7.62
-5.23
-14.80
-15.76
-7.80
4.26
13.31
14.21
6.88
-3.69
-10.56
-9.21
-0.15
11.45
18.87
17.98
9.82
-0.42
-6.67
-5.51
1.50
9.15
11.57
5.94
-5.78
-17.99
-24.65
-22.72
-13.84
-3.42
2.57
1.05
-6.43
-14.51
-17.34
-12.04
-0.34
12.33
19.97
19.53
12.62
4.43
0.60
3.77
12.14
20.48
23.23
17.75
6.03
-6.54
-14.29
-14.07
-7.19
1.57
6.57
4.45
-3.97
-14.23
-20.71
-20.05
-13.02
-4.12
1.25
0.10
-6.47
-13.67
-15.97
-10.53
0.93
13.13
20.11
18.83
10.79
1.21
-4.09
-2.23
5.34
13.87
18.09
15.31
7.12
-1.58
-5.57
-2.27
6.60
15.97
20.19
16.24
5.47
-7.21
-16.07
-17.82
-13.13
-6.38
-2.81
-5.27
-12.53
-19.96
-22.54
-17.91
-7.99
2.12
7.07
4.63
-3.07
-10.67
-12.93
-7.91
1.90
10.87
13.76
8.88
-0.89
-9.76
-12.34
-6.85
3.90
14.07
18.10
13.82
3.63
-6.78
-11.73
-8.76
-0.06
8.91
12.51
8.21
-1.89
-12.05
-16.23
-11.61
-0.34
11.76
18.44
16.82
8.97
0.72
-2.12
2.49
11.64
19.15
19.33
10.63
-3.18
-15.08
-18.96
-13.40
-2.18
7.68
10.12
3.61
-8.19
-18.63
-22.04
-16.83
-6.36
3.21
6.76
3.35
-3.48
-7.96
-5.73
3.44
15.31
23.67
24.01
16.08
3.96
-6.16
-9.43
-5.00
3.48
10.20
10.46
3.27
-8.05
-17.79
-20.88
-16.05
-6.35
2.61
5.99
2.74
-3.87
-8.21
-6.03
2.66
13.45
20.21
18.83
9.87
-1.58
-9.06
-8.40
-0.39
9.74
15.35
12.41
1.85
-10.94
-19.13
-18.54
-9.75
2.05
10.23
10.44
3.02
-7.10
-13.38
-11.38
-1.54
11.10
19.68
19.35
10.16
-3.04
-13.32
-15.56
-9.31
0.98
8.46
8.00
-0.77
-13.25
-22.77
-24.34
-17.81
-7.80
-0.83
-1.15
-8.05
-16.34
-19.47
-13.76
-0.76
13.31
21.41
19.91
10.49
-0.66
-6.63
-3.71
6.32
17.55
23.37
20.23
9.53
-3.24
-11.72
-12.23
-5.69
3.12
8.64
7.63
1.16
-6.06
-8.63
-3.87
6.28
16.12
19.62
13.87
1.24
-11.90
-18.71
-15.84
-5.33
6.54
12.89
10.14
-0.05
-11.94
-19.14
-18.24
-10.78
-1.79
3.32
2.04
-3.67
-8.75
-8.49
-1.44
9.49
18.58
20.87
15.20
5.12
-3.25
-4.94
1.00
10.94
18.65
19.11
11.41
-0.69
-10.85
-13.56
-7.23
4.74
15.89
20.22
15.49
4.52
-6.71
-12.40
-10.32
-3.06
3.84
5.33
0.09
-8.68
-15.20
-14.84
-6.93
4.75
14.11
16.35
10.63
0.55
-8.10
-10.68
-6.05
3.03
11.30
14.12
10.00
1.25
-7.23
-10.83
-7.72
0.03
7.66
10.40
6.41
-2.08
-10.06
-12.64
-7.99
1.51
10.47
13.68
9.27
-0.18
-9.16
-12.63
-9.05
-1.17
5.56
6.34
0.23
-9.26
-16.28
-16.18
-8.46
2.78
10.95
10.99
2.51
-10.03
-19.83
-21.67
-14.93
-3.85
5.04
6.88
1.25
-7.80
-14.25
-13.70
-6.04
4.62
12.38
12.94
6.07
-4.32
-12.43
-13.83
-7.98
1.60
9.34
10.82
5.45
-3.15
-9.24
-8.31
0.12
12.02
21.21
22.96
16.96
7.55
1.12
2.23
10.59
21.24
27.36
24.39
12.88
-1.75
-12.31
-13.96
-7.00
3.42
10.49
9.51
0.84
-10.57
-18.21
-17.81
-9.79
1.06
8.24
7.44
-1.00
-12.43
-20.67
-21.53
-15.11
-5.67
1.08
1.37
-4.53
-12.48
-16.95
-14.32
-5.26
5.56
12.27
11.32
3.63
-5.77
-10.67
-7.36
3.19
15.64
23.48
22.52
13.26
0.53
-9.16
-11.37
-6.05
2.51
8.37
7.43
-0.25
-10.47
-17.29
-16.42
-7.94
3.68
12.25
13.48
7.48
-1.30
-6.80
-4.96
3.59
13.92
19.78
17.35
7.54
-4.57
-12.51
-12.14
-3.87
7.58
15.99
17.29
11.62
3.08
-2.63
-1.90
4.62
12.32
15.34
10.21
-1.99
-15.88
-24.73
-24.32
-15.39
-3.35
4.91
5.00
-2.36
-11.84
-16.81
-13.24
-2.35
10.19
17.53
15.69
5.88
-6.28
-14.06
-13.59
-5.89
3.88
9.66
8.14
0.68
-7.76
-11.54
-7.93
1.22
10.65
14.61
10.14
-1.07
-13.53
-21.07
-20.39
-12.74
-3.12
2.76
2.09
-3.46
-8.74
-8.49
-0.76
11.51
22.22
25.47
19.27
6.81
-5.28
-10.88
-7.72
1.36
10.18
13.05
7.97
-2.16
-11.47
-14.53
-9.66
0.09
8.84
11.38
6.21
-3.51
-11.96
-14.08
-8.59
1.34
9.72
11.15
4.15
-8.04
-19.11
-23.23
-18.29
-7.09
4.28
9.81
7.17
-0.90
-8.41
-9.74
-3.07
8.51
18.76
22.06
16.84
6.61
-2.25
-4.33
1.69
12.26
21.09
22.70
15.47
2.73
-9.39
-15.30
-13.06
-5.23
2.65
5.32
0.98
-7.65
-14.98
-16.19
-10.19
-0.40
7.26
7.91
1.03
-9.00
-15.49
-13.52
-3.31
9.88
18.65
17.72
7.06
-7.92
-19.45
-21.90
-14.63
-2.31
7.96
10.62
4.72
-5.56
-13.47
-13.76
-5.82
5.99
14.92
15.77
7.89
-4.17
-13.31
-14.22
-6.55
4.89
13.16
13.35
5.45
-5.53
-12.61
-10.86
-0.45
13.46
23.66
24.91
16.61
3.08
-8.89
-13.72
-10.19
-1.76
5.75
7.47
2.21
-7.03
-14.88
-16.73
-11.50
-2.19
6.07
9.05
5.93
-0.30
-4.63
-3.19
4.27
14.10
20.77
20.30
12.51
1.45
-6.82
-7.60
-0.47
10.52
18.97
19.89
12.60
1.10
-8.25
-10.24
-4.09
6.11
13.86
14.19
6.68
-4.31
-12.27
-12.43
-4.78
5.86
12.73
11.22
1.50
-11.62
-21.46
-23.40
-17.22
-7.05
1.10
3.19
-0.71
-6.64
-9.24
-5.04
5.22
16.83
23.58
21.38
10.71
-3.34
-14.11
-16.61
-10.44
0.09
8.52
10.06
4.53
-3.82
-9.08
-7.31
0.99
11.17
17.18
15.13
5.73
-6.08
-14.14
-14.72
-8.44
0.18
5.42
3.72
-4.29
-14.14
-20.01
-18.11
-8.87
3.14
11.69
12.50
5.57
-4.52
-11.39
-10.56
-2.14
9.24
17.07
16.81
8.46
-3.49
-12.59
-14.20
-7.93
2.08
9.75
10.58
4.20
-5.50
-12.67
-12.78
-5.30
5.84
14.68
16.67
11.10
1.48
-6.65
-8.93
-4.79
2.40
7.54
7.20
1.75
-5.04
-8.22
-4.90
3.75
12.89
16.59
11.53
-0.81
-14.73
-23.35
-22.60
-13.26
-0.60
8.65
10.03
3.89
-5.28
-11.79
-12.05
-6.58
0.64
4.75
2.95
-3.83
-11.39
-14.97
-12.03
-3.89
4.85
9.04
5.88
-3.01
-12.46
-16.70
-12.90
-2.89
7.83
13.22
10.22
0.79
-9.27
-13.57
-9.09
2.00
13.60
19.42
16.44
6.61
-4.36
-10.36
-8.35
-0.15
8.78
12.73
9.18
0.46
-7.69
-9.56
-3.08
8.95
20.27
24.81
20.17
8.90
-2.91
-9.25
-7.43
0.34
8.62
12.02
8.31
-0.18
-8.16
-10.32
-4.63
6.47
17.40
22.56
19.57
10.49
0.67
-4.42
-2.45
4.37
10.66
11.09
3.67
-8.70
-19.95
-24.25
-19.71
-9.42
0.39
3.95
-0.44
-9.52
-16.73
-16.37
-7.04
7.13
18.89
22.14
15.28
2.15
-10.38
-16.06
-12.62
-2.68
7.83
13.09
10.66
2.57
-6.16
-10.57
-8.58
-2.26
3.71
4.86
-0.60
-10.51
-20.01
-24.20
-21.16
-13.12
-5.13
-1.91
-4.93
-11.56
-16.55
-15.24
-6.47
6.40
17.28
20.90
15.91
6.03
-2.19
-3.30
3.76
15.01
23.74
24.46
16.09
2.81
-8.48
-12.06
-6.79
3.06
10.42
9.64
0.04
-13.85
-24.83
-27.23
-20.18
-8.05
2.13
4.81
-0.96
-11.21
-19.71
-21.64
-16.30
-7.15
0.50
2.92
0.12
-4.17
-4.86
1.10
12.86
25.62
33.39
32.35
23.14
10.73
1.54
-0.03
5.96
15.24
21.89
21.64
14.41
4.25
-3.08
-3.64
2.46
10.94
16.05
13.90
5.01
-5.85
-12.39
-10.56
-1.12
10.62
17.82
15.98
5.46
-8.70
-19.76
-23.13
-18.78
-11.21
-6.16
-7.30
-13.82
-20.98
-23.11
-17.07
-4.49
8.92
16.63
15.19
6.22
-4.51
-10.58
-8.71
-0.44
8.73
12.77
8.71
-1.54
-12.38
-17.84
-14.71
-4.44
7.65
15.12
13.84
4.31
-8.63
-18.51
-20.66
-14.64
-4.57
3.42
4.77
-0.58
-8.13
-11.83
-7.87
2.74
14.61
20.98
17.96
7.00
-5.78
-13.27
-11.66
-2.63
7.99
13.70
11.16
2.33
-6.97
-10.67
-6.04
4.66
15.68
21.06
18.07
8.66
-1.61
-6.85
-4.29
4.27
13.38
17.25
13.05
2.64
-8.27
-13.51
-10.05
0.05
10.90
16.04
12.37
1.80
-9.75
-15.89
-13.28
-3.74
7.03
12.75
10.15
0.87
-9.57
-14.87
-11.59
-1.14
10.91
18.15
16.91
8.21
-2.96
-10.60
-11.07
-5.15
2.48
6.29
3.49
-4.36
-12.20
-14.72
-9.57
0.98
11.33
15.71
11.64
1.47
-8.97
-13.95
-11.27
-3.48
3.80
5.41
-0.16
-9.82
-17.78
-18.96
-12.09
-0.42
9.95
13.63
9.07
-0.39
-8.62
-10.39
-4.50
5.68
14.12
15.76
9.37
-1.59
-11.03
-13.89
-8.99
0.32
8.25
10.04
4.44
-5.52
-14.46
-17.50
-13.10
-4.05
4.13
6.13
-0.11
-11.94
-23.32
-28.13
-23.78
-12.89
-1.95
2.25
-3.63
-17.41
-32.52
-41.85
-41.90
-34.71
-26.44
-23.40
-28.53
-39.51
-50.58
-56.28
-55.03
-50.18
-47.89
-53.33
-67.64
-87.12
-105.29
-116.70
-119.91
-118.38
-118.12
-124.22
-138.08
-156.71
-174.78
-187.83
-195.23
-200.50
-208.91
-223.52
-242.62
-260.01
-268.18
-262.76
-245.08
-221.56
-199.67
-183.42
-170.87
-154.63
-126.24
-80.10
-15.94
61.44
144.61
226.47
301.91
367.94
422.69
464.47
491.69
503.09
498.61
479.94
450.43
414.40
375.99
338.34
302.92
269.71
237.90
206.68
175.88
146.12
118.51
94.14
73.54
56.48
42.13
29.43
17.58
6.24
-4.42
-13.97
-21.97
-28.26
-33.01
-36.62
-39.54
-42.10
-44.43
-46.47
-48.08
-49.13
-49.56
-49.46
-48.97
-48.21
-47.28
-46.22
-45.07
-43.81
-42.44
-40.97
-39.39
-37.75
-36.04
-34.29
-32.50
-30.71
-28.94
-27.24
-25.61
-23.87
-22.16
-20.54
-19.03
-17.62
-16.34
-15.14
-14.04
-13.03
-12.10
-11.27
-10.53
-9.85
-9.23
-8.65
-8.11
-7.61
-7.15
-6.72
-6.34
-6.00
-5.69
-5.39
-5.12
-4.87
-4.62
-4.40
-4.18
-4.00
-3.83
-3.67
-3.53
-3.39
-3.26
-3.13
-3.01
-2.90
-2.79
-2.70
-2.62
-2.54
-2.46
-2.38
-2.31
-2.25
-2.17
-2.12
-2.06
-2.00
-1.95
-1.90
-1.85
-1.81
-1.76
-1.71
-1.67
-1.63
-1.59
-1.55
-1.52
-1.48
-1.45
-1.41
-1.38
-1.34
-1.30
-1.25
-1.21
-1.15
-1.08
-1.00
-0.92
-0.82
-0.70
-0.58
-0.44
-0.29
-0.15
-0.03
0.05
0.09
0.12
0.17
0.25
0.37
0.55
0.75
0.96
1.16
1.33
1.48
1.67
1.92
2.24
2.63
3.07
3.51
3.93
4.30
4.69
5.16
5.79
6.63
7.61
8.66
9.62
10.43
11.07
11.65
12.41
13.52
15.08
16.98
19.00
20.86
22.33
23.38
24.26
25.32
26.91
29.26
32.18
35.32
38.16
40.23
41.31
41.47
41.01
40.09
38.70
36.40
32.57
26.58
17.98
6.55
-7.69
-24.29
-42.04
-58.38
-70.83
-76.88
-75.40
-67.30
-55.32
-42.95
-33.11
-27.44
-25.80
-27.52
-31.61
-37.18
-43.24
-48.51
-51.57
-51.47
-48.25
-42.95
-37.42
-33.19
-30.97
-30.71
-31.82
-33.64
-35.32
-35.75
-33.52
-27.52
-17.41
-4.36
9.21
20.61
27.87
30.57
29.82
27.54
25.28
23.77
22.80
21.78
20.34
18.59
17.01
16.00
15.69
15.72
15.67
15.10
13.90
12.29
10.68
9.44
8.74
8.56
8.58
8.49
8.05
7.24
6.22
5.26
4.57
4.25
4.23
4.32
4.33
4.13
3.72
3.20
2.71
2.39
2.27
2.31
2.41
2.50
2.49
2.39
2.23
2.09
2.01
1.99
2.05
2.15
2.25
2.33
2.41
2.48
2.54
2.61
2.69
2.76
2.84
2.93
3.02
3.11
3.20
3.30
3.40
3.52
3.62
3.74
3.85
3.98
4.11
4.24
4.38
4.53
4.68
4.84
5.01
5.18
5.36
5.55
5.74
5.95
6.17
6.40
6.63
6.89
7.15
7.42
7.71
8.01
8.33
8.65
8.99
9.33
9.68
10.02
10.36
10.69
10.99
11.29
11.55
11.80
12.04
12.25
12.45
12.63
12.82
12.99
13.17
13.35
13.53
13.71
13.88
14.06
14.21
14.35
14.45
14.52
14.55
14.51
14.40
14.19
13.87
13.42
12.80
12.01
11.03
9.83
8.39
6.68
4.67
2.33
-0.37
-3.47
-7.00
-10.98
-15.42
-20.38
-25.90
-32.01
-38.74
-46.14
-54.25
-63.10
-72.69
-83.10
-94.41
-106.68
-119.94
-134.24
-149.53
-165.72
-182.62
-199.85
-216.81
-232.76
-246.89
-258.23
-265.64
-268.11
-264.83
-255.58
-240.05
-218.32
-190.98
-158.91
-123.45
-86.06
-48.34
-11.66
22.72
53.86
81.05
103.83
122.01
135.65
145.03
150.63
152.97
152.54
149.93
145.61
139.98
133.47
126.42
119.08
111.56
103.99
96.38
88.59
80.55
72.29
63.69
54.82
45.76
36.72
27.81
19.22
11.18
3.90
-2.60
-8.24
-13.06
-17.16
-20.68
-23.77
-26.66
-29.58
-32.82
-36.58
-41.01
-46.21
-52.03
-58.07
-63.74
-68.29
-70.90
-70.77
-67.24
-59.83
-48.12
-31.87
-10.99
14.38
43.64
75.01
106.23
134.55
156.98
170.50
172.60
161.73
137.69
101.87
57.13
7.64
-41.93
-87.01
-123.65
-148.83
-160.78
-159.04
-144.64
-120.06
-88.78
-55.00
-22.89
3.96
23.09
33.46
35.34
29.98
19.24
4.96
-11.33
-28.46
-45.32
-60.65
-72.88
-80.53
-82.70
-79.56
-72.52
-63.81
-55.52
-48.64
-42.34
-34.36
-21.87
-2.75
23.18
53.79
85.50
114.57
138.85
158.62
176.63
197.01
223.52
258.43
301.46
349.54
396.93
435.92
458.35
457.06
428.03
372.13
296.34
212.59
134.80
73.89
33.75
10.33
-5.35
-21.77
-42.45
-65.21
-85.19
-99.17
-108.13
-115.96
-125.30
-133.77
-133.44
-115.08
-74.26
-15.88
46.40
95.47
117.95
109.86
77.35
33.41
-7.99
-37.32
-52.12
-56.54
-58.27
-64.96
-81.32
-107.96
-141.60
-175.93
-202.81
-213.74
-202.03
-165.32
-107.33
-37.71
30.42
84.63
117.02
126.14
116.04
92.97
62.22
26.51
-12.98
-54.24
-92.94
-122.85
-138.24
-136.38
-118.91
-91.00
-59.44
-30.60
-9.74
-0.92
-6.81
-27.80
-60.80
-98.71
-131.65
-149.90
-147.03
-122.22
-80.18
-29.02
22.70
68.33
104.53
131.52
151.54
168.31
185.69
206.63
232.49
262.92
295.87
327.98
355.11
373.00
378.24
368.97
345.38
309.80
265.99
218.15
169.82
123.36
79.69
38.85
0.56
-35.21
-67.94
-96.72
-120.61
-139.05
-152.16
-160.75
-165.95
-168.93
-170.55
-171.15
-170.70
-168.94
-165.69
-160.98
-155.12
-148.54
-141.74
-135.04
-128.61
-122.42
-116.36
-110.30
-104.16
-97.96
-91.76
-85.67
-79.78
-74.15
-68.81
-63.75
-58.98
-54.45
-50.17
-46.11
-42.28
-38.66
-35.25
-32.03
-29.02
-26.21
-23.62
-21.23
-18.95
-16.83
-14.89
-13.17
-11.66
-10.41
-9.36
-8.48
-7.70
-6.94
-6.18
-5.41
-4.67
-4.02
-3.48
-3.05
-2.69
-2.30
-1.80
-1.18
-0.43
0.33
1.03
1.55
1.91
2.21
2.63
3.34
4.45
5.86
7.31
8.53
9.27
9.55
9.60
9.87
10.80
12.60
15.04
17.58
19.56
20.50
20.46
19.97
19.98
21.45
24.91
29.94
35.53
40.25
42.87
42.86
40.39
36.17
30.78
24.52
16.89
7.00
-6.02
-22.56
-42.18
-64.45
-88.31
-111.57
-130.51
-140.45
-137.23
-119.31
-89.62
-53.97
-20.16
5.47
20.24
25.62
25.48
23.71
22.31
21.18
19.48
16.60
13.32
11.25
11.75
14.98
19.77
24.21
26.46
25.79
22.73
18.91
16.36
16.59
19.92
25.34
30.90
34.56
35.13
32.69
28.73
25.52
25.10
28.33
34.49
41.48
46.73
48.56
46.65
42.44
38.33
36.54
38.20
43.21
50.63
59.13
66.97
71.63
69.81
58.03
34.32
-0.28
-41.39
-82.36
-117.07
-142.40
-159.33
-171.51
-182.13
-191.13
-194.54
-186.67
-163.77
-127.04
-82.97
-40.81
-8.61
9.90
16.00
14.38
9.90
5.28
0.44
-6.14
-15.59
-27.35
-39.43
-49.61
-56.87
-61.91
-66.58
-73.04
-82.26
-93.67
-105.37
-115.02
-120.63
-121.24
-117.20
-109.08
-97.54
-82.80
-64.74
-43.12
-18.07
9.75
39.07
68.66
97.63
125.53
152.18
177.05
198.85
215.28
223.58
221.19
206.83
180.91
145.53
104.30
61.89
23.74
-4.93
-20.59
-22.78
-15.06
-3.96
3.37
2.69
-5.41
-15.32
-19.38
-11.87
8.28
37.26
68.63
96.41
117.43
131.49
140.45
146.38
150.27
152.19
151.75
148.60
142.65
134.35
122.60
105.46
80.90
48.28
9.91
-28.78
-60.57
-79.04
-81.73
-71.71
-56.02
-42.54
-36.76
-39.99
-49.92
-62.65
-74.96
-85.56
-94.83
-103.40
-111.33
-118.03
-122.88
-126.01
-128.54
-132.08
-138.33
-148.18
-161.31
-176.63
-192.41
-207.09
-219.87
-230.83
-240.48
-249.19
-256.41
-260.53
-258.76
-248.13
-226.36
-192.97
-149.60
-99.77
-47.92
1.71
46.07
83.84
115.09
140.71
161.37
177.01
186.90
190.23
186.74
177.36
164.29
150.55
139.41
133.84
136.30
148.40
169.87
197.75
225.98
246.52
251.47
236.96
205.01
163.01
120.78
86.45
63.68
51.35
45.60
42.45
39.80
37.45
35.77
34.45
32.23
27.64
20.03
10.09
-0.37
-9.00
-14.13
-15.47
-14.20
-12.35
-11.85
-14.03
-19.23
-26.88
-35.92
-45.24
-54.33
-63.15
-71.76
-80.08
-87.62
-93.56
-96.91
-96.84
-92.91
-85.35
-74.87
-62.58
-49.77
-37.82
-27.89
-20.84
-17.04
-16.13
-17.21
-19.00
-20.31
-20.47
-19.66
-18.68
-18.72
-20.83
-25.20
-31.03
-36.78
-41.05
-42.97
-42.76
-41.48
-40.57
-41.26
-44.43
-50.62
-59.70
-70.23
-78.95
-81.07
-71.90
-49.16
-14.83
24.92
61.86
88.97
103.22
106.12
102.07
95.57
89.12
82.79
75.59
67.04
58.19
51.02
47.27
47.19
49.31
51.18
50.38
45.88
38.42
30.18
23.76
21.10
22.54
26.64
30.83
32.60
30.50
24.87
17.67
11.54
8.70
10.12
15.21
22.06
28.05
30.65
27.89
18.77
3.68
-15.29
-34.47
-49.37
-56.12
-53.16
-41.69
-25.23
-7.92
7.34
19.85
30.46
39.78
47.09
50.30
47.21
36.91
20.52
0.90
-18.02
-32.30
-38.94
-36.46
-25.72
-10.00
5.81
16.96
20.83
18.14
12.39
7.61
5.92
6.06
4.23
-3.36
-17.72
-36.12
-53.38
-63.95
-64.08
-52.79
-32.35
-7.66
14.95
29.38
31.80
22.28
4.99
-13.35
-26.37
-30.83
-27.67
-21.03
-15.72
-14.66
-18.02
-24.00
-30.69
-37.34
-44.34
-52.01
-59.76
-65.69
-67.61
-64.14
-55.55
-43.87
-32.45
-24.73
-22.68
-25.58
-29.42
-28.23
-16.70
6.95
39.36
72.94
98.58
110.28
107.22
93.87
77.30
63.66
55.73
52.82
51.80
50.13
47.07
43.42
40.82
40.22
41.37
43.18
44.43
44.40
42.78
38.92
31.07
16.91
-5.16
-34.58
-67.86
-99.32
-123.22
-135.78
-135.66
-125.77
-109.85
-91.24
-72.19
-54.19
-38.49
-26.54
-19.50
-17.30
-18.77
-21.94
-24.95
-27.02
-28.62
-30.94
-35.26
-42.31
-51.96
-63.16
-73.08
-77.69
-72.59
-54.73
-24.25
14.57
54.26
86.68
105.38
109.28
101.71
88.21
73.73
60.87
49.79
39.61
29.90
21.26
15.22
12.79
13.69
16.37
18.87
19.47
17.65
14.16
10.32
7.81
7.57
9.50
12.61
15.46
16.79
16.01
13.39
9.85
6.65
4.59
3.87
4.01
4.15
3.46
1.64
-0.96
-3.33
-4.33
-3.18
0.46
6.43
14.29
23.32
32.45
40.07
44.11
42.61
34.64
21.11
4.83
-10.33
-21.00
-25.72
-25.45
-22.71
-20.13
-19.00
-18.84
-18.07
-15.35
-10.41
-4.24
1.74
6.50
9.95
12.75
15.77
19.30
22.84
25.26
25.62
23.83
20.68
17.51
15.51
15.21
16.40
18.49
20.49
22.13
24.01
27.06
32.10
39.24
47.67
55.99
62.80
66.60
67.31
66.33
65.70
66.75
68.99
69.66
64.77
51.37
27.31
-6.97
-49.07
-95.84
-144.01
-190.64
-232.95
-268.59
-289.06
-290.65
-273.90
-243.74
-207.99
-174.47
-148.45
-130.85
-118.87
-107.45
-92.76
-72.55
-46.94
-17.90
11.74
39.30
62.97
82.18
97.47
109.02
117.13
121.96
123.57
122.29
119.10
115.85
114.75
117.39
123.56
131.55
138.63
142.22
140.87
134.61
124.65
112.52
99.34
85.28
70.21
54.44
38.68
24.00
10.99
-0.70
-12.44
-25.82
-41.74
-59.57
-77.13
-91.56
-100.29
-101.98
-96.73
-85.80
-71.05
-54.41
-37.74
-22.65
-10.48
-2.01
2.74
4.54
4.76
4.84
5.65
6.83
6.72
2.77
-7.29
-24.22
-46.51
-70.42
-90.94
-103.32
-104.44
-93.56
-72.37
-44.30
-13.53
16.03
41.48
61.16
74.16
79.56
75.70
60.33
31.76
-9.52
-59.81
-112.53
-160.23
-196.90
-219.49
-227.82
-223.14
-206.42
-177.85
-137.95
-89.09
-36.64
11.89
49.56
72.95
83.62
86.82
88.28
91.02
94.25
95.00
91.12
83.60
76.64
75.26
82.06
95.18
108.86
116.41
113.71
101.49
84.79
70.35
63.29
64.79
72.00
79.94
84.07
82.43
76.10
67.99
60.59
54.45
48.01
39.05
26.67
12.32
-0.67
-8.67
-9.72
-4.50
4.11
12.30
17.21
17.90
15.27
11.34
8.15
6.72
6.92
7.80
8.28
7.69
6.11
4.16
2.60
2.18
2.86
3.93
4.34
2.99
-0.60
-5.95
-11.87
-17.02
-19.95
-20.55
-19.66
-18.65
-19.19
-22.30
-27.63
-33.73
-38.39
-38.68
-33.49
-23.20
-9.22
5.84
19.08
28.86
34.54
36.05
34.92
32.30
29.69
27.24
22.23
9.67
-13.38
-46.84
-87.93
-129.86
-168.82
-203.78
-229.10
-240.50
-237.19
-222.19
-200.93
-184.55
-169.84
-151.96
-126.56
-90.54
-40.59
20.81
87.76
147.03
185.79
200.58
195.52
179.45
160.40
141.75
122.97
103.16
82.64
63.98
51.25
45.60
45.65
48.78
52.81
54.79
54.13
52.37
52.83
59.54
73.77
93.79
115.51
133.17
141.13
136.03
117.76
89.72
57.74
27.20
0.98
-18.21
-29.26
-32.58
-29.56
-22.23
-12.78
-3.22
4.41
8.59
8.93
6.13
1.41
-4.24
-10.40
-17.26
-25.42
-35.92
-50.35
-70.58
-98.23
-128.99
-156.16
-172.36
-173.25
-159.27
-134.43
-104.22
-73.28
-44.27
-18.08
5.02
24.87
41.23
54.03
63.59
70.34
74.09
76.41
77.86
77.73
74.71
67.92
57.68
45.50
33.13
22.67
16.19
13.68
14.00
14.79
13.54
7.90
-0.13
-10.60
-23.86
-40.24
-55.40
-65.77
-70.68
-71.82
-71.42
-70.65
-70.00
-68.86
-66.20
-69.02
-77.32
-90.54
-107.46
-126.20
-144.71
-162.09
-178.27
-179.67
-163.63
-133.01
-94.99
-56.81
-23.12
4.55
26.52
44.57
60.58
73.51
82.79
87.64
88.10
85.22
80.80
76.03
72.51
70.86
68.58
63.40
53.26
37.15
15.10
-10.64
-38.64
-66.39
-89.81
-104.52
-105.67
-90.79
-61.61
-24.21
13.00
42.36
60.30
67.79
68.15
65.18
60.95
55.53
48.19
39.01
29.48
22.33
19.94
22.96
29.87
38.14
45.35
50.52
54.20
58.32
65.38
77.11
93.41
112.31
130.63
145.24
154.41
157.92
157.74
157.55
161.70
173.19
192.41
216.02
237.53
249.00
243.07
216.27
170.25
111.47
49.30
-6.24
-46.77
-67.65
-64.33
-39.12
-0.86
37.19
61.64
63.22
39.46
-5.39
-63.12
-125.13
-186.05
-243.22
-295.73
-343.08
-385.03
-422.09
-456.51
-492.26
-533.31
-582.12
-636.64
-689.61
-729.88
-746.29
-731.97
-687.16
-619.21
-539.50
-459.62
-387.52
-326.24
-275.12
-232.31
-196.89
-169.19
-149.79
-138.02
-131.59
-126.97
-120.62
-110.23
-95.26
-76.81
-56.69
-36.43
-16.60
3.05
23.16
44.15
65.66
86.44
104.89
119.75
130.57
137.99
143.40
148.39
154.05
160.64
167.50
173.62
178.35
181.72
184.75
189.15
196.78
208.98
226.31
248.19
273.03
298.64
322.67
343.40
360.50
375.36
390.43
407.77
426.94
443.66
450.28
438.17
400.81
336.32
248.29
144.93
37.40
-62.26
-143.03
-196.57
-218.73
-210.32
-177.03
-127.66
-71.47
-15.53
36.83
85.76
133.19
180.60
227.92
272.88
311.76
340.63
356.57
358.60
348.05
328.17
302.82
275.50
248.54
223.11
199.60
178.19
159.00
142.30
127.92
115.01
102.16
88.52
74.03
59.54
46.46
36.30
30.29
28.50
29.57
31.01
30.68
27.48
21.69
14.56
7.60
2.47
-0.25
-1.19
-2.28
-4.57
-8.48
-14.02
-21.44
-31.06
-41.17
-50.10
-56.97
-63.48
-69.37
-73.67
-74.93
-72.41
-65.76
-51.19
-26.55
7.01
41.83
73.89
101.12
123.13
138.91
147.62
155.13
166.34
182.77
196.83
207.25
215.37
224.16
234.34
245.44
264.30
295.20
337.01
376.40
408.73
434.19
456.80
478.73
452.24
353.43
190.98
45.75
-67.56
-152.43
-228.73
-300.44
-367.59
-428.73
-474.93
-500.82
-507.52
-508.70
-509.11
-508.25
-501.71
-487.25
-464.65
-429.62
-381.38
-324.25
-271.85
-230.21
-200.63
-180.46
-167.72
-161.10
-156.12
-150.00
-142.53
-138.89
-139.31
-141.27
-140.69
-135.37
-125.19
-109.88
-90.69
-69.84
-51.73
-37.79
-27.59
-19.47
-12.26
-5.59
1.07
7.82
14.92
21.77
28.45
35.18
42.29
49.71
56.77
62.84
67.22
70.26
72.31
73.52
73.88
73.67
73.65
74.34
76.34
79.74
85.10
92.30
100.47
108.10
113.85
117.16
117.72
116.60
108.60
92.52
70.97
48.02
25.39
2.16
-21.24
-46.77
-73.89
-100.69
-124.54
-144.71
-160.33
-172.04
-180.69
-185.94
-187.10
-182.44
-170.64
-150.90
-123.86
-91.52
-56.35
-20.35
16.17
49.23
73.81
86.15
86.10
76.07
59.07
39.00
16.32
-8.58
-35.13
-61.61
-86.31
-107.75
-122.64
-128.76
-124.85
-110.81
-87.02
-54.68
-15.69
26.72
68.69
106.89
138.89
163.67
180.71
190.38
193.72
191.81
184.92
173.13
157.15
138.41
119.03
100.64
84.99
73.93
67.18
60.71
47.70
21.00
-24.09
-87.90
-166.82
-253.50
-338.48
-403.82
-433.15
-419.95
-372.12
-306.27
-238.11
-178.08
-135.85
-106.82
-85.08
-65.83
-44.70
-17.57
19.16
67.64
120.93
166.84
195.51
203.22
193.01
171.45
144.86
117.61
91.52
66.52
44.95
29.08
21.07
21.56
29.09
40.57
52.93
64.21
74.02
85.07
102.61
128.66
157.96
180.74
186.30
169.20
130.95
78.01
19.57
-35.27
-79.24
-106.78
-113.55
-98.91
-64.24
-16.41
31.64
65.33
74.00
54.82
13.37
-39.73
-94.33
-141.80
-174.74
-192.88
-201.64
-206.60
-208.25
-201.30
-177.90
-132.95
-67.72
8.33
79.48
129.49
147.13
130.39
87.46
34.54
-9.39
-29.24
-20.59
9.33
47.02
77.88
91.75
86.35
67.44
45.60
30.67
26.69
30.83
36.57
38.01
32.63
22.00
10.15
1.43
-1.67
0.91
8.11
20.73
41.38
71.50
105.98
131.65
134.65
109.98
63.86
9.09
-41.16
-78.07
-98.96
-106.22
-104.18
-96.40
-85.09
-72.24
-60.18
-51.20
-46.87
-47.36
-51.36
-56.38
-59.38
-57.82
-50.67
-38.94
-25.04
-12.42
-4.54
-4.01
-11.18
-23.32
-35.66
-43.67
-45.53
-42.48
-37.38
-32.04
-25.48
-14.42
4.23
30.03
57.70
79.42
88.67
83.94
69.77
54.22
44.28
42.49
45.99
48.79
45.50
34.18
17.01
-1.59
-16.99
-26.72
-30.54
-29.91
-26.50
-21.19
-13.94
-4.69
5.21
12.79
14.00
5.72
-12.33
-36.99
-62.74
-84.19
-98.25
-104.89
-106.15
-104.41
-100.99
-95.94
-88.93
-80.20
-70.82
-61.54
-51.79
-38.91
-19.13
10.27
49.65
95.70
141.73
179.49
202.13
206.61
194.58
171.36
143.65
117.24
95.26
78.06
64.28
52.19
40.60
29.13
17.77
6.64
-4.09
-14.25
-23.61
-32.07
-39.88
-47.67
-56.06
-65.23
-74.54
-82.31
-86.51
-85.40
-78.32
-65.89
-49.80
-32.13
-14.79
0.74
13.27
21.44
23.54
17.93
3.81
-18.07
-45.22
-74.05
-100.88
-123.08
-139.51
-150.29
-156.05
-157.23
-153.74
-145.23
-131.46
-112.73
-89.94
-64.39
-37.47
-10.37
15.99
40.92
63.84
84.23
101.68
115.93
127.00
135.07
140.38
143.06
143.05
140.25
134.69
126.61
116.70
105.97
95.53
86.48
79.67
75.52
73.91
74.10
74.90
75.17
74.26
72.34
70.22
68.79
68.31
68.21
67.28
64.40
59.04
51.59
43.03
34.37
26.43
19.64
14.25
10.46
8.43
8.09
8.96
10.30
11.32
11.48
10.52
8.32
4.77
-0.22
-6.58
-14.07
-22.22
-30.50
-38.50
-46.03
-53.11
-59.72
-65.74
-70.83
-74.55
-76.54
-76.65
-74.96
-71.72
-67.20
-61.50
-54.71
-46.97
-38.69
-30.59
-23.61
-18.60
-16.11
-16.24
-18.75
-23.33
-29.75
-37.83
-47.31
-57.60
-67.66
-76.31
-82.58
-86.02
-86.78
-85.30
-81.91
-76.73
-69.70
-60.80
-50.10
-37.74
-23.71
-7.83
10.20
30.41
52.32
74.96
97.18
117.96
136.39
151.50
162.13
166.94
164.69
154.69
137.23
113.88
87.25
60.61
37.10
19.13
7.96
3.61
4.94
10.29
18.07
26.91
35.67
43.05
47.62
47.83
42.52
30.96
13.46
-8.49
-32.69
-56.98
-80.01
-101.24
-120.69
-138.40
-154.84
-170.01
-182.99
-192.24
-196.18
-194.00
-185.43
-170.79
-150.71
-127.30
-102.87
-78.93
-56.19
-35.01
-16.53
-1.99
7.40
11.00
7.38
-3.96
-21.64
-42.60
-63.32
-81.61
-95.70
-104.06
-98.39
-74.58
-36.44
6.61
45.71
80.82
112.06
139.58
159.97
171.75
174.08
167.93
156.07
141.97
128.39
115.78
103.74
91.62
79.45
66.47
52.32
37.59
23.80
12.61
4.60
0.03
-1.15
1.08
5.72
11.42
17.10
22.15
26.39
29.57
31.98
34.26
37.33
41.47
46.62
52.71
59.85
68.23
77.58
87.24
96.09
102.90
106.39
105.71
100.81
92.24
80.89
67.46
52.60
36.93
21.35
6.98
-5.07
-13.98
-19.62
-22.58
-23.99
-25.15
-27.16
-30.86
-36.77
-45.28
-56.58
-70.55
-86.50
-103.07
-118.33
-130.06
-136.33
-135.97
-128.91
-116.26
-100.16
-83.31
-68.38
-57.61
-52.37
-53.05
-59.13
-69.34
-81.90
-94.87
-106.30
-114.50
-118.37
-117.54
-112.51
-104.54
-95.35
-86.66
-79.77
-75.20
-72.64
-71.10
-69.34
-66.19
-60.93
-53.32
-43.51
-31.85
-18.64
-4.05
11.80
28.74
46.37
63.98
80.63
95.26
107.01
115.39
120.41
122.59
122.82
122.19
121.63
121.74
122.66
124.11
125.58
126.62
126.92
126.52
125.70
124.92
124.67
125.32
127.09
130.06
134.12
138.88
143.46
146.50
146.31
141.28
130.52
114.17
93.36
69.72
44.85
19.77
-5.05
-29.49
-53.35
-76.03
-96.53
-113.64
-126.37
-134.21
-137.27
-136.21
-132.02
-125.63
-117.67
-108.41
-97.81
-85.87
-72.87
-59.60
-47.08
-36.50
-28.74
-24.15
-22.46
-22.81
-23.91
-24.45
-23.61
-21.38
-18.64
-16.97
-17.89
-22.30
-30.07
-40.02
-50.42
-59.59
-66.35
-70.27
-71.67
-71.46
-70.81
-70.89
-72.19
-74.07
-74.79
-71.98
-63.46
-48.11
-26.31
-0.04
27.51
52.70
72.21
83.50
85.14
76.96
60.20
37.42
12.00
-12.71
-33.87
-49.59
-59.22
-63.22
-62.82
-59.42
-54.12
-47.52
-40.41
-32.90
-24.39
-14.08
-1.73
11.91
25.47
37.82
48.84
58.27
67.10
77.10
89.24
102.20
112.76
117.42
114.13
102.76
82.42
53.81
19.99
-13.99
-43.12
-63.87
-75.17
-78.70
-78.50
-82.23
-95.38
-118.79
-149.21
-182.20
-214.12
-242.55
-266.03
-265.12
-230.73
-170.19
-101.36
-37.52
17.37
64.28
104.04
135.65
158.87
172.84
178.65
179.33
178.57
177.16
172.70
161.59
141.95
112.20
72.99
35.51
14.70
18.30
39.36
62.23
73.14
67.53
51.20
34.87
28.03
33.86
50.94
74.14
99.35
125.59
153.96
185.11
217.11
246.07
261.14
255.47
225.73
175.04
111.12
42.08
-26.33
-90.91
-149.82
-201.84
-244.55
-277.20
-297.64
-304.01
-297.47
-282.72
-265.80
-252.02
-244.84
-244.63
-251.51
-261.07
-265.89
-259.36
-237.80
-200.29
-148.38
-86.45
-9.18
67.90
121.95
142.73
137.69
121.92
108.51
104.23
108.93
118.23
124.76
125.89
123.99
122.66
123.81
127.05
130.13
129.81
123.34
107.91
85.12
59.93
37.38
20.40
9.57
3.66
0.10
-3.09
-7.66
-12.66
-15.57
-14.66
-10.31
-4.46
0.53
2.90
2.33
-0.68
-3.91
-5.13
-3.40
0.39
4.46
7.13
7.20
4.43
-0.83
-6.99
-12.65
-17.07
-20.21
-22.32
-23.61
-24.87
-27.32
-31.98
-38.37
-45.40
-51.47
-54.67
-53.59
-48.22
-40.50
-33.49
-29.96
-30.82
-36.88
-48.82
-66.39
-87.55
-106.03
-113.15
-102.60
-77.98
-40.63
8.23
65.59
125.01
178.98
219.95
242.58
245.51
231.85
208.64
182.81
159.41
140.81
127.00
114.96
101.81
86.92
72.38
61.80
57.28
58.87
64.72
71.86
74.76
69.49
55.90
36.75
15.03
-8.35
-33.93
-62.28
-92.99
-127.73
-166.72
-207.51
-246.38
-280.39
-307.52
-324.72
-327.36
-292.30
-212.50
-106.16
-4.13
71.85
115.35
130.03
124.10
106.45
84.42
60.03
34.35
10.04
-8.79
-18.77
-19.23
-11.67
1.35
16.82
29.57
35.55
34.35
29.25
24.23
22.32
24.87
31.48
39.75
44.35
39.85
24.29
0.62
-25.53
-48.52
-64.67
-73.14
-75.41
-69.73
-55.34
-32.60
-2.55
32.49
68.43
99.86
121.82
131.93
131.11
124.75
115.53
105.82
96.47
86.82
75.63
62.15
46.75
30.31
12.57
-7.20
-29.20
-53.49
-79.44
-105.25
-128.19
-145.71
-156.65
-162.12
-164.42
-165.01
-163.75
-158.96
-148.55
-131.37
-108.15
-81.38
-54.36
-29.85
-8.97
8.29
22.30
33.00
39.85
42.28
40.29
34.50
26.06
16.28
6.07
-4.12
-14.63
-26.12
-38.86
-52.15
-64.38
-73.61
-78.27
-78.02
-73.66
-67.21
-60.98
-56.86
-55.10
-55.02
-55.28
-54.59
-52.30
-47.94
-42.01
-35.95
-32.20
-32.85
-40.09
-55.19
-76.87
-100.71
-118.49
-122.02
-106.17
-70.61
-17.75
46.17
112.40
172.35
219.02
250.52
266.92
269.02
258.72
241.96
224.27
208.28
194.08
179.42
165.59
153.49
143.08
134.74
133.03
141.10
158.04
180.09
201.76
223.49
246.44
270.86
268.33
224.51
148.77
65.16
6.89
-32.43
-59.44
-77.73
-93.70
-107.66
-114.69
-111.94
-101.37
-88.23
-79.66
-76.38
-77.88
-83.38
-90.07
-91.68
-83.72
-65.67
-40.12
-12.82
13.70
36.08
45.12
35.44
11.92
-14.02
-33.05
-42.67
-47.85
-53.34
-63.65
-79.70
-98.10
-113.37
-121.98
-124.12
-119.50
-111.25
-96.63
-75.02
-48.40
-19.53
9.64
38.12
65.35
91.63
113.65
127.95
131.96
126.25
114.41
100.75
86.11
70.47
52.50
27.51
-7.79
-53.68
-106.69
-162.07
-216.55
-268.94
-319.61
-352.25
-354.09
-323.52
-272.21
-215.47
-164.21
-123.28
-92.29
-68.59
-48.35
-29.91
-11.88
7.52
30.33
57.02
85.74
115.13
143.12
168.05
187.27
198.69
201.37
195.85
183.71
162.36
137.64
114.79
97.03
83.73
72.10
59.34
44.39
28.02
12.01
-0.92
-10.10
-16.15
-20.71
-25.26
-30.46
-35.90
-40.59
-43.52
-43.40
-40.49
-35.64
-30.02
-24.56
-19.62
-15.00
-10.33
-5.29
0.67
7.26
14.42
21.56
28.01
33.19
36.58
37.87
37.29
35.76
34.06
32.63
31.44
30.08
27.95
24.07
17.49
7.94
-3.89
-16.82
-29.65
-41.29
-50.79
-57.62
-62.58
-67.09
-71.59
-74.48
-73.02
-64.81
-48.93
-26.42
0.04
25.70
45.75
58.09
64.30
67.57
70.34
73.43
76.65
79.58
80.04
74.69
60.75
37.10
3.26
-41.18
-95.78
-158.08
-212.50
-240.32
-234.57
-205.61
-169.04
-134.39
-104.25
-77.88
-53.67
-31.16
-12.56
-1.62
-0.22
-6.41
-15.97
-24.36
-27.74
-23.17
-8.19
15.26
39.83
56.31
58.51
46.08
24.61
3.54
-6.33
1.73
27.45
62.97
97.69
123.59
137.79
141.98
133.35
113.00
77.21
31.22
-14.77
-51.88
-76.18
-87.76
-88.75
-82.53
-73.10
-62.32
-51.25
-40.94
-31.26
-20.28
-5.14
16.38
41.98
67.88
89.39
103.27
107.88
103.39
91.36
73.84
52.40
27.68
0.87
-26.36
-51.71
-73.41
-90.55
-102.94
-110.70
-114.13
-113.87
-110.31
-103.87
-94.87
-83.62
-70.23
-54.54
-36.28
-15.50
7.01
30.11
52.41
72.60
89.55
102.36
110.32
112.95
110.06
101.92
89.36
73.60
56.02
37.85
20.09
3.47
-11.50
-24.52
-35.61
-45.04
-53.21
-60.29
-65.94
-69.26
-69.19
-65.00
-56.87
-45.95
-34.01
-22.78
-13.36
-6.02
-0.41
4.00
7.59
10.53
12.83
14.61
16.10
17.62
19.33
21.20
22.93
24.15
24.64
24.41
23.75
23.04
22.64
22.72
23.23
23.95
24.62
24.97
24.82
24.09
22.73
20.77
18.27
15.30
11.96
8.28
4.29
0.05
-4.25
-8.23
-11.38
-13.18
-13.33
-11.80
-8.87
-5.05
-0.84
3.32
7.14
10.43
13.06
14.97
16.19
16.83
17.07
17.10
17.01
16.77
16.29
15.46
14.25
12.69
10.87
8.87
6.76
4.60
2.48
0.54
-1.06
-2.23
-3.00
-3.52
-4.07
-4.93
-6.28
-8.13
-10.25
-12.20
-13.45
-13.49
-11.96
-8.79
-4.29
1.00
6.40
11.34
15.44
18.56
20.72
22.00
22.46
22.15
21.14
19.60
17.76
15.85
14.06
12.47
11.06
9.73
8.36
6.85
5.13
3.20
1.11
-1.02
-3.10
-5.04
-6.79
-8.36
-9.78
-11.09
-12.34
-13.50
-14.45
-14.99
-14.86
-13.77
-11.54
-8.23
-4.07
0.49
5.00
9.06
12.41
14.95
16.69
17.65
17.85
17.32
16.18
14.66
13.09
11.85
11.18
11.08
11.32
11.49
11.31
10.63
9.56
8.33
7.12
5.94
4.69
3.19
1.35
-0.80
-3.21
-5.78
-8.45
-11.07
-13.34
-14.80
-14.98
-13.60
-10.76
-6.88
-2.61
1.46
4.96
7.80
10.03
11.70
12.79
13.22
12.93
12.04
10.81
9.58
8.67
8.20
8.11
8.16
8.09
7.68
6.89
5.81
4.65
3.62
2.89
2.46
2.19
1.91
1.40
0.50
-0.81
-2.48
-4.36
-6.22
-7.80
-8.76
-8.83
-7.77
-5.57
-2.44
1.17
4.74
7.79
10.03
11.39
11.96
11.90
11.37
10.46
9.26
7.89
6.52
5.37
4.59
4.22
4.12
4.05
3.74
3.01
1.87
0.46
-1.04
-2.49
-3.86
-5.17
-6.49
-7.82
-9.10
-10.28
-11.41
-12.53
-13.69
-14.79
-15.54
-15.54
-14.40
-11.99
-8.45
-4.25
0.07
3.99
7.20
9.58
11.16
11.99
12.16
11.78
10.97
9.96
8.99
8.27
7.90
7.77
7.67
7.35
6.59
5.37
3.78
1.96
0.06
-1.81
-3.61
-5.29
-6.77
-7.95
-8.77
-9.29
-9.62
-9.90
-10.13
-10.21
-9.85
-8.81
-6.94
-4.34
-1.29
1.81
4.58
6.80
8.38
9.34
9.69
9.42
8.51
7.03
5.20
3.33
1.80
0.83
0.46
0.57
0.90
1.21
1.34
1.20
0.74
0.01
-0.94
-2.01
-3.08
-4.06
-4.88
-5.55
-6.11
-6.64
-7.25
-8.04
-8.97
-9.85
-10.31
-9.95
-8.48
-5.92
-2.69
0.60
3.37
5.26
6.24
6.56
6.48
6.20
5.74
5.03
4.06
2.94
1.95
1.37
1.44
2.15
3.31
4.57
5.57
6.06
5.99
5.47
4.67
3.71
2.64
1.41
-0.04
-1.68
-3.49
-5.40
-7.42
-9.54
-11.70
-13.71
-15.19
-15.71
-14.96
-12.90
-9.85
-6.35
-2.96
-0.08
2.17
3.88
5.23
6.33
7.13
7.51
7.38
6.77
5.86
4.93
4.16
3.60
3.20
2.82
2.38
1.81
1.10
0.33
-0.42
-1.14
-1.80
-2.38
-2.78
-2.93
-2.74
-2.20
-1.23
0.15
1.80
3.51
5.12
6.65
8.21
9.98
11.98
14.41
17.20
19.86
21.69
22.09
20.80
17.85
13.43
7.81
2.05
-2.84
-6.37
-8.65
-10.03
-10.80
-11.21
-11.56
-12.00
-11.46
-8.87
-4.15
1.70
7.39
12.07
15.51
18.06
20.57
25.29
34.04
46.95
62.55
79.13
95.73
112.16
128.37
134.53
123.73
97.13
63.17
30.50
3.93
-15.35
-28.62
-38.62
-48.38
-59.29
-70.96
-82.64
-94.04
-105.31
-116.76
-129.07
-143.43
-157.28
-168.06
-173.51
-172.57
-165.50
-153.45
-137.52
-118.45
-96.84
-73.21
-48.06
-22.00
3.97
28.72
50.89
69.82
85.62
98.81
109.80
118.69
125.20
128.90
129.39
125.59
116.96
104.01
88.04
70.44
52.34
34.06
15.75
-2.62
-22.35
-44.20
-67.68
-91.08
-112.46
-130.18
-143.76
-152.94
-150.56
-133.22
-104.10
-71.11
-40.97
-18.14
0.03
15.65
30.29
45.21
59.19
71.07
80.60
88.46
95.48
102.34
108.77
114.41
118.87
120.74
118.90
113.18
104.42
93.76
82.27
70.19
57.63
44.77
31.25
17.08
2.79
-10.73
-22.76
-32.87
-41.30
-48.27
-53.85
-58.28
-61.62
-63.73
-64.41
-63.60
-61.50
-58.63
-55.52
-52.44
-49.46
-46.24
-42.17
-36.67
-29.49
-20.91
-11.74
-2.93
4.67
10.61
14.74
17.05
17.58
16.21
12.80
7.30
-0.02
-8.53
-17.31
-25.43
-32.20
-37.18
-40.18
-41.05
-39.68
-36.03
-30.22
-22.52
-13.35
-3.28
7.04
17.00
26.06
33.85
40.13
44.76
47.75
49.17
49.14
47.78
45.18
41.44
36.66
30.86
24.08
16.44
8.35
0.56
-5.93
-10.28
-12.13
-11.74
-9.95
-7.79
-6.12
-5.34
-5.40
-6.02
-7.01
-8.51
-10.87
-14.52
-19.60
-25.85
-32.69
-39.41
-45.40
-50.30
-53.99
-56.56
-58.18
-59.13
-59.69
-60.10
-60.43
-60.47
-59.70
-57.41
-52.97
-46.15
-37.27
-27.08
-16.49
-6.20
3.49
12.67
21.56
30.24
38.55
46.10
52.43
57.18
60.23
61.56
61.27
59.47
56.26
51.77
46.23
39.93
33.26
26.57
20.16
14.16
8.58
3.33
-1.66
-6.40
-10.76
-14.47
-17.14
-18.52
-18.62
-17.89
-17.07
-17.05
-18.63
-22.34
-28.31
-36.23
-45.34
-54.43
-62.11
-67.02
-68.22
-65.30
-58.26
-47.24
-32.34
-13.80
7.75
30.90
53.76
74.41
91.31
103.44
110.32
111.85
108.15
99.68
87.03
71.38
54.35
37.36
21.18
5.95
-8.29
-21.36
-32.81
-42.85
-51.45
-58.15
-62.65
-65.03
-65.82
-65.69
-65.26
-65.03
-66.34
-69.68
-74.34
-79.30
-84.03
-88.36
-91.84
-93.56
-92.65
-90.32
-87.76
-85.47
-83.19
-80.33
-76.01
-69.44
-60.84
-42.57
-15.59
13.04
37.53
58.12
77.93
97.94
115.40
125.74
125.86
116.05
99.12
79.44
60.61
43.37
26.68
9.77
-6.03
-17.57
-22.86
-18.86
-5.71
13.48
33.68
50.40
61.49
67.39
69.98
70.24
68.39
64.03
56.77
46.49
33.56
18.96
4.19
-9.15
-19.91
-27.44
-31.73
-33.09
-31.89
-28.25
-22.20
-14.35
-6.30
-1.00
-1.77
-10.71
-27.09
-47.20
-65.97
-79.16
-85.13
-84.34
-78.48
-69.12
-56.79
-41.15
-22.08
-1.17
18.07
31.28
36.50
34.69
28.84
22.64
19.03
19.61
23.87
29.39
32.62
32.06
27.54
19.00
6.13
-10.89
-29.93
-46.68
-55.74
-52.91
-35.09
-3.39
36.04
71.19
88.17
81.19
57.21
34.80
20.11
13.69
13.90
16.88
20.92
25.51
30.82
36.37
40.34
39.96
34.96
26.64
16.65
6.75
-1.32
-5.78
-5.53
-1.18
4.62
9.95
13.56
14.96
14.81
14.68
16.68
22.36
31.54
42.16
52.16
59.90
64.43
65.81
64.84
62.71
60.27
57.57
53.87
48.76
42.21
34.47
26.02
17.37
9.04
1.36
-5.54
-11.80
-17.55
-23.00
-28.41
-33.93
-39.51
-44.81
-49.32
-52.56
-54.29
-54.55
-53.61
-51.79
-49.30
-46.19
-42.52
-38.43
-34.33
-30.71
-27.96
-26.15
-24.95
-23.81
-22.20
-19.85
-16.86
-13.53
-10.24
-7.20
-4.44
-1.87
0.58
2.87
4.91
6.65
8.15
9.55
10.94
12.28
13.37
13.94
13.72
12.55
10.41
7.42
3.73
-0.44
-4.90
-9.49
-14.03
-18.40
-22.41
-25.82
-28.34
-29.69
-29.71
-28.41
-26.02
-22.83
-19.06
-14.81
-10.02
-4.61
1.38
7.68
13.77
19.02
22.85
24.88
25.05
23.50
20.56
16.63
12.12
7.46
3.15
-0.31
-2.51
-3.26
-2.68
-1.18
0.79
2.91
5.15
7.68
10.76
14.49
18.72
23.09
27.16
30.59
33.12
34.59
34.86
33.79
31.29
27.44
22.46
16.77
10.85
5.22
0.36
-3.44
-6.15
-8.04
-9.58
-11.28
-13.41
-15.97
-18.62
-20.85
-22.23
-22.59
-22.00
-20.70
-18.92
-16.81
-14.41
-11.75
-8.87
-5.91
-3.04
-0.37
1.99
4.02
5.68
6.96
7.83
8.30
8.42
8.26
7.91
7.45
6.87
6.11
5.07
3.64
1.77
-0.46
-2.91
-5.41
-7.85
-10.12
-12.04
-13.39
-13.90
-13.44
-12.11
-10.31
-8.51
-7.01
-5.72
-4.24
-2.11
0.85
4.39
7.88
10.66
12.27
12.59
11.67
9.46
5.71
0.09
-7.49
-16.58
-26.13
-34.75
-41.22
-45.02
-46.39
-46.10
-45.02
-43.66
-42.17
-40.48
-38.61
-36.79
-35.37
-34.65
-34.56
-34.67
-34.34
-32.91
-29.93
-25.13
-18.32
-9.28
2.07
15.56
30.48
45.46
58.66
68.11
72.25
70.33
62.65
50.53
35.95
21.09
7.78
-2.83
-10.43
-15.35
-18.20
-19.49
-19.28
-17.30
-13.31
-7.33
0.26
8.84
17.77
26.48
34.45
41.05
45.45
46.66
43.93
37.03
26.44
13.25
-1.13
-15.35
-28.30
-39.20
-47.61
-53.33
-56.40
-57.02
-55.48
-52.08
-47.11
-40.93
-33.94
-26.59
-19.28
-12.33
-5.94
-0.20
4.85
9.07
12.28
14.39
15.45
15.74
15.60
15.40
15.48
16.07
17.41
19.75
23.35
28.33
34.64
41.83
49.16
55.68
60.44
62.74
62.32
59.37
54.39
47.97
40.61
32.72
24.68
17.00
10.28
5.10
1.74
0.10
-0.38
-0.52
-1.15
-2.86
-5.86
-9.95
-14.63
-19.14
-22.61
-24.30
-23.84
-21.33
-17.29
-12.43
-7.37
-2.49
2.12
6.39
10.09
12.65
13.32
11.44
6.81
-0.21
-8.75
-17.74
-26.17
-33.38
-39.05
-43.22
-46.15
-48.09
-49.11
-49.05
-47.59
-44.41
-39.43
-32.81
-24.97
-16.45
-7.77
0.50
7.75
13.36
16.78
17.70
16.26
12.98
8.55
3.51
-1.86
-7.50
-13.34
-19.08
-24.23
-28.21
-30.71
-31.81
-32.11
-32.28
-32.80
-33.69
-34.62
-35.12
-34.79
-33.38
-30.76
-26.96
-21.95
-15.65
-8.11
0.37
9.36
18.25
26.63
34.06
39.70
42.76
42.66
39.02
31.85
21.61
9.22
-3.85
-16.08
-26.98
-36.22
-43.30
-47.78
-49.31
-47.76
-43.31
-35.90
-25.74
-14.60
-4.00
5.49
13.96
22.01
30.31
39.41
50.27
63.43
77.14
89.82
100.89
110.38
118.37
124.32
123.23
111.43
94.56
74.30
48.86
18.16
-16.72
-54.01
-91.71
-127.54
-158.32
-175.71
-174.53
-154.79
-122.52
-86.08
-51.59
-21.75
3.19
24.27
42.24
55.46
63.50
66.18
64.39
59.88
54.25
48.68
44.21
41.51
39.68
37.69
35.01
31.02
26.22
21.28
16.84
13.51
11.71
10.78
9.85
8.26
5.98
3.56
1.56
0.25
-0.34
-0.41
-0.47
-0.88
-1.58
-2.08
-1.68
-0.05
2.62
5.69
8.41
10.07
10.28
9.02
6.60
3.47
-0.07
-3.82
-7.56
-10.95
-13.51
-14.79
-14.54
-12.84
-10.08
-6.82
-3.58
-0.74
1.53
3.18
4.25
4.77
4.84
4.58
4.13
3.60
3.00
2.34
1.55
0.56
-0.69
-2.27
-4.20
-6.36
-8.45
-9.99
-10.47
-9.56
-7.27
-4.04
-0.53
2.63
5.06
6.70
7.75
8.47
9.00
9.30
9.28
8.86
8.08
7.12
6.17
5.32
4.56
3.77
2.84
1.75
0.60
-0.40
-1.11
-1.51
-1.76
-2.13
-2.88
-4.22
-6.17
-8.65
-11.53
-14.67
-17.96
-21.29
-24.53
-27.49
-29.90
-31.42
-31.73
-30.59
-27.94
-23.92
-18.90
-13.35
-7.69
-2.22
3.00
7.95
12.62
16.85
20.36
22.81
24.01
24.01
23.11
21.68
20.06
18.43
16.89
15.52
14.56
14.36
15.30
17.52
20.82
24.67
28.36
31.23
32.85
33.05
31.79
29.07
24.83
18.98
11.57
2.85
-6.65
-16.32
-25.53
-33.84
-40.95
-46.60
-50.55
-52.56
-52.50
-50.44
-46.73
-41.86
-36.41
-30.82
-25.38
-20.24
-15.45
-11.03
-7.03
-3.51
-0.51
1.90
3.73
5.00
5.82
6.34
6.72
7.07
7.43
7.79
8.08
8.24
8.22
8.00
7.54
6.81
5.78
4.47
2.96
1.43
0.04
-1.06
-1.85
-2.40
-2.81
-3.21
-3.60
-3.84
-3.73
-3.04
-1.68
0.25
2.50
4.75
6.69
8.17
9.16
9.74
9.96
9.86
9.41
8.62
7.53
6.25
4.94
3.74
2.77
2.12
1.79
1.76
1.94
2.15
2.23
2.05
1.54
0.73
-0.30
-1.46
-2.69
-3.94
-5.20
-6.49
-7.79
-9.08
-10.33
-11.49
-12.56
-13.53
-14.40
-15.14
-15.64
-15.75
-15.28
-14.08
-12.15
-9.60
-6.70
-3.76
-1.01
1.42
3.52
5.35
6.94
8.31
9.38
10.07
10.32
10.14
9.60
8.83
7.97
7.11
6.27
5.43
4.54
3.63
2.78
2.06
1.55
1.21
0.89
0.43
-0.28
-1.22
-2.25
-3.19
-3.91
-4.41
-4.79
-5.16
-5.61
-6.15
-6.72
-7.23
-7.61
-7.77
-7.61
-7.01
-5.90
-4.27
-2.27
-0.12
1.91
3.61
4.93
5.92
6.67
7.26
7.69
7.88
7.76
7.34
6.68
5.88
5.06
4.28
3.60
3.04
2.60
2.27
1.99
1.69
1.26
0.66
-0.08
-0.87
-1.59
-2.15
-2.52
-2.79
-3.06
-3.46
-4.02
-4.71
-5.43
-6.12
-6.70
-7.12
-7.31
-7.15
-6.50
-5.27
-3.50
-1.40
0.71
2.48
3.75
4.50
4.86
5.00
5.03
4.97
4.75
4.35
3.82
3.27
2.87
2.72
2.83
3.10
3.35
3.45
3.32
2.96
2.45
1.85
1.23
0.59
-0.07
-0.73
-1.34
-1.85
-2.22
-2.52
-2.86
-3.40
-4.25
-5.38
-6.65
-7.77
-8.44
-8.41
-7.53
-5.86
-3.59
-1.04
1.44
3.58
5.23
6.38
7.11
7.51
7.64
7.54
7.24
6.79
6.32
5.95
5.74
5.70
5.75
5.79
5.75
5.63
5.41
5.14
4.82
4.47
4.10
3.73
3.36
2.94
2.45
1.91
1.44
1.24
1.42
1.99
2.73
3.29
3.35
2.79
1.80
0.76
0.15
0.29
1.32
3.25
6.05
9.75
14.44
20.22
27.02
34.64
42.78
51.16
59.57
67.86
75.81
83.01
88.90
92.75
93.83
91.62
85.80
76.37
63.51
47.52
28.71
7.47
-15.66
-39.93
-64.33
-87.68
-108.87
-127.00
-141.47
-152.06
-158.72
-161.55
-160.62
-156.06
-148.09
-136.97
-123.08
-106.87
-88.91
-69.90
-50.63
-31.99
-14.86
-0.07
11.75
20.18
25.11
26.78
25.75
22.86
19.08
15.34
12.39
10.69
10.43
11.55
13.82
16.85
20.17
23.27
25.79
27.51
28.48
28.88
28.92
28.67
28.11
27.13
25.64
23.72
21.57
19.42
17.48
15.78
14.26
12.76
11.15
9.36
7.40
5.39
3.48
1.85
0.72
0.24
0.46
1.28
2.48
3.78
4.91
5.72
6.17
6.34
6.31
6.14
5.84
5.39
4.83
4.22
3.66
3.26
3.05
3.02
3.12
3.26
3.37
3.42
3.37
3.22
2.98
2.67
2.34
2.03
1.74
1.42
1.02
0.47
-0.22
-1.03
-1.91
-2.79
-3.66
-4.50
-5.27
-5.87
-6.14
-5.96
-5.25
-4.07
-2.54
-0.88
0.74
2.15
3.27
4.06
4.54
4.79
4.86
4.85
4.81
4.76
4.68
4.56
4.39
4.19
4.02
3.95
4.01
4.18
4.38
4.43
4.22
3.70
2.92
2.04
1.23
0.57
0.02
-0.47
-1.03
-1.71
-2.54
-3.53
-4.66
-5.88
-7.08
-8.05
-8.54
-8.38
-7.57
-6.27
-4.76
-3.32
-2.07
-0.98
0.03
1.08
2.13
3.09
3.73
3.91
3.59
2.84
1.88
0.91
0.15
-0.24
-0.18
0.30
1.05
1.78
2.10
1.76
0.76
-0.54
-1.52
-1.56
-0.38
1.79
4.31
6.44
7.66
7.92
7.61
7.32
7.65
9.03
11.70
15.69
20.83
26.77
32.87
38.40
42.62
45.02
45.45
44.03
41.13
37.20
32.70
28.05
23.56
19.42
15.58
11.84
7.89
3.51
-1.37
-6.57
-11.76
-16.61
-20.92
-24.69
-27.95
-30.77
-33.10
-34.80
-35.72
-35.77
-35.03
-33.71
-32.08
-30.39
-28.88
-27.68
-26.81
-26.20
-25.62
-24.77
-23.36
-21.24
-18.49
-15.39
-12.27
-9.42
-6.95
-4.81
-2.91
-1.17
0.42
1.83
3.07
4.22
5.35
6.46
7.44
8.12
8.37
8.16
7.65
7.07
6.63
6.40
6.33
6.21
5.82
5.02
3.76
2.16
0.40
-1.35
-2.96
-4.40
-5.70
-6.90
-7.95
-8.71
-8.96
-8.49
-7.18
-5.00
-2.07
1.39
5.01
8.30
10.78
12.09
12.12
11.15
9.69
8.33
7.53
7.41
7.82
8.45
9.04
9.53
10.01
10.67
11.63
12.87
14.29
15.83
17.51
19.43
21.63
24.05
26.42
28.36
29.53
29.70
28.76
26.72
23.61
19.45
14.33
8.46
2.15
-4.29
-10.60
-16.63
-22.24
-27.26
-31.36
-34.15
-35.31
-34.71
-32.50
-29.06
-24.87
-20.48
-16.40
-13.06
-10.71
-9.33
-8.58
-7.88
-6.64
-4.44
-1.18
2.94
7.45
11.72
15.15
17.23
17.74
16.79
14.83
12.45
10.09
7.89
5.63
3.05
0.06
-3.00
-5.45
-6.62
-6.22
-4.48
-2.04
0.38
2.34
3.75
4.81
5.77
6.71
7.54
8.10
8.32
8.32
8.38
8.78
9.67
10.96
12.33
13.38
13.70
13.13
11.71
9.75
7.68
5.93
4.77
4.28
4.27
4.42
4.39
3.97
3.14
2.08
1.09
0.46
0.41
0.98
2.09
3.57
5.21
6.85
8.36
9.64
10.65
11.38
11.87
12.13
12.16
11.91
11.27
10.16
8.50
6.27
3.49
0.31
-3.02
-6.16
-8.76
-10.60
-11.65
-12.16
-12.55
-13.24
-14.47
-16.23
-18.25
-20.22
-21.91
-23.24
-24.34
-25.33
-26.36
-27.34
-28.02
-27.93
-26.62
-23.80
-19.54
-14.29
-8.72
-3.44
1.32
5.72
10.14
14.85
19.75
24.41
28.20
30.62
31.48
30.98
29.49
27.45
25.18
22.92
20.77
18.81
17.09
15.68
14.66
14.11
14.07
14.48
15.16
15.87
16.38
16.69
16.93
17.39
18.28
19.66
21.36
23.01
24.15
24.48
23.90
22.63
21.05
19.60
18.62
18.22
18.27
18.47
18.51
18.13
17.24
15.90
14.31
12.67
11.07
9.40
7.46
4.99
1.86
-1.90
-6.08
-10.46
-14.78
-18.92
-22.78
-26.32
-29.45
-32.08
-34.12
-35.46
-36.00
-35.62
-34.22
-31.71
-28.10
-23.51
-18.22
-12.60
-7.05
-1.92
2.59
6.53
10.14
13.72
17.21
20.01
20.92
18.54
11.81
0.53
-14.34
-30.91
-46.87
-60.12
-69.25
-73.67
-73.48
-69.32
-62.13
-53.04
-43.30
-34.08
-26.31
-20.51
-16.75
-14.74
-14.04
-14.16
-14.75
-15.68
-16.90
-18.39
-20.04
-21.66
-23.09
-24.04
-24.18
-23.20
-20.88
-17.25
-12.69
-7.87
-3.65
-0.81
0.40
0.33
-0.27
-0.69
-0.51
0.18
0.92
1.23
0.66
-0.77
-2.68
-4.58
-6.18
-7.30
-7.82
-7.53
-5.99
-2.90
1.93
8.43
16.16
24.40
32.59
40.38
47.50
55.10
62.28
66.71
66.05
59.65
47.80
32.43
15.84
-0.01
-13.99
-24.03
-29.25
-30.15
-28.04
-24.35
-20.04
-15.65
-11.58
-8.31
-6.51
-6.68
-9.58
-15.90
-25.91
-39.66
-57.27
-78.97
-104.50
-132.49
-154.56
-161.85
-149.36
-119.00
-78.21
-35.20
4.35
38.03
65.64
87.88
105.63
118.73
127.09
131.44
133.39
134.65
136.36
138.86
141.91
144.59
143.36
136.95
125.64
110.72
93.81
76.38
59.67
44.63
31.53
20.02
10.10
1.75
-4.89
-9.64
-12.36
-13.01
-11.73
-9.01
-5.70
-2.27
0.85
3.39
5.15
6.04
6.16
5.79
5.30
5.00
5.27
6.25
7.78
9.60
11.38
12.95
14.33
15.73
17.32
19.33
21.79
24.55
27.45
30.38
33.39
36.67
40.54
45.25
50.90
57.22
63.52
68.91
72.50
73.72
72.40
68.78
63.33
56.59
48.97
40.65
31.37
20.21
5.60
-14.22
-40.21
-71.56
-105.19
-136.33
-160.02
-172.90
-174.44
-166.88
-154.09
-139.95
-127.10
-116.70
-108.87
-103.40
-100.19
-99.13
-99.64
-100.33
-99.22
-94.26
-84.05
-68.40
-48.43
-26.23
-4.32
15.07
30.38
40.76
45.92
45.81
40.60
30.72
17.15
1.55
-13.71
-26.04
-33.22
-34.03
-28.58
-18.29
-5.52
7.04
17.00
22.69
23.39
19.34
11.62
1.78
-8.51
-17.85
-25.35
-30.77
-34.37
-36.70
-38.31
-39.60
-40.76
-41.88
-42.99
-44.12
-45.15
-45.81
-45.65
-44.22
-41.22
-36.81
-31.50
-26.13
-21.38
-17.58
-14.40
-11.00
-6.27
0.74
10.49
22.72
36.54
50.58
63.30
73.32
79.53
81.25
78.24
70.68
59.21
44.86
28.97
12.96
-1.86
-14.58
-24.83
-32.73
-38.79
-43.62
-47.69
-51.18
-53.95
-55.62
-55.72
-53.81
-49.56
-42.87
-33.87
-22.96
-10.85
1.46
12.84
22.20
28.73
32.10
32.53
30.69
27.47
23.74
20.11
16.90
14.13
11.71
9.44
7.21
4.92
2.49
-0.08
-2.77
-5.47
-7.99
-10.09
-11.56
-12.30
-12.36
-11.88
-11.03
-9.95
-8.64
-7.09
-5.29
-3.31
-1.28
0.59
2.15
3.28
3.93
4.09
3.77
3.04
2.06
1.08
0.34
0.01
0.07
0.36
0.67
0.91
1.14
1.53
2.26
3.40
4.89
6.59
8.32
9.97
11.43
12.66
13.56
14.10
14.26
14.11
13.76
13.28
12.69
11.93
10.89
9.52
7.83
5.92
3.89
1.84
-0.16
-2.06
-3.77
-5.21
-6.29
-6.99
-7.35
-7.48
-7.44
-7.19
-6.61
-5.59
-4.11
-2.36
-0.66
0.61
1.17
0.89
-0.20
-1.87
-3.79
-5.50
-6.55
-6.55
-5.33
-3.01
0.04
3.27
6.22
8.60
10.40
11.78
12.94
14.09
15.29
16.51
17.61
18.37
18.48
17.64
15.66
12.61
8.81
4.82
1.17
-1.76
-3.87
-5.36
-6.57
-7.86
-9.45
-11.34
-13.33
-15.02
-15.93
-15.70
-14.18
-11.56
-8.28
-4.86
-1.75
0.86
2.99
4.74
6.19
7.29
7.94
8.13
8.01
7.87
8.01
8.61
9.58
10.67
11.58
12.13
12.33
12.34
12.32
12.33
12.27
12.01
11.43
10.53
9.44
8.35
7.35
6.43
5.44
4.18
2.50
0.39
-1.98
-4.24
-5.97
-6.79
-6.49
-5.12
-3.00
-0.55
1.82
3.84
5.40
6.53
7.28
7.69
7.79
7.60
7.22
6.82
6.52
6.35
6.26
6.07
5.67
5.01
4.18
3.34
2.67
2.19
1.84
1.46
0.94
0.26
-0.50
-1.23
-1.87
-2.51
-3.27
-4.30
-5.61
-7.07
-8.43
-9.42
-9.82
-9.51
-8.48
-6.77
-4.49
-1.77
1.13
3.95
6.35
8.10
9.13
9.51
9.44
9.15
8.82
8.52
8.26
8.00
7.74
7.50
7.30
7.08
6.75
6.20
5.39
4.34
3.21
2.15
1.26
0.58
0.02
-0.55
-1.22
-2.03
-2.94
-3.87
-4.78
-5.68
-6.65
-7.73
-8.81
-9.69
-10.05
-9.62
-8.31
-6.25
-3.75
-1.17
1.20
3.23
4.92
6.38
7.67
8.82
9.78
10.49
10.88
10.98
10.82
10.46
9.92
9.26
8.51
7.75
7.08
6.55
6.20
5.94
5.65
5.17
4.41
3.31
1.91
0.30
-1.38
-3.02
-4.51
-5.80
-6.89
-7.84
-8.69
-9.48
-10.18
-10.74
-11.08
-11.06
-10.59
-9.57
-8.03
-6.04
-3.79
-1.46
0.76
2.76
4.46
5.86
6.96
7.78
8.35
8.71
8.89
8.90
8.76
8.47
8.03
7.50
6.96
6.49
6.17
5.98
5.87
5.74
5.51
5.16
4.73
4.24
3.69
3.05
2.26
1.32
0.27
-0.76
-1.68
-2.44
-3.10
-3.80
-4.70
-5.90
-7.36
-8.96
-10.46
-11.59
-12.10
-11.81
-10.68
-8.81
-6.44
-3.86
-1.37
0.85
2.71
4.24
5.51
6.59
7.51
8.26
8.79
9.01
8.90
8.50
7.93
7.32
6.76
6.25
5.68
4.97
4.07
3.11
2.23
1.59
1.18
0.87
0.48
-0.08
-0.76
-1.39
-1.84
-2.05
-2.11
-2.17
-2.34
-2.66
-3.12
-3.68
-4.39
-5.28
-6.33
-7.42
-8.30
-8.67
-8.26
-6.97
-4.91
-2.36
0.33
2.77
4.71
6.02
6.75
7.04
7.06
6.96
6.80
6.63
6.44
6.29
6.17
6.09
6.01
5.84
5.55
5.10
4.51
3.84
3.16
2.56
2.11
1.86
1.81
1.86
1.91
1.84
1.62
1.27
0.86
0.44
-0.00
-0.50
-1.09
-1.79
-2.56
-3.37
-4.24
-5.22
-6.33
-7.59
-8.96
-10.32
-11.45
-12.12
-12.08
-11.12
-9.22
-6.54
-3.39
-0.20
2.69
5.04
6.81
8.09
9.04
9.77
10.31
10.60
10.57
10.20
9.50
8.62
7.70
6.88
6.24
5.78
5.47
5.30
5.28
5.42
5.72
6.11
6.48
6.69
6.64
6.27
5.60
4.70
3.70
2.69
1.77
0.97
0.27
-0.39
-1.08
-1.88
-2.80
-3.83
-4.94
-6.06
-7.14
-8.09
-8.85
-9.38
-9.72
-9.99
-10.33
-10.81
-11.36
-11.76
-11.71
-10.97
-9.47
-7.32
-4.84
-2.34
-0.10
1.73
3.14
4.15
4.84
5.27
5.50
5.57
5.54
5.45
5.32
5.11
4.79
4.33
3.73
3.09
2.52
2.16
2.09
2.22
2.40
2.44
2.21
1.73
1.10
0.40
-0.32
-1.14
-2.16
-3.43
-4.85
-6.21
-7.26
-7.84
-7.95
-7.74
-7.40
-7.08
-6.84
-6.62
-6.40
-6.20
-6.12
-6.21
-6.42
-6.55
-6.29
-5.35
-3.59
-1.16
1.59
4.20
6.25
7.55
8.10
8.15
8.00
7.92
8.00
8.23
8.48
8.67
8.74
8.72
8.62
8.41
7.97
7.21
6.09
4.72
3.32
2.09
1.18
0.57
0.15
-0.25
-0.75
-1.40
-2.18
-3.03
-3.89
-4.71
-5.45
-6.07
-6.59
-7.05
-7.53
-8.11
-8.80
-9.58
-10.36
-11.01
-11.43
-11.50
-11.15
-10.30
-8.93
-7.04
-4.75
-2.23
0.33
2.72
4.80
6.50
7.80
8.70
9.28
9.58
9.70
9.72
9.66
9.54
9.34
9.02
8.57
8.00
7.37
6.74
6.23
5.88
5.70
5.61
5.49
5.27
4.86
4.28
3.54
2.67
1.67
0.56
-0.68
-2.01
-3.34
-4.55
-5.59
-6.42
-7.12
-7.81
-8.63
-9.64
-10.86
-12.21
-13.56
-14.73
-15.52
-15.74
-15.24
-13.98
-12.03
-9.63
-7.08
-4.69
-2.65
-1.03
0.26
1.35
2.36
3.35
4.29
5.14
5.89
6.51
7.04
7.47
7.79
7.98
8.01
7.88
7.61
7.24
6.83
6.39
5.93
5.47
4.96
4.39
3.75
3.04
2.29
1.54
0.84
0.22
-0.34
-0.90
-1.52
-2.24
-3.05
-3.89
-4.61
-5.13
-5.41
-5.52
-5.60
-5.85
-6.40
-7.31
-8.51
-9.83
-11.06
-11.96
-12.32
-11.99
-10.91
-9.11
-6.76
-4.09
-1.35
1.24
3.54
5.48
7.02
8.19
9.03
9.58
9.87
9.93
9.75
9.30
8.58
7.61
6.51
5.41
4.44
3.66
3.07
2.57
2.08
1.54
0.96
0.40
-0.06
-0.39
-0.57
-0.65
-0.71
-0.85
-1.14
-1.60
-2.19
-2.80
-3.28
-3.57
-3.68
-3.74
-3.88
-4.20
-4.70
-5.32
-6.02
-6.82
-7.74
-8.72
-9.60
-10.15
-10.12
-9.40
-8.05
-6.30
-4.41
-2.60
-0.96
0.47
1.72
2.78
3.63
4.28
4.75
5.13
5.50
5.91
6.37
6.81
7.18
7.42
7.49
7.37
7.04
6.56
6.02
5.55
5.26
5.16
5.16
5.04
4.61
3.74
2.48
1.01
-0.46
-1.78
-2.88
-3.80
-4.63
-5.40
-6.12
-6.78
-7.43
-8.09
-8.82
-9.61
-10.34
-10.79
-10.70
-9.90
-8.36
-6.23
-3.82
-1.46
0.58
2.22
3.49
4.55
5.53
6.52
7.49
8.35
8.97
9.28
9.23
8.90
8.39
7.83
7.33
6.95
6.68
6.50
6.38
6.28
6.18
6.04
5.77
5.32
4.67
3.87
3.01
2.20
1.44
0.70
-0.13
-1.09
-2.12
-3.08
-3.81
-4.28
-4.59
-4.93
-5.54
-6.47
-7.64
-8.83
-9.72
-10.08
-9.71
-8.53
-6.55
-3.86
-0.68
2.69
5.93
8.74
11.01
12.73
14.07
15.17
16.16
17.07
17.82
18.40
18.75
18.92
18.94
18.90
18.86
18.88
18.96
19.01
18.91
18.51
17.70
16.46
14.83
12.87
10.63
8.08
5.23
2.11
-1.17
-4.43
-7.45
-10.05
-12.11
-13.67
-14.81
-15.70
-16.52
-17.39
-18.40
-19.51
-20.66
-21.78
-22.84
-23.90
-25.09
-26.51
-28.22
-30.14
-32.06
-33.67
-34.56
-34.37
-32.78
-29.63
-24.91
-18.87
-11.92
-4.61
2.47
8.80
13.92
17.48
19.22
19.03
17.00
13.52
9.20
4.76
0.80
-2.36
-4.66
-6.20
-7.09
-7.35
-6.94
-5.86
-4.25
-2.30
-0.24
1.77
3.66
5.36
6.80
7.89
8.53
8.68
8.41
7.86
7.19
6.53
5.90
5.26
4.50
3.47
2.08
0.33
-1.74
-3.98
-6.26
-8.50
-10.65
-12.67
-14.56
-16.27
-17.77
-19.10
-20.30
-21.42
-22.45
-23.27
-23.70
-23.58
-22.84
-21.58
-20.04
-18.53
-17.36
-16.74
-16.72
-17.19
-17.91
-18.59
-18.89
-18.49
-17.14
-14.73
-11.33
-7.17
-2.63
1.89
6.07
9.70
12.73
15.22
17.28
19.00
20.48
21.76
22.86
23.80
24.49
24.87
24.83
24.35
23.46
22.29
21.01
19.79
18.77
18.00
17.48
17.14
16.86
16.48
15.86
14.95
13.75
12.38
10.98
9.66
8.48
7.43
6.43
5.46
4.51
3.63
2.88
2.31
1.99
1.95
2.27
3.00
4.17
5.69
7.42
9.17
10.75
12.02
12.97
13.62
14.06
14.31
14.36
14.20
13.79
13.16
12.39
11.56
10.73
9.89
8.99
7.96
6.75
5.40
4.02
2.74
1.70
0.89
0.23
-0.46
-1.37
-2.63
-4.25
-6.11
-8.02
-9.77
-11.18
-12.18
-12.78
-13.09
-13.23
-13.26
-13.20
-13.00
-12.60
-12.05
-11.48
-11.10
-11.07
-11.42
-11.99
-12.47
-12.56
-12.06
-10.93
-9.31
-7.32
-5.07
-2.59
0.12
3.05
6.09
9.09
11.90
14.39
16.49
18.15
19.34
20.01
20.16
19.88
19.26
18.44
17.50
16.47
15.35
14.18
13.07
12.12
11.40
10.90
10.50
10.04
9.46
8.74
7.97
7.21
6.50
5.86
5.31
4.91
4.72
4.75
4.90
4.95
4.66
3.86
2.52
0.69
-1.51
-4.00
-6.71
-9.53
-12.34
-14.90
-16.99
-18.40
-19.08
-19.08
-18.58
-17.80
-16.91
-16.00
-15.00
-13.73
-12.06
-9.89
-7.34
-4.63
-2.07
0.13
1.85
3.13
4.04
4.63
4.93
4.98
4.83
4.57
4.31
4.08
3.83
3.44
2.78
1.77
0.44
-1.11
-2.76
-4.36
-5.77
-6.86
-7.54
-7.81
-7.77
-7.58
-7.41
-7.34
-7.37
-7.41
-7.38
-7.25
-7.09
-7.01
-7.08
-7.30
-7.59
-7.84
-7.93
-7.83
-7.54
-7.12
-6.63
-6.15
-5.69
-5.28
-4.91
-4.59
-4.32
-4.12
-3.97
-3.83
-3.60
-3.23
-2.74
-2.29
-2.08
-2.35
-3.23
-4.74
-6.75
-9.14
-11.88
-15.01
-18.62
-22.73
-27.19
-31.70
-35.94
-39.68
-42.84
-45.51
-47.79
-49.70
-51.20
-52.23
-52.84
-53.26
-53.81
-54.82
-56.35
-58.25
-60.10
-61.44
-61.94
-61.50
-60.24
-58.39
-56.11
-53.31
-49.60
-44.29
-36.51
-25.28
-9.73
10.68
35.89
64.96
96.04
126.56
153.70
175.05
189.02
195.09
193.71
185.95
173.18
156.79
138.10
118.32
98.45
79.27
61.30
44.74
29.63
15.90
3.53
-7.44
-16.82
-24.41
-30.08
-33.92
-36.25
-37.57
-38.29
-38.62
-38.41
-37.26
-34.74
-30.61
-24.95
-18.13
-10.71
-3.25
3.80
10.13
15.58
20.07
23.56
26.02
27.40
27.62
26.57
24.14
20.21
14.64
7.29
-1.94
-12.99
-25.54
-38.99
-52.52
-65.17
-76.08
-84.67
-90.62
-93.96
-94.87
-93.62
-90.50
-85.82
-79.96
-73.29
-66.13
-58.66
-50.85
-42.57
-33.67
-24.21
-14.52
-5.15
3.35
10.65
16.75
22.00
26.94
32.06
37.68
43.86
50.46
57.28
64.11
70.81
77.22
83.10
87.99
91.29
92.39
90.85
86.63
80.07
71.80
62.54
52.88
43.20
33.64
24.24
15.04
6.12
-2.39
-10.34
-17.62
-24.14
-29.87
-34.76
-38.71
-41.63
-43.40
-43.88
-42.93
-40.49
-36.60
-31.50
-25.59
-19.43
-13.57
-8.46
-4.32
-1.21
0.96
2.33
3.04
3.22
3.02
2.57
2.03
1.47
0.91
0.36
-0.19
-0.74
-1.24
-1.62
-1.84
-1.84
-1.61
-1.17
-0.56
0.16
0.93
1.69
2.40
3.03
3.49
3.68
3.51
2.95
2.12
1.23
0.49
0.01
-0.25
-0.51
-0.99
-1.87
-3.08
-4.38
-5.41
-5.85
-5.52
-4.49
-2.96
-1.23
0.45
1.88
3.01
3.84
4.41
4.79
5.00
5.09
5.08
5.01
4.84
4.53
3.99
3.13
1.89
0.29
-1.49
-3.27
-4.82
-6.10
-7.18
-8.31
-9.69
-11.39
-13.30
-15.12
-16.55
-17.41
-17.71
-17.60
-17.36
-17.22
-17.34
-17.73
-18.23
-18.53
-18.22
-16.90
-14.34
-10.53
-5.75
-0.47
4.78
9.56
13.62
16.93
19.60
21.86
23.94
26.02
28.17
30.30
32.23
33.66
34.32
33.97
32.48
29.87
26.30
22.06
17.58
13.31
9.59
6.65
4.49
2.98
1.87
0.84
-0.41
-2.11
-4.44
-7.37
-10.68
-13.99
-16.83
-18.81
-19.76
-19.70
-18.86
-17.46
-15.70
-13.71
-11.63
-9.64
-7.95
-6.75
-6.15
-6.13
-6.58
-7.33
-8.28
-9.36
-10.58
-11.95
-13.46
-14.98
-16.31
-17.21
-17.48
-17.02
-15.83
-13.96
-11.49
-8.52
-5.16
-1.62
1.84
4.85
7.10
8.38
8.61
7.94
6.58
4.82
2.96
1.23
-0.20
-1.22
-1.85
-2.19
-2.41
-2.64
-2.92
-3.16
-3.20
-2.87
-2.11
-1.02
0.14
1.11
1.64
1.68
1.26
0.53
-0.32
-1.14
-1.84
-2.41
-2.90
-3.44
-4.17
-5.14
-6.34
-7.56
-8.50
-8.79
-8.23
-6.76
-4.58
-2.07
0.32
2.24
3.52
4.20
4.45
4.46
4.34
4.06
3.61
2.98
2.25
1.62
1.22
1.13
1.27
1.45
1.49
1.33
1.04
0.81
0.78
0.97
1.26
1.41
1.20
0.48
-0.73
-2.29
-3.99
-5.59
-6.92
-7.90
-8.59
-9.12
-9.70
-10.50
-11.62
-12.99
-14.41
-15.65
-16.46
-16.75
-16.54
-16.03
-15.50
-15.23
-15.40
-16.05
-17.07
-18.21
-19.28
-20.15
-20.86
-21.58
-22.55
-24.01
-26.01
-28.35
-30.44
-31.47
-30.58
-27.12
-20.88
-12.13
-1.53
10.13
22.02
33.46
43.81
52.51
59.04
62.98
64.16
62.66
58.87
53.36
46.79
39.82
32.99
26.72
21.21
16.52
12.67
9.70
7.70
6.79
6.99
8.16
9.96
11.98
13.86
15.38
16.49
17.19
17.47
17.29
16.53
15.10
12.98
10.20
6.81
2.85
-1.59
-6.37
-11.23
-15.81
-19.69
-22.50
-23.99
-24.12
-23.09
-21.26
-19.04
-16.83
-14.88
-13.31
-12.15
-11.40
-11.06
-11.11
-11.47
-11.97
-12.38
-12.43
-11.91
-10.65
-8.57
-5.67
-2.04
2.13
6.67
11.47
16.48
21.72
27.11
32.41
37.10
40.56
42.19
41.65
38.95
34.46
28.74
22.40
16.04
10.11
5.01
1.01
-1.79
-3.50
-4.47
-5.25
-6.42
-8.42
-11.39
-15.11
-19.10
-22.78
-25.71
-27.61
-28.39
-28.12
-26.93
-25.08
-22.95
-21.04
-19.89
-19.91
-21.28
-23.85
-27.16
-30.61
-33.59
-35.65
-36.65
-36.77
-36.40
-35.92
-35.53
-35.08
-34.14
-32.18
-28.79
-23.84
-17.50
-10.12
-2.12
6.10
14.17
21.75
28.45
33.86
37.67
39.73
40.10
39.04
36.90
34.07
30.86
27.48
24.12
20.93
18.14
15.95
14.54
14.00
14.22
14.97
15.87
16.44
16.16
14.57
11.40
6.68
0.73
-5.86
-12.44
-18.43
-23.48
-27.50
-30.54
-32.69
-33.93
-34.13
-33.12
-30.79
-27.25
-22.81
-17.92
-13.04
-8.45
-4.20
-0.14
3.95
8.24
12.79
17.53
22.29
26.77
30.60
33.35
34.61
34.16
32.15
29.02
25.46
22.15
19.54
17.76
16.70
16.15
15.90
15.78
15.63
15.28
14.51
13.17
11.27
9.01
6.71
4.74
3.37
2.69
2.58
2.78
2.90
2.56
1.46
-0.47
-3.06
-5.89
-8.39
-10.05
-10.52
-9.77
-8.04
-5.71
-3.20
-0.87
1.00
2.27
2.88
2.91
2.48
1.77
0.88
-0.09
-1.12
-2.10
-2.77
-2.75
-1.63
0.84
4.65
9.34
14.21
18.40
21.20
22.18
21.31
18.89
15.41
11.37
7.16
3.02
-0.90
-4.52
-7.74
-10.48
-12.72
-14.49
-15.90
-17.03
-17.97
-18.80
-19.61
-20.45
-21.36
-22.25
-22.92
-23.20
-22.97
-22.27
-21.25
-20.15
-19.12
-18.22
-17.41
-16.67
-16.03
-15.57
-15.41
-15.59
-16.03
-16.47
-16.57
-15.97
-14.44
-11.95
-8.67
-4.95
-1.20
2.25
5.20
7.63
9.71
11.76
14.20
17.49
21.98
27.80
34.73
42.11
48.91
53.89
55.95
54.31
48.68
39.24
26.48
11.17
-5.78
-23.22
-39.80
-54.10
-64.89
-71.37
-73.43
-71.64
-67.14
-61.35
-55.62
-50.94
-47.76
-45.98
-45.04
-44.15
-42.57
-39.85
-35.86
-30.68
-24.49
-17.41
-9.53
-0.99
7.91
16.68
24.76
31.61
36.82
40.19
41.71
41.59
40.17
37.86
35.06
32.09
29.16
26.40
23.85
21.53
19.42
17.43
15.41
13.22
10.75
8.00
5.07
2.14
-0.59
-2.88
-4.54
-5.42
-5.38
-4.44
-2.68
-0.32
2.36
5.07
7.59
9.74
11.43
12.64
13.38
13.79
14.03
14.27
14.63
15.09
15.45
15.40
14.70
13.23
11.14
8.78
6.51
4.63
3.23
2.33
1.95
2.19
3.14
4.70
6.51
7.95
8.40
7.51
5.38
2.55
-0.27
-2.48
-3.81
-4.35
-4.42
-4.41
-4.63
-5.28
-6.45
-8.13
-10.24
-12.63
-15.12
-17.48
-19.51
-21.06
-22.00
-22.33
-22.05
-21.28
-20.12
-18.66
-16.93
-14.94
-12.67
-10.18
-7.65
-5.33
-3.51
-2.30
-1.65
-1.33
-1.02
-0.47
0.42
1.58
2.80
3.86
4.60
4.96
4.98
4.79
4.54
4.44
4.59
5.00
5.48
5.69
5.22
3.78
1.29
-2.08
-5.95
-9.86
-13.40
-16.26
-18.30
-19.48
-19.89
-19.70
-19.18
-18.60
-18.18
-17.97
-17.79
-17.36
-16.37
-14.67
-12.27
-9.32
-5.98
-2.36
1.51
5.66
10.07
14.74
19.62
24.70
29.90
35.07
39.91
44.02
47.03
48.74
49.13
48.37
46.71
44.39
41.61
38.53
35.25
31.88
28.44
24.91
21.30
17.63
14.05
10.74
7.93
5.74
4.17
3.13
2.49
2.11
1.89
1.74
1.55
1.18
0.50
-0.59
-2.11
-3.93
-5.82
-7.51
-8.75
-9.48
-9.83
-10.05
-10.43
-11.11
-12.03
-12.99
-13.75
-14.15
-14.22
-14.08
-13.85
-13.57
-13.16
-12.50
-11.50
-10.14
-8.51
-6.78
-5.13
-3.75
-2.83
-2.52
-2.90
-3.92
-5.37
-6.91
-8.17
-8.94
-9.24
-9.35
-9.71
-10.71
-12.53
-15.05
-17.91
-20.63
-22.82
-24.28
-24.93
-24.77
-23.82
-22.12
-19.72
-16.75
-13.43
-9.98
-6.67
-3.71
-1.24
0.70
2.18
3.36
4.44
5.55
6.68
7.68
8.30
8.29
7.57
6.22
4.52
2.79
1.31
0.22
-0.53
-1.06
-1.45
-1.72
-1.80
-1.63
-1.24
-0.80
-0.54
-0.65
-1.12
-1.75
-2.21
-2.20
-1.58
-0.44
0.99
2.43
3.75
4.94
6.10
7.36
8.76
10.24
11.64
12.86
13.89
14.84
15.92
17.23
18.73
20.19
21.22
21.50
20.86
19.39
17.36
15.16
13.07
11.28
9.78
8.45
7.04
5.31
2.96
-0.27
-4.45
-9.39
-14.54
-19.10
-22.25
-23.44
-22.54
-19.87
-16.07
-11.81
-7.61
-3.76
-0.32
2.68
5.25
7.31
8.75
9.51
9.59
9.05
8.01
6.57
4.79
2.74
0.52
-1.67
-3.60
-5.08
-6.03
-6.48
-6.55
-6.36
-5.91
-5.20
-4.18
-2.91
-1.54
-0.28
0.67
1.17
1.16
0.60
-0.52
-2.11
-3.92
-5.55
-6.53
-6.55
-5.58
-3.90
-1.97
-0.23
1.03
1.76
2.04
2.03
1.86
1.68
1.63
1.85
2.45
3.39
4.49
5.51
6.23
6.53
6.43
6.05
5.53
4.94
4.33
3.64
2.78
1.67
0.22
-1.57
-3.65
-5.86
-8.00
-9.82
-11.11
-11.70
-11.51
-10.56
-8.99
-7.10
-5.24
-3.79
-3.02
-3.00
-3.54
-4.28
-4.80
-4.79
-4.14
-2.97
-1.52
-0.00
1.42
2.67
3.67
4.35
4.67
4.66
4.48
4.30
4.30
4.54
4.97
5.47
5.97
6.46
7.00
7.65
8.42
9.23
10.00
10.59
10.92
10.90
10.47
9.65
8.49
7.18
5.88
4.71
3.75
2.97
2.33
1.73
1.02
0.06
-1.35
-3.30
-5.71
-8.33
-10.77
-12.65
-13.79
-14.19
-13.98
-13.37
-12.46
-11.29
-9.91
-8.43
-7.02
-5.87
-5.07
-4.60
-4.36
-4.28
-4.34
-4.62
-5.22
-6.25
-7.70
-9.47
-11.28
-12.78
-13.58
-13.41
-12.20
-10.16
-7.68
-5.25
-3.28
-1.95
-1.23
-0.90
-0.68
-0.34
0.19
0.86
1.43
1.59
0.99
-0.62
-3.27
-6.75
-10.64
-14.30
-17.03
-18.21
-17.40
-14.38
-9.15
-1.84
7.50
18.99
32.69
48.31
64.82
80.37
92.71
99.93
101.16
96.91
88.69
78.24
66.76
54.64
41.75
28.16
14.61
2.51
-6.61
-11.85
-13.47
-12.81
-11.67
-11.58
-13.29
-16.66
-21.01
-25.71
-30.51
-35.55
-41.05
-46.88
-52.39
-56.63
-58.70
-58.27
-55.70
-51.88
-47.85
-44.38
-41.83
-40.16
-39.18
-38.65
-38.30
-37.78
-36.56
-34.03
-29.67
-23.28
-15.13
-5.92
3.39
11.84
18.73
23.67
26.64
27.82
27.57
26.33
24.50
22.46
20.49
18.73
17.27
16.22
15.76
16.11
17.46
19.84
23.09
26.94
31.13
35.56
40.28
45.35
50.73
56.04
60.57
63.34
63.31
59.63
51.97
40.59
26.42
10.95
-4.02
-16.81
-26.16
-31.52
-33.18
-32.04
-29.39
-26.45
-24.15
-23.01
-23.13
-24.34
-26.26
-28.39
-30.18
-31.13
-30.94
-29.63
-27.57
-25.32
-23.42
-22.17
-21.54
-21.23
-20.83
-20.03
-18.74
-17.08
-15.36
-13.89
-12.88
-12.40
-12.30
-12.38
-12.45
-12.45
-12.40
-12.40
-12.50
-12.64
-12.73
-12.64
-12.33
-11.80
-11.06
-10.07
-8.72
-6.92
-4.67
-2.10
0.53
2.92
4.91
6.47
7.74
8.90
10.09
11.33
12.51
13.46
14.01
14.08
13.65
12.77
11.54
10.12
8.67
7.39
6.41
5.77
5.35
4.90
4.14
2.86
1.02
-1.24
-3.65
-5.90
-7.77
-9.12
-9.93
-10.31
-10.38
-10.30
-10.18
-10.11
-10.10
-10.11
-10.06
-9.81
-9.11
-7.71
-5.45
-2.33
1.44
5.46
9.31
12.70
15.59
18.16
20.64
23.14
25.50
27.38
28.39
28.23
26.89
24.56
21.59
18.31
14.96
11.64
8.38
5.24
2.29
-0.34
-2.56
-4.33
-5.72
-6.78
-7.56
-8.09
-8.35
-8.32
-8.05
-7.60
-7.06
-6.47
-5.87
-5.29
-4.80
-4.50
-4.45
-4.63
-4.88
-4.99
-4.79
-4.32
-3.78
-3.44
-3.56
-4.20
-5.23
-6.42
-7.51
-8.32
-8.76
-8.80
-8.47
-7.82
-6.94
-5.90
-4.79
-3.63
-2.36
-0.89
0.85
2.88
5.12
7.41
9.59
11.57
13.29
14.78
16.05
17.07
17.75
17.98
17.68
16.87
15.67
14.21
12.58
10.74
8.56
5.91
2.79
-0.63
-4.06
-7.17
-9.69
-11.46
-12.46
-12.66
-12.11
-10.87
-9.04
-6.79
-4.32
-1.80
0.60
2.80
4.73
6.32
7.53
8.36
8.85
9.14
9.37
9.60
9.81
9.88
9.69
9.15
8.30
7.24
6.06
4.82
3.47
1.93
0.17
-1.81
-3.92
-6.05
-8.05
-9.77
-11.04
-11.64
-11.47
-10.53
-9.01
-7.24
-5.62
-4.46
-3.91
-3.89
-4.12
-4.26
-3.95
-2.98
-1.29
0.99
3.62
6.30
8.80
10.90
12.50
13.50
13.85
13.55
12.61
11.09
9.06
6.56
3.64
0.37
-3.10
-6.59
-9.86
-12.70
-14.96
-16.60
-17.64
-18.09
-17.90
-16.96
-15.20
-12.63
-9.44
-5.95
-2.59
0.31
2.52
3.96
4.61
4.50
3.68
2.27
0.50
-1.29
-2.79
-3.77
-4.29
-4.50
-4.66
-4.87
-5.07
-5.11
-4.84
-4.25
-3.43
-2.54
-1.58
-0.46
1.03
3.00
5.41
8.05
10.53
12.53
13.81
14.32
14.18
13.64
13.00
12.52
12.32
12.36
12.45
12.29
11.59
10.15
7.86
4.76
0.93
-3.52
-8.42
-13.60
-18.79
-23.70
-27.95
-31.17
-33.02
-33.32
-32.04
-29.42
-25.84
-21.74
-17.48
-13.26
-9.13
-4.99
-0.79
3.43
7.53
11.28
14.41
16.72
18.15
18.76
18.79
18.51
18.19
17.95
17.77
17.50
16.96
16.02
14.59
12.64
10.12
7.01
3.35
-0.66
-4.76
-8.60
-11.91
-14.56
-16.57
-18.03
-19.03
-19.61
-19.77
-19.50
-18.86
-17.85
-16.51
-14.79
-12.68
-10.19
-7.49
-4.83
-2.51
-0.79
0.23
0.55
0.24
-0.59
-1.87
-3.56
-5.64
-8.10
-10.92
-14.03
-17.34
-20.69
-23.91
-26.87
-29.49
-31.90
-34.31
-37.08
-40.47
-44.58
-49.23
-54.02
-58.43
-62.03
-64.53
-65.89
-66.17
-65.42
-63.66
-60.84
-56.93
-51.93
-45.90
-38.89
-30.86
-21.75
-11.50
-0.24
11.73
23.98
36.12
47.91
59.30
70.31
80.86
90.71
99.51
106.90
112.72
117.06
120.19
122.48
124.14
125.22
125.61
125.13
123.72
121.49
118.72
115.77
112.90
110.17
107.40
104.26
100.38
95.51
89.60
82.80
75.35
67.46
59.12
49.98
39.35
26.30
10.02
-9.91
-33.15
-58.58
-84.38
-108.45
-128.73
-143.61
-152.11
-153.92
-149.38
-139.38
-125.22
-108.44
-90.68
-73.48
-58.11
-45.48
-36.04
-29.79
-26.28
-24.83
-24.62
-24.95
-25.28
-25.28
-24.82
-23.82
-22.25
-20.09
-17.33
-14.09
-10.63
-7.30
-4.47
-2.43
-1.24
-0.79
-0.80
-0.93
-0.89
-0.52
0.20
1.20
2.30
3.38
4.34
5.12
5.76
6.35
7.02
7.93
9.16
10.68
12.33
13.95
15.34
16.46
17.32
17.98
18.50
18.83
18.86
18.52
17.76
16.65
15.32
13.90
12.48
11.07
9.67
8.28
6.96
5.85
5.13
4.91
5.23
5.94
6.79
7.50
7.80
7.57
6.79
5.55
3.96
2.12
0.07
-2.12
-4.39
-6.65
-8.78
-10.66
-12.15
-13.09
-13.37
-12.88
-11.59
-9.54
-6.92
-4.01
-1.17
1.24
2.99
4.00
4.35
4.23
3.93
3.66
3.61
3.92
4.66
5.91
7.68
9.90
12.44
15.07
17.58
19.73
21.37
22.36
22.59
21.94
20.29
17.60
13.86
9.17
3.74
-2.12
-8.14
-14.08
-19.81
-25.24
-30.27
-34.67
-38.10
-40.13
-40.46
-39.04
-36.16
-32.35
-28.28
-24.44
-21.12
-18.38
-16.11
-14.23
-12.67
-11.44
-10.53
-9.90
-9.42
-8.95
-8.40
-7.73
-7.01
-6.32
-5.70
-5.08
-4.32
-3.26
-1.80
0.00
1.95
3.78
5.19
6.04
6.36
6.30
6.11
6.02
6.06
6.14
6.05
5.60
4.69
3.36
1.70
-0.14
-2.01
-3.73
-5.09
-5.86
-5.91
-5.20
-3.94
-2.40
-0.87
0.50
1.72
2.90
4.16
5.57
7.13
8.76
10.38
11.86
13.07
13.81
13.88
13.13
11.51
9.15
6.28
3.26
0.43
-1.93
-3.66
-4.78
-5.41
-5.77
-6.03
-6.34
-6.71
-7.13
-7.58
-8.08
-8.65
-9.32
-10.11
-10.96
-11.85
-12.73
-13.57
-14.29
-14.73
-14.69
-14.01
-12.60
-10.56
-8.12
-5.59
-3.24
-1.29
0.19
1.23
1.95
2.53
3.13
3.86
4.71
5.62
6.48
7.24
7.85
8.30
8.53
8.54
8.36
8.10
7.98
8.16
8.76
9.69
10.73
11.60
12.13
12.25
12.08
11.81
11.58
11.48
11.49
11.54
11.50
11.24
10.66
9.72
8.47
7.08
5.83
5.03
4.95
5.72
7.30
9.42
11.73
13.86
15.58
16.76
17.44
17.66
17.46
16.85
15.85
14.55
13.12
11.78
10.73
10.09
9.81
9.73
9.68
9.55
9.27
8.83
8.20
7.29
6.02
4.36
2.41
0.36
-1.53
-3.12
-4.39
-5.49
-6.68
-8.15
-10.00
-12.18
-14.51
-16.74
-18.62
-19.91
-20.45
-20.15
-19.02
-17.14
-14.72
-12.04
-9.43
-7.17
-5.41
-4.18
-3.34
-2.65
-1.89
-0.91
0.33
1.73
3.17
4.51
5.61
6.39
6.77
6.75
6.39
5.79
5.05
4.21
3.24
2.12
0.81
-0.65
-2.19
-3.72
-5.21
-6.65
-8.06
-9.42
-10.69
-11.76
-12.56
-13.01
-13.05
-12.65
-11.79
-10.52
-8.90
-7.03
-5.03
-3.00
-1.08
0.64
2.09
3.22
4.07
4.72
5.28
5.79
6.20
6.39
6.25
5.73
4.88
3.85
2.79
1.75
0.70
-0.51
-2.01
-3.92
-6.20
-8.69
-11.13
-13.25
-14.85
-15.85
-16.30
-16.30
-15.96
-15.34
-14.44
-13.29
-11.96
-10.63
-9.49
-8.64
-8.05
-7.49
-6.64
-5.21
-3.01
-0.04
3.46
7.19
10.79
13.95
16.53
18.48
19.83
20.64
20.89
20.51
19.41
17.58
15.14
12.26
9.18
6.04
2.92
-0.17
-3.22
-6.14
-8.81
-11.10
-12.93
-14.27
-15.10
-15.37
-14.98
-13.88
-12.08
-9.70
-7.00
-4.22
-1.54
0.95
3.21
5.21
6.88
8.10
8.78
8.86
8.40
7.54
6.49
5.49
4.72
4.32
4.28
4.51
4.87
5.28
5.72
6.28
7.07
8.11
9.35
10.57
11.53
12.04
12.03
11.56
10.78
9.84
8.88
7.96
7.09
6.30
5.59
4.99
4.46
3.96
3.34
2.46
1.19
-0.55
-2.72
-5.19
-7.74
-10.14
-12.13
-13.56
-14.32
-14.44
-14.03
-13.22
-12.16
-10.94
-9.63
-8.31
-7.07
-6.03
-5.23
-4.58
-3.90
-2.99
-1.74
-0.18
1.50
3.07
4.34
5.25
5.85
6.24
6.50
6.68
6.78
6.81
6.83
6.88
6.96
7.05
7.07
6.95
6.69
6.33
5.92
5.49
5.01
4.41
3.68
2.87
2.13
1.59
1.32
1.25
1.25
1.20
1.08
0.92
0.79
0.66
0.42
-0.08
-0.87
-1.86
-2.86
-3.65
-4.13
-4.33
-4.39
-4.42
-4.52
-4.67
-4.88
-5.12
-5.40
-5.71
-6.06
-6.38
-6.57
-6.50
-6.01
-4.94
-3.20
-0.83
1.99
4.95
7.66
9.81
11.16
11.64
11.26
10.05
7.99
5.12
1.53
-2.54
-6.69
-10.47
-13.46
-15.43
-16.36
-16.38
-15.73
-14.68
-13.44
-12.22
-11.21
-10.52
-10.20
-10.11
-9.97
-9.47
-8.34
-6.43
-3.82
-0.71
2.59
5.79
8.63
10.90
12.45
13.18
13.10
12.29
10.89
9.09
7.04
4.85
2.59
0.34
-1.84
-3.77
-5.32
-6.33
-6.72
-6.50
-5.74
-4.52
-2.93
-1.03
1.08
3.23
5.20
6.73
7.62
7.81
7.39
6.55
5.50
4.42
3.39
2.48
1.67
0.92
0.16
-0.69
-1.74
-3.02
-4.44
-5.86
-7.04
-7.83
-8.19
-8.17
-7.93
-7.58
-7.17
-6.65
-5.90
-4.82
-3.38
-1.65
0.21
2.02
3.61
4.88
5.83
6.49
6.96
7.31
7.63
7.95
8.27
8.58
8.81
8.87
8.62
7.94
6.77
5.15
3.28
1.41
-0.15
-1.18
-1.61
-1.55
-1.24
-0.94
-0.87
-1.10
-1.57
-2.14
-2.64
-2.99
-3.11
-3.00
-2.65
-2.05
-1.23
-0.23
0.82
1.81
2.67
3.40
4.06
4.71
5.36
5.94
6.37
6.54
6.43
6.08
5.59
5.07
4.55
4.05
3.54
3.01
2.52
2.13
1.90
1.82
1.83
1.80
1.63
1.24
0.68
0.02
-0.63
-1.24
-1.84
-2.50
-3.29
-4.20
-5.18
-6.18
-7.14
-8.11
-9.11
-10.13
-11.09
-11.81
-12.09
-11.74
-10.71
-9.05
-6.99
-4.83
-2.83
-1.14
0.23
1.41
2.53
3.67
4.78
5.72
6.34
6.63
6.69
6.71
6.81
7.03
7.28
7.45
7.47
7.33
7.09
6.81
6.56
6.33
6.14
5.98
5.84
5.68
5.40
4.88
4.01
2.72
1.04
-0.99
-3.30
-5.82
-8.52
-11.39
-14.38
-17.43
-20.38
-22.96
-24.81
-25.50
-24.70
-22.32
-18.56
-13.95
-9.22
-5.06
-1.98
-0.22
0.27
-0.26
-1.42
-2.80
-4.05
-4.94
-5.41
-5.52
-5.37
-5.05
-4.51
-3.65
-2.42
-0.88
0.82
2.50
4.05
5.54
7.12
8.91
10.88
12.84
14.47
15.49
15.74
15.20
14.02
12.39
10.51
8.56
6.68
4.92
3.29
1.74
0.23
-1.25
-2.59
-3.64
-4.25
-4.33
-3.93
-3.18
-2.26
-1.33
-0.49
0.15
0.52
0.58
0.37
0.08
0.04
0.58
1.86
3.79
5.98
7.88
9.00
9.05
8.05
6.24
3.97
1.60
-0.60
-2.42
-3.67
-4.24
-4.12
-3.48
-2.68
-2.15
-2.21
-2.99
-4.34
-5.89
-7.20
-8.00
-8.20
-7.98
-7.63
-7.44
-7.56
-8.00
-8.63
-9.27
-9.74
-9.91
-9.68
-8.94
-7.60
-5.59
-2.98
0.02
3.09
5.89
8.11
9.65
10.52
10.92
11.05
11.16
11.36
11.72
12.15
12.53
12.72
12.70
12.53
12.39
12.42
12.66
12.94
12.93
12.31
10.92
8.87
6.47
4.09
2.03
0.41
-0.85
-1.91
-2.92
-3.92
-4.86
-5.69
-6.35
-6.80
-6.95
-6.67
-5.85
-4.46
-2.64
-0.70
0.98
2.11
2.58
2.53
2.27
2.11
2.23
2.67
3.29
3.95
4.50
4.87
5.00
4.87
4.46
3.81
2.99
2.12
1.31
0.57
-0.17
-1.06
-2.25
-3.78
-5.52
-7.24
-8.70
-9.72
-10.28
-10.44
-10.33
-10.07
-9.72
-9.28
-8.77
-8.21
-7.66
-7.26
-7.15
-7.42
-8.10
-9.07
-10.13
-11.06
-11.70
-11.99
-11.97
-11.71
-11.25
-10.60
-9.80
-8.94
-8.14
-7.48
-6.96
-6.48
-5.89
-5.08
-3.97
-2.59
-0.99
0.80
2.72
4.70
6.62
8.30
9.57
10.36
10.70
10.73
10.62
10.47
10.30
10.02
9.49
8.57
7.21
5.47
3.55
1.65
-0.03
-1.40
-2.44
-3.24
-3.91
-4.53
-5.15
-5.72
-6.16
-6.34
-6.18
-5.65
-4.75
-3.53
-2.06
-0.40
1.38
3.19
4.92
6.45
7.72
8.70
9.41
9.91
10.31
10.65
10.99
11.31
11.59
11.74
11.68
11.38
10.81
10.01
9.02
7.90
6.69
5.43
4.09
2.68
1.19
-0.36
-1.89
-3.33
-4.63
-5.75
-6.71
-7.51
-8.15
-8.58
-8.80
-8.83
-8.78
-8.77
-8.89
-9.06
-9.08
-8.68
-7.64
-5.97
-3.83
-1.52
0.69
2.69
4.48
6.15
7.77
9.28
10.56
11.44
11.81
11.65
11.07
10.22
9.26
8.31
7.47
6.77
6.18
5.66
5.13
4.57
3.98
3.41
2.93
2.56
2.25
1.89
1.36
0.62
-0.30
-1.29
-2.26
-3.18
-4.14
-5.21
-6.44
-7.75
-8.96
-9.93
-10.56
-10.94
-11.16
-11.35
-11.49
-11.47
-11.14
-10.35
-9.09
-7.45
-5.62
-3.75
-1.97
-0.32
1.20
2.58
3.76
4.65
5.14
5.24
5.02
4.61
4.16
3.74
3.35
2.95
2.49
2.00
1.53
1.12
0.80
0.51
0.21
-0.10
-0.37
-0.49
-0.39
-0.02
0.60
1.36
2.18
2.93
3.57
4.03
4.30
4.35
4.14
3.63
2.83
1.79
0.65
-0.37
-1.09
-1.38
-1.28
-0.88
-0.31
0.33
1.02
1.78
2.66
3.67
4.75
5.84
6.89
7.80
8.55
9.06
9.31
9.27
9.01
8.63
8.28
8.05
7.93
7.78
7.39
6.56
5.20
3.33
1.11
-1.30
-3.78
-6.26
-8.74
-11.21
-13.57
-15.68
-17.33
-18.33
-18.60
-18.23
-17.50
-16.83
-16.65
-17.22
-18.49
-20.13
-21.56
-22.21
-21.64
-19.75
-16.69
-12.88
-8.77
-4.81
-1.30
1.65
4.07
6.17
8.15
10.17
12.30
14.48
16.66
18.77
20.83
22.82
24.64
26.11
26.96
26.96
26.06
24.36
22.11
19.57
16.94
14.33
11.73
9.03
6.08
2.66
-1.39
-6.07
-11.19
-16.31
-20.89
-24.47
-26.79
-27.90
-28.03
-27.44
-26.34
-24.81
-22.83
-20.43
-17.74
-14.97
-12.42
-10.36
-8.96
-8.23
-8.03
-8.16
-8.37
-8.48
-8.36
-7.97
-7.27
-6.23
-4.84
-3.15
-1.26
0.68
2.55
4.28
5.92
7.55
9.23
10.97
12.67
14.19
15.40
16.22
16.67
16.81
16.71
16.37
15.78
14.88
13.59
11.87
9.72
7.20
4.47
1.77
-0.65
-2.52
-3.70
-4.16
-4.02
-3.53
-2.97
-2.58
-2.43
-2.39
-2.24
-1.74
-0.77
0.63
2.25
3.87
5.31
6.54
7.60
8.56
9.42
10.12
10.55
10.56
10.11
9.13
7.60
5.47
2.68
-0.78
-4.83
-9.20
-13.48
-17.21
-19.93
-21.32
-21.24
-19.79
-17.24
-13.98
-10.41
-6.88
-3.67
-0.92
1.24
2.74
3.50
3.48
2.72
1.36
-0.35
-2.13
-3.79
-5.20
-6.31
-7.01
-7.09
-6.22
-4.12
-0.66
3.97
9.36
14.95
20.24
24.87
28.67
31.52
33.32
33.97
33.42
31.73
29.07
25.62
21.52
16.81
11.50
5.65
-0.57
-6.87
-12.91
-18.35
-22.92
-26.38
-28.52
-29.18
-28.33
-26.15
-22.98
-19.26
-15.33
-11.47
-7.88
-4.75
-2.33
-0.88
-0.51
-1.15
-2.52
-4.29
-6.18
-8.10
-9.98
-11.78
-13.32
-14.26
-14.21
-12.87
-10.14
-6.18
-1.40
3.72
8.60
12.80
16.01
18.11
19.15
19.31
18.82
17.89
16.70
15.36
13.93
12.36
10.61
8.67
6.55
4.37
2.29
0.44
-1.07
-2.23
-3.02
-3.45
-3.48
-3.13
-2.45
-1.63
-0.94
-0.64
-0.90
-1.75
-3.11
-4.87
-6.93
-9.19
-11.58
-13.94
-16.15
-18.07
-19.65
-20.89
-21.78
-22.26
-22.15
-21.25
-19.42
-16.71
-13.34
-9.66
-5.98
-2.52
0.62
3.44
5.92
8.09
9.96
11.57
13.02
14.42
15.86
17.36
18.83
20.10
21.02
21.41
21.22
20.46
19.24
17.68
15.92
14.09
12.26
10.49
8.79
7.16
5.55
3.89
2.06
0.02
-2.22
-4.59
-6.94
-9.12
-11.07
-12.76
-14.23
-15.45
-16.35
-16.73
-16.45
-15.39
-13.61
-11.28
-8.64
-5.91
-3.24
-0.74
1.52
3.49
5.14
6.43
7.37
8.02
8.43
8.71
8.88
8.97
8.93
8.75
8.47
8.19
8.00
7.92
7.84
7.50
6.63
5.03
2.71
-0.17
-3.35
-6.56
-9.65
-12.50
-15.05
-17.24
-19.00
-20.33
-21.28
-21.95
-22.38
-22.53
-22.35
-21.86
-21.22
-20.77
-20.86
-21.67
-23.05
-24.55
-25.60
-25.79
-25.06
-23.70
-22.19
-21.00
-20.39
-20.39
-20.92
-21.88
-23.27
-25.12
-27.47
-30.23
-33.19
-36.03
-38.41
-40.13
-41.15
-41.66
-42.06
-42.77
-44.09
-46.06
-48.40
-50.55
-51.86
-51.65
-49.36
-44.58
-37.15
-27.15
-14.93
-0.95
14.27
30.29
46.69
63.04
78.67
92.71
104.17
112.18
116.29
116.55
113.48
107.91
100.70
92.57
84.04
75.43
66.94
58.72
50.97
43.88
37.61
32.19
27.54
23.50
20.02
17.26
15.65
15.73
17.92
22.28
28.41
35.50
42.59
48.77
53.35
55.90
56.20
54.19
50.00
43.88
36.40
28.36
20.76
14.64
10.80
9.76
11.68
16.40
23.60
32.73
43.11
53.84
63.92
72.32
78.22
81.05
80.51
76.38
68.46
56.49
40.24
19.78
-4.41
-31.35
-59.51
-87.01
-111.81
-131.94
-145.84
-152.60
-152.06
-144.88
-132.32
-116.03
-97.72
-79.00
-61.29
-45.75
-33.34
-24.64
-19.82
-18.50
-19.81
-22.58
-25.64
-28.06
-29.36
-29.45
-28.44
-26.43
-23.42
-19.31
-14.10
-8.08
-1.84
3.81
8.16
10.79
11.76
11.53
10.77
10.11
9.96
10.47
11.63
13.34
15.51
18.04
20.79
23.62
26.35
28.84
31.00
32.77
34.13
35.04
35.47
35.42
34.87
33.78
32.00
29.34
25.58
20.63
14.61
7.88
0.93
-5.80
-11.97
-17.43
-22.12
-26.02
-29.09
-31.34
-32.80
-33.58
-33.82
-33.62
-33.06
-32.17
-30.99
-29.62
-28.20
-26.95
-26.06
-25.63
-25.65
-25.99
-26.48
-26.94
-27.28
-27.56
-27.95
-28.64
-29.69
-30.97
-32.17
-32.91
-32.89
-31.99
-30.32
-28.17
-25.89
-23.79
-21.99
-20.38
-18.58
-15.99
-11.91
-5.76
2.78
13.53
25.78
38.33
49.76
58.72
64.30
66.24
64.95
61.26
56.08
50.03
43.35
35.95
27.73
18.72
9.18
-0.43
-9.67
-18.14
-25.50
-31.37
-35.32
-36.93
-35.95
-32.46
-26.96
-20.25
-13.24
-6.77
-1.40
2.60
5.30
6.95
7.92
8.55
9.12
9.73
10.39
10.98
11.35
11.41
11.15
10.65
10.02
9.36
8.63
7.68
6.28
4.29
1.72
-1.24
-4.26
-7.06
-9.44
-11.38
-12.87
-13.91
-14.41
-14.26
-13.39
-11.87
-9.86
-7.55
-5.08
-2.52
0.09
2.69
5.11
7.15
8.59
9.36
9.50
9.19
8.62
7.97
7.33
6.69
6.06
5.43
4.91
4.63
4.71
5.19
5.95
6.76
7.35
7.51
7.07
5.96
4.18
1.80
-1.04
-4.14
-7.27
-10.24
-12.93
-15.32
-17.45
-19.30
-20.77
-21.68
-21.83
-21.11
-19.54
-17.30
-14.63
-11.72
-8.72
-5.66
-2.52
0.70
3.99
7.31
10.60
13.79
16.76
19.31
21.26
22.43
22.78
22.37
21.41
20.11
18.63
17.04
15.30
13.34
11.08
8.42
5.29
1.60
-2.64
-7.30
-12.05
-16.35
-19.61
-21.37
-21.47
-20.13
-17.89
-15.39
-13.10
-11.18
-9.42
-7.44
-4.93
-1.89
1.41
4.46
6.83
8.26
8.73
8.33
7.17
5.32
2.86
0.02
-2.85
-5.26
-6.84
-7.42
-7.10
-6.15
-4.90
-3.55
-2.22
-0.92
0.37
1.70
3.12
4.73
6.58
8.62
10.66
12.37
13.36
13.37
12.31
10.34
7.79
5.03
2.41
0.16
-1.65
-3.04
-4.09
-4.90
-5.57
-6.15
-6.71
-7.29
-7.95
-8.67
-9.38
-9.77
-9.42
-7.85
-4.68
0.15
6.40
13.47
20.60
27.03
32.11
35.41
36.72
36.14
33.99
30.78
27.05
23.21
19.45
15.77
11.96
7.82
3.21
-1.87
-7.32
-12.86
-18.12
-22.64
-25.96
-27.74
-27.84
-26.43
-23.95
-21.07
-18.44
-16.60
-15.82
-16.05
-16.96
-18.08
-18.87
-18.95
-18.12
-16.45
-14.19
-11.64
-9.11
-6.77
-4.63
-2.59
-0.48
1.89
4.63
7.72
10.93
13.91
16.24
17.58
17.74
16.84
15.23
13.36
11.66
10.36
9.51
8.97
8.56
8.11
7.56
6.94
6.30
5.71
5.17
4.64
4.05
3.37
2.57
1.65
0.62
-0.54
-1.85
-3.27
-4.73
-6.09
-7.24
-8.14
-8.85
-9.50
-10.16
-10.80
-11.28
-11.41
-11.06
-10.22
-8.95
-7.32
-5.32
-2.88
0.06
3.50
7.27
11.09
14.61
17.49
19.50
20.56
20.67
19.98
18.63
16.81
14.69
12.42
10.19
8.23
6.73
5.84
5.53
5.65
5.90
6.00
5.77
5.22
4.44
3.56
2.65
1.66
0.46
-1.00
-2.74
-4.58
-6.34
-7.82
-8.88
-9.50
-9.66
-9.28
-8.30
-6.64
-4.39
-1.76
0.87
3.15
4.84
5.90
6.49
6.81
7.05
7.25
7.37
7.29
6.96
6.38
5.65
4.91
4.28
3.82
3.50
3.22
2.85
2.33
1.70
1.10
0.71
0.64
0.86
1.16
1.22
0.71
-0.62
-2.75
-5.52
-8.53
-11.35
-13.59
-14.96
-15.43
-15.17
-14.55
-13.97
-13.70
-13.78
-14.03
-14.10
-13.70
-12.73
-11.36
-10.03
-9.26
-9.48
-10.78
-12.88
-15.15
-16.77
-17.03
-15.54
-12.39
-8.06
-3.19
1.74
6.50
11.13
15.69
20.05
23.73
26.11
26.64
25.18
22.04
17.92
13.57
9.52
5.93
2.67
-0.42
-3.29
-5.62
-6.92
-6.80
-5.22
-2.55
0.51
3.23
5.04
5.76
5.56
4.79
3.86
3.02
2.35
1.80
1.35
1.08
1.16
1.73
2.73
3.82
4.48
4.26
3.08
1.27
-0.48
-1.46
-1.31
-0.11
1.70
3.54
4.97
5.83
6.08
5.71
4.62
2.63
-0.33
-4.16
-8.45
-12.61
-16.01
-18.19
-18.95
-18.43
-16.91
-14.81
-12.48
-10.21
-8.18
-6.55
-5.39
-4.79
-4.77
-5.25
-6.06
-6.88
-7.38
-7.28
-6.49
-5.17
-3.64
-2.36
-1.66
-1.68
-2.27
-3.14
-3.88
-4.23
-4.04
-3.33
-2.23
-0.89
0.47
1.68
2.59
3.14
3.39
3.45
3.52
3.75
4.24
5.00
5.99
7.17
8.54
10.13
11.93
13.97
16.22
18.66
21.20
23.66
25.80
27.35
28.06
27.84
26.64
24.50
21.48
17.61
13.01
7.82
2.31
-3.24
-8.57
-13.46
-17.81
-21.55
-24.64
-27.08
-28.93
-30.26
-31.09
-31.38
-30.97
-29.67
-27.39
-24.24
-20.51
-16.56
-12.72
-9.16
-5.90
-2.94
-0.33
1.78
3.23
3.95
4.06
3.79
3.35
2.82
2.10
0.94
-0.80
-3.06
-5.51
-7.60
-8.80
-8.81
-7.63
-5.59
-3.17
-0.84
1.16
2.77
4.12
5.39
6.67
7.93
9.07
10.03
10.77
11.32
11.74
12.08
12.37
12.60
12.74
12.77
12.64
12.34
11.84
11.15
10.27
9.22
8.03
6.68
5.17
3.55
1.93
0.49
-0.59
-1.17
-1.18
-0.64
0.36
1.68
3.13
4.48
5.49
5.93
5.67
4.69
3.11
1.17
-0.87
-2.81
-4.56
-6.19
-7.79
-9.39
-10.93
-12.26
-13.23
-13.80
-14.11
-14.37
-14.81
-15.53
-16.43
-17.28
-17.84
-17.94
-17.54
-16.69
-15.49
-13.97
-12.13
-10.01
-7.67
-5.25
-2.93
-0.89
0.74
1.88
2.49
2.62
2.39
1.99
1.68
1.72
2.24
3.17
4.24
5.14
5.63
5.75
5.78
6.11
6.99
8.33
9.66
10.29
9.59
7.28
3.53
-1.13
-5.96
-10.30
-13.65
-15.75
-16.50
-15.97
-14.33
-11.85
-8.86
-5.76
-2.88
-0.46
1.41
2.70
3.49
3.87
3.96
3.88
3.74
3.61
3.55
3.55
3.64
3.87
4.34
5.14
6.31
7.79
9.44
11.06
12.48
13.71
14.86
16.14
17.72
19.60
21.60
23.41
24.64
25.00
24.39
22.85
20.58
17.78
14.60
11.11
7.38
3.50
-0.39
-4.18
-7.84
-11.48
-15.30
-19.38
-23.57
-27.44
-30.44
-32.05
-32.04
-30.50
-27.71
-24.06
-19.85
-15.31
-10.63
-6.00
-1.64
2.24
5.56
8.29
10.50
12.28
13.67
14.69
15.33
15.54
15.32
14.69
13.79
12.81
11.99
11.46
11.25
11.27
11.33
11.27
10.89
10.05
8.65
6.69
4.25
1.51
-1.32
-4.11
-6.82
-9.50
-12.18
-14.80
-17.13
-18.88
-19.80
-19.78
-18.87
-17.20
-14.91
-12.08
-8.77
-5.02
-1.00
3.09
6.97
10.38
13.13
15.11
16.31
16.76
16.53
15.73
14.47
12.95
11.37
9.89
8.59
7.45
6.30
5.04
3.58
1.95
0.26
-1.41
-3.03
-4.64
-6.29
-8.03
-9.83
-11.65
-13.41
-15.04
-16.48
-17.69
-18.68
-19.46
-20.07
-20.48
-20.62
-20.36
-19.53
-18.00
-15.72
-12.74
-9.15
-5.12
-0.83
3.52
7.66
11.39
14.58
17.27
19.60
21.72
23.72
25.48
26.74
27.25
26.84
25.51
23.44
20.85
17.99
15.06
12.26
9.76
7.69
6.08
4.85
3.81
2.77
1.63
0.44
-0.71
-1.67
-2.41
-2.93
-3.36
-3.79
-4.32
-4.96
-5.72
-6.56
-7.43
-8.30
-9.12
-9.84
-10.39
-10.60
-10.27
-9.23
-7.40
-4.91
-2.06
0.76
3.16
4.91
5.91
6.21
5.92
5.19
4.22
3.26
2.57
2.34
2.66
3.46
4.50
5.57
6.45
7.10
7.52
7.80
7.98
8.10
8.17
8.19
8.17
8.09
7.89
7.53
6.97
6.28
5.51
4.74
3.93
2.94
1.61
-0.19
-2.44
-5.00
-7.66
-10.26
-12.69
-14.93
-16.94
-18.69
-20.05
-20.87
-21.04
-20.44
-19.03
-16.86
-14.08
-10.92
-7.65
-4.51
-1.70
0.70
2.70
4.37
5.76
6.93
7.91
8.74
9.43
9.96
10.23
10.19
9.77
9.02
8.04
6.97
5.93
4.96
4.09
3.30
2.56
1.84
1.10
0.30
-0.61
-1.68
-2.89
-4.16
-5.40
-6.49
-7.37
-7.97
-8.28
-8.31
-8.13
-7.84
-7.61
-7.63
-8.02
-8.76
-9.67
-10.44
-10.77
-10.43
-9.37
-7.74
-5.78
-3.74
-1.79
0.02
1.68
3.18
4.47
5.45
6.06
6.31
6.27
6.03
5.63
5.06
4.34
3.53
2.78
2.27
2.11
2.30
2.72
3.19
3.61
4.04
4.66
5.68
7.20
9.18
11.38
13.47
15.05
15.72
15.16
13.17
9.79
5.28
0.10
-5.17
-9.94
-13.75
-16.27
-17.34
-16.95
-15.28
-12.61
-9.37
-5.97
-2.78
-0.03
2.19
3.86
4.95
5.38
5.04
3.86
1.92
-0.58
-3.26
-5.74
-7.66
-8.84
-9.28
-9.05
-8.31
-7.12
-5.60
-3.82
-1.96
-0.20
1.26
2.41
3.36
4.33
5.50
6.89
8.35
9.68
10.69
11.35
11.74
12.03
12.33
12.70
13.06
13.24
13.00
12.12
10.48
8.11
5.21
2.10
-0.89
-3.45
-5.34
-6.39
-6.57
-5.94
-4.77
-3.40
-2.20
-1.44
-1.23
-1.54
-2.28
-3.38
-4.82
-6.52
-8.32
-9.97
-11.15
-11.62
-11.30
-10.29
-8.83
-7.25
-5.89
-5.01
-4.72
-4.98
-5.61
-6.34
-6.93
-7.26
-7.35
-7.28
-7.13
-6.86
-6.36
-5.48
-4.16
-2.51
-0.74
0.82
1.93
2.46
2.40
1.84
0.94
-0.16
-1.26
-2.13
-2.48
-2.03
-0.62
1.71
4.67
7.82
10.62
12.66
13.74
13.88
13.31
12.35
11.31
10.43
9.82
9.46
9.24
9.00
8.61
7.98
7.16
6.30
5.62
5.32
5.46
5.98
6.67
7.26
7.59
7.59
7.27
6.69
5.87
4.82
3.53
2.00
0.31
-1.42
-3.07
-4.60
-5.99
-7.32
-8.62
-9.87
-11.03
-12.02
-12.81
-13.44
-14.03
-14.67
-15.37
-16.02
-16.40
-16.29
-15.55
-14.13
-12.12
-9.67
-6.98
-4.25
-1.65
0.65
2.57
4.09
5.24
6.03
6.47
6.56
6.33
5.85
5.20
4.51
3.81
3.07
2.22
1.17
-0.10
-1.58
-3.20
-4.87
-6.46
-7.83
-8.86
-9.39
-9.32
-8.60
-7.27
-5.49
-3.53
-1.65
-0.05
1.15
1.92
2.27
2.19
1.59
0.40
-1.42
-3.73
-6.23
-8.49
-10.16
-10.99
-11.00
-10.35
-9.34
-8.18
-7.00
-5.74
-4.24
-2.35
0.00
2.72
5.59
8.34
10.74
12.66
14.06
15.00
15.53
15.74
15.65
15.28
14.66
13.81
12.80
11.68
10.55
9.51
8.64
8.00
7.54
7.15
6.53
5.36
3.33
0.28
-3.72
-8.34
-13.08
-17.45
-21.02
-23.57
-25.01
-25.35
-24.64
-22.87
-20.08
-16.37
-11.95
-7.17
-2.49
1.68
5.03
7.49
9.20
10.43
11.42
12.23
12.74
12.69
11.90
10.39
8.36
6.09
3.79
1.53
-0.82
-3.36
-6.08
-8.76
-10.99
-12.35
-12.48
-11.19
-8.59
-4.99
-0.91
3.07
6.43
8.84
10.19
10.53
10.02
8.80
6.96
4.55
1.64
-1.67
-5.21
-8.85
-12.42
-15.79
-18.74
-20.97
-22.14
-21.92
-20.12
-16.75
-12.03
-6.34
-0.16
6.03
11.70
16.36
19.58
21.10
20.96
19.48
17.23
14.86
12.88
11.57
10.93
10.81
10.98
11.25
11.43
11.32
10.68
9.30
7.05
4.04
0.53
-3.10
-6.52
-9.52
-12.07
-14.21
-16.03
-17.60
-18.98
-20.25
-21.45
-22.65
-23.82
-24.90
-25.81
-26.49
-26.93
-27.15
-27.14
-26.85
-26.13
-24.85
-22.89
-20.21
-16.79
-12.57
-7.50
-1.56
5.13
12.26
19.39
26.03
31.77
36.31
39.52
41.28
41.55
40.34
37.88
34.63
31.22
28.26
26.14
24.92
24.31
23.81
22.93
21.33
18.92
15.86
12.45
9.05
5.95
3.34
1.30
-0.17
-1.10
-1.59
-1.76
-1.76
-1.76
-1.85
-1.98
-1.91
-1.37
-0.10
1.92
4.53
7.39
10.10
12.34
13.93
14.80
14.99
14.53
13.43
11.67
9.22
6.09
2.41
-1.64
-5.76
-9.68
-13.12
-15.91
-17.98
-19.31
-19.93
-19.86
-19.09
-17.68
-15.75
-13.56
-11.42
-9.66
-8.50
-7.96
-7.94
-8.20
-8.56
-8.89
-9.16
-9.36
-9.47
-9.40
-9.02
-8.19
-6.79
-4.86
-2.55
-0.13
2.05
3.69
4.56
4.63
3.99
2.87
1.53
0.21
-0.89
-1.64
-1.96
-1.86
-1.35
-0.48
0.73
2.25
4.04
5.98
7.90
9.54
10.65
11.10
10.89
10.19
9.27
8.31
7.40
6.47
5.42
4.19
2.86
1.59
0.55
-0.21
-0.80
-1.41
-2.23
-3.29
-4.49
-5.61
-6.44
-6.86
-6.83
-6.40
-5.58
-4.43
-3.02
-1.48
0.01
1.27
2.14
2.53
2.42
1.89
1.04
0.07
-0.85
-1.58
-2.07
-2.32
-2.42
-2.44
-2.37
-2.18
-1.81
-1.25
-0.51
0.33
1.19
2.02
2.73
3.26
3.53
3.44
2.89
1.85
0.30
-1.68
-3.99
-6.50
-9.10
-11.66
-14.07
-16.17
-17.77
-18.67
-18.70
-17.78
-15.95
-13.37
-10.33
-7.15
-4.18
-1.68
0.19
1.44
2.19
2.62
2.88
3.04
3.10
3.04
2.86
2.58
2.29
2.06
1.92
1.85
1.79
1.73
1.70
1.75
1.91
2.16
2.41
2.56
2.55
2.42
2.26
2.14
2.05
1.84
1.35
0.47
-0.72
-2.01
-3.06
-3.60
-3.49
-2.76
-1.57
-0.13
1.30
2.54
3.46
4.02
4.22
4.12
3.78
3.25
2.57
1.82
1.15
0.72
0.69
1.08
1.83
2.80
3.85
4.92
6.04
7.25
8.55
9.86
11.00
11.77
12.00
11.59
10.54
8.87
6.64
3.88
0.69
-2.81
-6.43
-9.95
-13.14
-15.84
-17.92
-19.34
-20.03
-19.96
-19.10
-17.50
-15.28
-12.69
-9.93
-7.20
-4.56
-1.96
0.66
3.33
5.96
8.36
10.31
11.63
12.24
12.16
11.54
10.53
9.30
7.96
6.56
5.00
3.14
0.79
-2.14
-5.60
-9.29
-12.81
-15.71
-17.71
-18.77
-19.11
-19.08
-18.99
-19.01
-19.13
-19.22
-19.10
-18.65
-17.81
-16.59
-15.06
-13.33
-11.51
-9.65
-7.79
-5.86
-3.83
-1.64
0.68
3.06
5.40
7.62
9.65
11.47
13.02
14.26
15.14
15.65
15.78
15.60
15.19
14.69
14.24
14.00
14.07
14.48
15.17
15.93
16.49
16.63
16.20
15.23
13.82
12.14
10.31
8.46
6.64
4.86
3.13
1.44
-0.23
-1.88
-3.50
-5.06
-6.53
-7.89
-9.10
-10.09
-10.68
-10.59
-9.52
-7.30
-4.02
-0.03
4.09
7.81
10.81
13.00
14.57
15.73
16.62
17.18
17.22
16.57
15.19
13.24
11.03
8.90
7.07
5.56
4.30
3.14
1.98
0.82
-0.28
-1.28
-2.14
-2.91
-3.68
-4.52
-5.44
-6.42
-7.37
-8.21
-8.91
-9.47
-9.95
-10.43
-10.95
-11.52
-12.06
-12.44
-12.53
-12.24
-11.50
-10.30
-8.66
-6.64
-4.35
-1.91
0.50
2.73
4.67
6.27
7.53
8.47
9.08
9.34
9.20
8.65
7.75
6.63
5.48
4.46
3.68
3.13
2.71
2.27
1.70
0.96
0.08
-0.90
-1.96
-3.11
-4.36
-5.66
-6.93
-8.04
-8.86
-9.34
-9.50
-9.41
-9.16
-8.85
-8.55
-8.43
-8.68
-9.46
-10.83
-12.66
-14.69
-16.56
-17.95
-18.65
-18.51
-17.45
-15.37
-12.19
-7.91
-2.71
3.02
8.79
14.07
18.52
22.01
24.60
26.50
27.86
28.74
29.05
28.67
27.53
25.71
23.45
21.07
18.83
16.88
15.18
13.62
12.09
10.56
9.10
7.82
6.75
5.80
4.87
3.84
2.77
1.87
1.40
1.52
2.18
3.10
3.82
3.97
3.33
1.96
0.11
-1.88
-3.73
-5.27
-6.45
-7.31
-7.92
-8.37
-8.71
-8.94
-8.97
-8.68
-7.93
-6.66
-4.91
-2.85
-0.68
1.42
3.37
5.11
6.60
7.70
8.25
8.12
7.32
5.99
4.42
2.87
1.53
0.48
-0.28
-0.76
-0.99
-0.97
-0.77
-0.51
-0.31
-0.27
-0.39
-0.56
-0.68
-0.66
-0.49
-0.24
0.00
0.19
0.33
0.43
0.54
0.61
0.61
0.48
0.20
-0.22
-0.75
-1.40
-2.16
-3.01
-3.92
-4.81
-5.64
-6.38
-7.06
-7.67
-8.22
-8.59
-8.65
-8.28
-7.41
-6.05
-4.30
-2.37
-0.49
1.11
2.29
2.99
3.27
3.26
3.10
2.88
2.65
2.41
2.14
1.85
1.50
1.06
0.50
-0.16
-0.83
-1.39
-1.65
-1.55
-1.05
-0.25
0.71
1.69
2.58
3.30
3.84
4.17
4.26
4.07
3.55
2.64
1.32
-0.35
-2.27
-4.25
-6.08
-7.58
-8.66
-9.30
-9.59
-9.63
-9.52
-9.29
-8.91
-8.34
-7.54
-6.55
-5.45
-4.39
-3.48
-2.74
-2.14
-1.59
-0.98
-0.25
0.58
1.41
2.14
2.66
2.94
3.01
2.95
2.83
2.68
2.51
2.24
1.82
1.19
0.38
-0.53
-1.41
-2.07
-2.40
-2.35
-1.93
-1.27
-0.50
0.27
0.96
1.55
1.99
2.23
2.21
1.95
1.50
0.98
0.47
-0.02
-0.56
-1.25
-2.18
-3.38
-4.81
-6.39
-8.01
-9.53
-10.77
-11.49
-11.49
-10.63
-8.93
-6.54
-3.74
-0.84
1.86
4.10
5.78
6.93
7.68
8.23
8.73
9.24
9.68
9.94
9.93
9.65
9.18
8.64
8.11
7.59
7.02
6.32
5.39
4.21
2.80
1.25
-0.28
-1.63
-2.66
-3.33
-3.71
-3.96
-4.29
-4.83
-5.60
-6.47
-7.26
-7.82
-8.09
-8.13
-8.13
-8.30
-8.78
-9.60
-10.57
-11.41
-11.73
-11.26
-9.89
-7.77
-5.22
-2.65
-0.39
1.35
2.53
3.22
3.58
3.76
3.90
4.08
4.31
4.51
4.57
4.38
3.91
3.21
2.37
1.45
0.48
-0.56
-1.70
-2.93
-4.22
-5.49
-6.66
-7.67
-8.42
-8.90
-9.10
-9.08
-8.91
-8.65
-8.32
-7.87
-7.23
-6.40
-5.41
-4.41
-3.52
-2.80
-2.24
-1.77
-1.33
-0.94
-0.60
-0.31
0.02
0.52
1.34
2.47
3.79
5.10
6.19
6.93
7.35
7.51
7.50
7.38
7.13
6.73
6.16
5.42
4.57
3.68
2.87
2.21
1.79
1.59
1.53
1.51
1.41
1.19
0.85
0.43
-0.03
-0.52
-1.06
-1.62
-2.13
-2.48
-2.61
-2.54
-2.37
-2.25
-2.27
-2.47
-2.77
-3.15
-3.61
-4.22
-5.04
-6.03
-7.00
-7.65
-7.67
-6.88
-5.32
-3.19
-0.84
1.42
3.32
4.73
5.61
5.98
5.90
5.44
4.66
3.62
2.41
1.15
-0.02
-0.97
-1.62
-1.98
-2.13
-2.15
-2.08
-1.97
-1.81
-1.64
-1.49
-1.39
-1.37
-1.36
-1.30
-1.08
-0.68
-0.09
0.56
1.14
1.52
1.59
1.29
0.65
-0.27
-1.38
-2.61
-3.85
-5.03
-6.01
-6.67
-6.91
-6.73
-6.23
-5.63
-5.16
-4.99
-5.13
-5.43
-5.69
-5.76
-5.67
-5.65
-6.02
-7.03
-8.77
-11.11
-13.76
-16.38
-18.68
-20.53
-21.91
-22.98
-23.99
-25.29
-27.16
-29.72
-32.76
-35.73
-37.92
-38.69
-37.72
-35.18
-31.63
-27.85
-24.53
-22.13
-20.83
-20.56
-21.15
-22.49
-24.51
-27.26
-30.71
-34.75
-38.98
-42.63
-44.42
-42.67
-35.61
-21.75
-0.48
27.66
60.81
96.16
130.54
161.11
185.83
203.69
214.56
218.95
217.76
212.08
203.09
191.89
179.26
165.35
149.65
131.08
108.46
80.97
48.63
12.48
-25.49
-62.63
-96.10
-123.30
-142.32
-152.21
-152.97
-145.50
-131.32
-112.36
-90.72
-68.54
-47.89
-30.61
-18.08
-10.93
-8.99
-11.31
-16.42
-22.67
-28.61
-33.13
-35.55
-35.61
-33.38
-29.25
-23.76
-17.62
-11.58
-6.31
-2.32
0.13
0.95
0.29
-1.54
-4.10
-6.85
-9.29
-10.95
-11.57
-11.05
-9.50
-7.16
-4.37
-1.49
1.13
3.21
4.58
5.17
5.06
4.36
3.24
1.85
0.35
-1.10
-2.35
-3.29
-3.88
-4.16
-4.29
-4.43
-4.70
-5.23
-6.01
-6.99
-8.05
-9.02
-9.68
-9.85
-9.41
-8.35
-6.74
-4.74
-2.64
-0.75
0.56
1.03
0.56
-0.70
-2.36
-3.93
-4.99
-5.29
-4.80
-3.63
-1.94
0.11
2.41
4.76
6.95
8.69
9.74
10.00
9.49
8.39
6.92
5.29
3.66
2.14
0.83
-0.20
-0.94
-1.46
-1.86
-2.28
-2.81
-3.48
-4.23
-4.99
-5.69
-6.24
-6.56
-6.52
-6.04
-5.10
-3.82
-2.44
-1.22
-0.38
0.05
0.17
0.15
0.14
0.22
0.39
0.58
0.74
0.87
1.00
1.18
1.46
1.89
2.49
3.27
4.20
5.26
6.39
7.55
8.66
9.67
10.50
11.08
11.36
11.35
11.12
10.77
10.41
10.15
10.03
10.04
10.16
10.38
10.73
11.26
12.01
13.00
14.17
15.41
16.58
17.55
18.29
18.90
19.55
20.41
21.51
22.73
23.77
24.34
24.16
23.15
21.34
18.82
15.68
12.00
7.89
3.54
-0.75
-4.64
-7.87
-10.33
-12.13
-13.51
-14.75
-16.06
-17.48
-18.94
-20.26
-21.28
-21.88
-22.06
-21.83
-21.21
-20.21
-18.79
-16.99
-14.92
-12.81
-10.97
-9.68
-9.13
-9.34
-10.15
-11.30
-12.45
-13.31
-13.63
-13.29
-12.32
-10.91
-9.31
-7.81
-6.59
-5.71
-5.14
-4.74
-4.35
-3.85
-3.14
-2.22
-1.15
-0.11
0.73
1.24
1.41
1.37
1.34
1.51
1.95
2.57
3.14
3.44
3.34
2.90
2.30
1.72
1.31
1.05
0.89
0.72
0.48
0.13
-0.35
-1.04
-2.06
-3.52
-5.40
-7.47
-9.35
-10.58
-10.80
-9.90
-8.04
-5.62
-3.14
-1.01
0.59
1.69
2.47
3.14
3.80
4.46
5.06
5.52
5.86
6.06
6.15
6.09
5.85
5.44
4.93
4.45
4.09
3.82
3.53
3.03
2.20
1.00
-0.45
-2.00
-3.47
-4.78
-5.90
-6.81
-7.52
-8.04
-8.36
-8.52
-8.53
-8.39
-8.09
-7.57
-6.74
-5.57
-4.07
-2.38
-0.64
0.98
2.36
3.49
4.40
5.17
5.89
6.62
7.40
8.27
9.22
10.22
11.20
12.05
12.61
12.77
12.41
11.46
9.88
7.66
4.88
1.69
-1.65
-4.88
-7.76
-10.22
-12.25
-14.00
-15.56
-16.97
-18.18
-19.16
-19.93
-20.59
-21.25
-21.94
-22.53
-22.81
-22.57
-21.71
-20.34
-18.67
-16.98
-15.44
-14.16
-13.11
-12.26
-11.58
-11.06
-10.69
-10.46
-10.36
-10.38
-10.57
-11.00
-11.68
-12.64
-13.78
-14.99
-16.13
-17.09
-17.82
-18.34
-18.76
-19.27
-20.08
-21.31
-22.82
-24.10
-24.25
-22.20
-17.07
-8.42
3.66
18.67
35.90
54.61
74.08
93.53
111.99
128.35
141.45
150.29
154.07
152.25
144.44
130.47
110.56
85.53
56.92
26.83
-2.37
-28.58
-50.27
-66.64
-77.46
-82.90
-83.34
-79.36
-71.79
-61.77
-50.65
-39.83
-30.49
-23.37
-18.73
-16.35
-15.66
-15.96
-16.55
-16.88
-16.63
-15.72
-14.26
-12.47
-10.54
-8.64
-6.90
-5.40
-4.24
-3.42
-2.87
-2.51
-2.20
-1.91
-1.63
-1.38
-1.17
-0.90
-0.44
0.31
1.38
2.73
4.25
5.84
7.43
8.97
10.37
11.51
12.20
12.30
11.67
10.23
7.98
4.97
1.30
-2.89
-7.42
-12.15
-16.95
-21.71
-26.20
-30.00
-32.51
-33.09
-31.25
-26.85
-20.15
-11.78
-2.55
6.66
15.06
21.94
26.78
29.27
29.40
27.42
23.84
19.21
14.01
8.56
3.10
-2.12
-6.76
-10.38
-12.61
-13.27
-12.46
-10.53
-7.94
-5.09
-2.21
0.66
3.57
6.55
9.55
12.43
14.99
17.10
18.60
19.38
19.25
18.08
15.82
12.65
9.01
5.48
2.57
0.53
-0.79
-1.86
-3.19
-5.16
-7.90
-11.26
-14.97
-18.65
-21.84
-24.01
-24.63
-23.37
-20.30
-16.00
-11.37
-7.34
-4.48
-2.82
-1.95
-1.29
-0.43
0.74
1.95
2.75
2.74
1.62
-0.69
-4.12
-8.44
-13.20
-17.80
-21.53
-23.73
-23.98
-22.21
-18.72
-14.10
-8.97
-3.91
0.64
4.39
7.09
8.60
8.90
8.11
6.56
4.68
2.87
1.38
0.31
-0.36
-0.62
-0.39
0.45
1.92
3.85
5.87
7.51
8.41
8.43
7.70
6.56
5.34
4.25
3.32
2.44
1.50
0.48
-0.50
-1.24
-1.56
-1.42
-0.85
-0.02
0.90
1.71
2.31
2.59
2.58
2.35
2.08
1.95
2.08
2.45
2.86
3.05
2.89
2.43
1.99
2.01
2.89
4.81
7.71
11.34
15.35
19.42
23.36
27.12
30.76
34.35
37.86
41.14
43.89
45.78
46.55
46.13
44.65
42.33
39.40
35.90
31.72
26.69
20.81
14.31
7.66
1.39
-4.10
-8.64
-12.27
-15.11
-17.20
-18.43
-18.71
-18.03
-16.65
-14.97
-13.45
-12.39
-11.93
-12.03
-12.67
-13.85
-15.58
-17.75
-20.11
-22.25
-23.74
-24.26
-23.77
-22.48
-20.76
-18.98
-17.35
-15.86
-14.31
-12.48
-10.27
-7.78
-5.27
-3.02
-1.23
0.09
1.04
1.78
2.35
2.75
2.89
2.77
2.45
2.05
1.66
1.29
0.82
0.08
-1.12
-2.90
-5.26
-8.02
-10.87
-13.38
-15.15
-15.91
-15.66
-14.61
-13.11
-11.52
-10.06
-8.82
-7.76
-6.88
-6.19
-5.70
-5.38
-5.10
-4.67
-3.94
-2.90
-1.67
-0.46
0.52
1.15
1.42
1.36
1.01
0.42
-0.31
-1.03
-1.56
-1.76
-1.63
-1.32
-1.08
-1.10
-1.51
-2.26
-3.21
-4.20
-5.05
-5.69
-6.08
-6.24
-6.27
-6.27
-6.33
-6.53
-6.89
-7.35
-7.85
-8.30
-8.68
-9.00
-9.25
-9.33
-9.03
-8.14
-6.54
-4.32
-1.86
0.37
2.00
2.97
3.54
4.15
5.11
6.49
8.04
9.38
10.23
10.55
10.52
10.40
10.41
10.60
10.86
11.00
10.86
10.33
9.43
8.29
7.05
5.86
4.84
4.03
3.44
3.04
2.77
2.55
2.28
1.88
1.34
0.76
0.34
0.34
0.91
2.01
3.41
4.77
5.77
6.27
6.33
6.19
6.10
6.22
6.58
7.08
7.51
7.65
7.30
6.35
4.79
2.74
0.34
-2.31
-5.18
-8.25
-11.47
-14.61
-17.32
-19.19
-19.97
-19.62
-18.35
-16.44
-14.15
-11.57
-8.68
-5.54
-2.39
0.38
2.30
3.11
2.86
1.97
1.03
0.57
0.87
1.85
3.21
4.57
5.68
6.46
6.98
7.35
7.65
7.89
8.00
7.92
7.59
7.04
6.38
5.73
5.29
5.19
5.47
6.06
6.75
7.33
7.64
7.71
7.64
7.62
7.73
7.94
8.07
7.90
7.24
6.00
4.26
2.22
0.28
-1.11
-1.41
-0.24
2.50
6.47
10.87
14.64
16.76
16.57
13.94
9.31
3.49
-2.55
-7.96
-12.14
-14.77
-15.76
-15.29
-13.66
-11.31
-8.62
-5.87
-3.14
-0.32
2.73
6.03
9.40
12.44
14.64
15.58
15.03
13.05
9.94
6.16
2.23
-1.34
-4.14
-5.94
-6.65
-6.41
-5.50
-4.24
-2.94
-1.84
-1.04
-0.56
-0.34
-0.32
-0.46
-0.87
-1.79
-3.50
-6.23
-9.97
-14.43
-19.07
-23.28
-26.53
-28.52
-29.19
-28.73
-27.39
-25.44
-23.11
-20.59
-17.99
-15.40
-12.88
-10.45
-8.15
-6.05
-4.25
-2.84
-1.85
-1.17
-0.60
0.04
0.96
2.26
3.99
6.11
8.55
11.17
13.80
16.27
18.46
20.36
22.07
23.74
25.45
27.12
28.53
29.35
29.31
28.26
26.19
23.20
19.52
15.43
11.27
7.35
3.88
0.97
-1.41
-3.35
-4.91
-6.13
-6.97
-7.46
-7.67
-7.73
-7.76
-7.86
-8.07
-8.37
-8.69
-8.97
-9.11
-9.03
-8.64
-7.94
-6.98
-5.87
-4.76
-3.74
-2.87
-2.13
-1.49
-0.85
-0.15
0.68
1.63
2.57
3.30
3.64
3.45
2.79
1.86
0.89
0.07
-0.57
-1.13
-1.73
-2.43
-3.19
-3.89
-4.42
-4.74
-4.94
-5.12
-5.38
-5.74
-6.10
-6.35
-6.36
-6.05
-5.41
-4.52
-3.46
-2.34
-1.28
-0.34
0.45
1.12
1.72
2.31
2.95
3.65
4.40
5.17
5.91
6.56
7.06
7.39
7.53
7.49
7.32
7.07
6.79
6.51
6.28
6.09
5.99
5.99
6.11
6.28
6.43
6.39
6.01
5.23
4.10
2.76
1.44
0.27
-0.75
-1.71
-2.71
-3.79
-4.84
-5.68
-6.11
-6.04
-5.56
-4.81
-3.99
-3.23
-2.59
-2.04
-1.56
-1.10
-0.65
-0.22
0.20
0.62
1.04
1.50
1.98
2.46
2.85
3.07
3.08
2.87
2.53
2.17
1.89
1.70
1.58
1.47
1.31
1.08
0.78
0.43
0.07
-0.25
-0.53
-0.79
-1.08
-1.48
-2.06
-2.80
-3.62
-4.41
-5.06
-5.54
-5.88
-6.18
-6.49
-6.80
-7.03
-7.05
-6.74
-6.06
-5.06
-3.87
-2.67
-1.60
-0.75
-0.12
0.32
0.67
0.98
1.27
1.52
1.67
1.66
1.40
0.85
-0.06
-1.30
-2.80
-4.42
-6.01
-7.46
-8.78
-10.01
-11.23
-12.44
-13.49
-14.10
-13.88
-12.46
-9.63
-5.40
-0.07
5.80
11.55
16.56
20.40
22.93
24.24
24.58
24.16
23.14
21.52
19.22
16.14
12.29
7.81
3.03
-1.61
-5.68
-8.88
-11.11
-12.47
-13.16
-13.37
-13.19
-12.65
-11.78
-10.67
-9.48
-8.37
-7.42
-6.51
-5.43
-4.00
-2.20
-0.26
1.44
2.52
2.79
2.35
1.56
0.83
0.52
0.72
1.34
2.15
2.94
3.59
4.04
4.33
4.48
4.51
4.39
4.05
3.37
2.26
0.68
-1.27
-3.38
-5.40
-7.13
-8.49
-9.52
-10.30
-10.84
-11.09
-10.87
-10.07
-8.66
-6.75
-4.55
-2.29
-0.12
1.91
3.80
5.59
7.26
8.75
9.92
10.66
10.89
10.67
10.14
9.46
8.81
8.31
8.01
7.92
8.02
8.24
8.51
8.76
8.88
8.79
8.47
7.85
6.92
5.66
4.05
2.13
0.01
-2.19
-4.36
-6.43
-8.38
-10.18
-11.79
-13.14
-14.21
-15.01
-15.58
-15.99
-16.24
-16.25
-15.95
-15.31
-14.37
-13.25
-12.07
-10.84
-9.55
-8.11
-6.54
-4.90
-3.28
-1.78
-0.41
0.88
2.17
3.50
4.86
6.18
7.40
8.49
9.47
10.36
11.15
11.82
12.31
12.60
12.70
12.65
12.49
12.19
11.72
10.99
10.00
8.75
7.32
5.81
4.30
2.87
1.54
0.36
-0.70
-1.72
-2.81
-4.09
-5.55
-7.07
-8.42
-9.30
-9.52
-9.03
-7.97
-6.57
-5.07
-3.61
-2.26
-1.04
0.05
0.94
1.58
1.97
2.15
2.23
2.27
2.33
2.39
2.49
2.67
3.05
3.70
4.67
5.85
7.08
8.14
8.85
9.14
9.03
8.59
7.93
7.17
6.44
5.83
5.40
5.08
4.75
4.26
3.51
2.55
1.51
0.63
0.10
-0.00
0.27
0.78
1.37
1.99
2.68
3.54
4.66
6.10
7.82
9.74
11.77
13.75
15.56
17.07
18.17
18.84
19.13
19.22
19.28
19.41
19.60
19.70
19.50
18.83
17.54
15.57
12.93
9.66
5.86
1.73
-2.46
-6.38
-9.82
-12.64
-14.90
-16.68
-18.02
-18.85
-19.07
-18.64
-17.69
-16.63
-15.94
-16.10
-17.36
-19.68
-22.73
-26.08
-29.25
-31.83
-33.44
-33.68
-32.18
-28.77
-23.59
-17.27
-10.79
-5.22
-1.41
0.38
0.46
-0.40
-1.34
-1.74
-1.38
-0.43
0.77
1.88
2.68
3.17
3.40
3.46
3.35
3.05
2.50
1.70
0.71
-0.35
-1.37
-2.28
-3.05
-3.72
-4.30
-4.81
-5.26
-5.65
-5.99
-6.34
-6.77
-7.40
-8.35
-9.77
-11.74
-14.23
-17.02
-19.70
-21.74
-22.69
-22.35
-20.83
-18.51
-15.85
-13.20
-10.69
-8.32
-6.03
-3.84
-1.88
-0.27
0.93
1.82
2.53
3.18
3.74
4.15
4.32
4.27
4.08
3.93
3.94
4.16
4.56
5.09
5.65
6.16
6.51
6.63
6.46
6.01
5.29
4.38
3.37
2.30
1.21
0.14
-0.90
-1.92
-2.93
-3.92
-4.78
-5.37
-5.49
-5.05
-4.08
-2.78
-1.39
-0.15
0.82
1.55
2.14
2.66
3.09
3.36
3.39
3.16
2.72
2.13
1.47
0.77
0.05
-0.65
-1.22
-1.56
-1.56
-1.28
-0.92
-0.73
-0.92
-1.56
-2.53
-3.59
-4.47
-4.98
-5.09
-4.86
-4.37
-3.69
-2.79
-1.60
-0.04
1.95
4.34
7.00
9.71
12.20
14.23
15.61
16.27
16.25
15.65
14.66
13.45
12.20
11.05
10.12
9.52
9.36
9.69
10.55
11.85
13.43
15.05
16.49
17.59
18.32
18.75
18.96
18.95
18.60
17.78
16.42
14.60
12.52
10.41
8.36
6.27
3.95
1.23
-1.87
-5.13
-8.19
-10.67
-12.37
-13.23
-13.35
-12.90
-12.03
-10.91
-9.68
-8.46
-7.38
-6.49
-5.84
-5.43
-5.18
-5.03
-4.87
-4.60
-4.13
-3.47
-2.71
-2.07
-1.73
-1.83
-2.34
-3.06
-3.66
-3.87
-3.49
-2.53
-1.15
0.40
1.91
3.23
4.30
5.16
5.85
6.29
6.38
5.91
4.72
2.73
0.01
-3.23
-6.72
-10.19
-13.38
-16.07
-18.02
-18.99
-18.79
-17.36
-14.85
-11.60
-8.07
-4.68
-1.76
0.55
2.25
3.52
4.53
5.48
6.47
7.48
8.44
9.21
9.72
9.92
9.84
9.53
9.07
8.51
7.94
7.49
7.34
7.64
8.45
9.70
11.12
12.40
13.20
13.32
12.78
11.77
10.55
9.41
8.46
7.68
6.96
6.17
5.24
4.24
3.26
2.39
1.64
0.94
0.17
-0.82
-2.09
-3.59
-5.11
-6.35
-7.00
-6.86
-5.93
-4.42
-2.67
-1.00
0.42
1.54
2.37
2.88
2.94
2.37
1.10
-0.72
-2.75
-4.58
-5.81
-6.29
-6.06
-5.34
-4.38
-3.41
-2.64
-2.23
-2.35
-3.13
-4.61
-6.68
-9.09
-11.53
-13.72
-15.50
-16.81
-17.70
-18.18
-18.21
-17.70
-16.54
-14.70
-12.25
-9.30
-6.06
-2.74
0.44
3.29
5.64
7.42
8.67
9.50
10.11
10.63
11.13
11.62
12.03
12.35
12.58
12.73
12.81
12.72
12.36
11.66
10.62
9.34
7.96
6.62
5.38
4.27
3.31
2.54
2.05
1.86
1.86
1.88
1.67
1.05
0.03
-1.23
-2.49
-3.54
-4.34
-5.06
-5.98
-7.38
-9.39
-11.91
-14.60
-17.00
-18.70
-19.42
-19.11
-17.86
-15.88
-13.39
-10.57
-7.60
-4.64
-1.86
0.58
2.59
4.13
5.23
5.90
6.11
5.79
4.82
3.13
0.76
-2.17
-5.43
-8.78
-12.03
-15.08
-17.96
-20.74
-23.51
-26.29
-29.10
-31.89
-34.67
-37.45
-40.22
-42.90
-45.34
-47.40
-49.01
-50.26
-51.38
-52.59
-54.04
-55.64
-57.07
-57.89
-57.62
-55.86
-52.26
-46.56
-38.58
-28.29
-15.93
-1.97
12.92
28.13
43.19
57.81
71.76
84.72
96.19
105.59
112.39
116.29
117.37
115.99
112.69
107.95
102.19
95.69
88.62
81.08
73.17
65.01
56.71
48.43
40.27
32.27
24.42
16.64
8.75
0.60
-7.94
-16.88
-25.98
-34.75
-42.49
-48.42
-51.91
-52.63
-50.59
-46.09
-39.67
-31.93
-23.48
-14.90
-6.69
0.75
7.05
11.83
14.65
15.10
12.90
8.08
1.21
-6.66
-14.12
-19.78
-22.64
-22.41
-19.43
-14.56
-8.83
-3.13
1.93
6.02
8.97
10.74
11.36
10.95
9.79
8.26
6.72
5.41
4.38
3.56
2.85
2.20
1.62
1.16
0.83
0.60
0.43
0.32
0.34
0.53
0.88
1.32
1.73
2.03
2.25
2.48
2.79
3.21
3.62
3.87
3.86
3.65
3.43
3.46
3.92
4.81
5.96
7.11
8.01
8.59
8.94
9.31
9.95
11.00
12.41
13.99
15.35
16.08
15.76
14.10
11.00
6.56
1.08
-5.06
-11.46
-17.82
-23.89
-29.45
-34.18
-37.64
-39.30
-38.68
-35.52
-29.89
-22.33
-13.68
-5.06
2.49
8.12
11.45
12.50
11.71
9.73
7.28
5.01
3.36
2.45
2.15
2.11
1.94
1.31
0.13
-1.55
-3.53
-5.65
-7.81
-10.00
-12.20
-14.32
-16.17
-17.51
-18.14
-18.03
-17.26
-16.03
-14.54
-12.99
-11.48
-10.13
-9.00
-8.18
-7.73
-7.66
-7.86
-8.12
-8.20
-7.89
-7.11
-5.87
-4.30
-2.53
-0.68
1.21
3.16
5.22
7.42
9.78
12.28
14.94
17.72
20.54
23.20
25.39
26.78
27.04
26.03
23.84
20.75
17.10
13.16
9.11
4.99
0.86
-3.16
-6.87
-10.04
-12.51
-14.18
-15.12
-15.45
-15.34
-14.95
-14.39
-13.80
-13.31
-13.10
-13.31
-13.96
-14.95
-16.05
-16.93
-17.31
-16.99
-15.85
-13.91
-11.31
-8.24
-4.97
-1.80
1.00
3.22
4.77
5.68
6.07
6.09
5.89
5.61
5.38
5.31
5.49
5.96
6.67
7.45
8.07
8.19
7.53
5.95
3.57
0.74
-2.04
-4.35
-6.01
-7.13
-8.05
-9.21
-10.93
-13.32
-16.22
-19.30
-22.11
-24.16
-25.07
-24.62
-22.82
-19.96
-16.53
-13.12
-10.19
-8.00
-6.49
-5.42
-4.49
-3.40
-1.94
0.04
2.65
5.95
9.92
14.45
19.25
23.98
28.28
31.89
34.65
36.49
37.41
37.41
36.56
35.00
33.02
31.01
29.39
28.48
28.41
29.11
30.41
32.03
33.74
35.29
36.43
36.99
36.85
36.08
34.89
33.55
32.32
31.26
30.31
29.26
27.95
26.32
24.44
22.51
20.72
19.24
18.09
17.21
16.41
15.43
14.02
11.94
9.08
5.45
1.15
-3.66
-8.85
-14.37
-20.25
-26.58
-33.48
-40.94
-48.74
-56.41
-63.26
-68.54
-71.64
-72.29
-70.63
-67.16
-62.50
-57.23
-51.70
-46.12
-40.61
-35.29
-30.31
-25.76
-21.65
-17.90
-14.40
-11.16
-8.34
-6.19
-4.95
-4.73
-5.48
-6.98
-8.91
-10.90
-12.60
-13.72
-14.13
-13.87
-13.09
-12.02
-10.82
-9.54
-8.16
-6.60
-4.88
-3.19
-1.79
-0.99
-0.99
-1.79
-3.20
-4.95
-6.74
-8.32
-9.51
-10.22
-10.38
-9.96
-8.97
-7.42
-5.33
-2.73
0.43
4.15
8.33
12.68
16.71
19.79
21.34
21.06
19.02
15.66
11.68
7.82
4.61
2.36
1.15
0.93
1.75
3.67
6.77
10.99
15.98
21.12
25.67
28.92
30.45
30.11
28.10
24.83
20.84
16.73
13.14
10.64
9.70
10.54
13.01
16.61
20.57
24.04
26.32
27.06
26.30
24.32
21.56
18.37
14.98
11.53
8.06
4.65
1.41
-1.57
-4.29
-6.80
-9.25
-11.80
-14.54
-17.49
-20.50
-23.27
-25.41
-26.54
-26.47
-25.24
-23.17
-20.72
-18.36
-16.40
-14.98
-14.03
-13.42
-13.03
-12.77
-12.56
-12.32
-11.98
-11.49
-10.83
-10.06
-9.24
-8.40
-7.55
-6.68
-5.77
-4.78
-3.69
-2.47
-1.10
0.32
1.57
2.36
2.40
1.60
0.12
-1.64
-3.11
-3.84
-3.62
-2.63
-1.35
-0.39
-0.13
-0.61
-1.48
-2.20
-2.35
-1.87
-1.06
-0.45
-0.51
-1.34
-2.56
-3.43
-3.09
-0.94
3.14
8.66
14.62
19.90
23.58
25.43
26.02
26.74
29.43
35.79
46.70
61.62
78.35
93.28
102.19
101.52
89.48
66.81
36.61
3.54
-27.50
-52.58
-69.35
-77.13
-76.50
-68.84
-55.90
-39.72
-22.47
-6.32
6.84
15.65
19.57
18.96
14.84
8.64
1.75
-4.74
-10.18
-14.26
-16.78
-17.47
-15.91
-11.73
-4.92
3.96
13.64
22.39
28.48
30.59
28.25
21.86
12.57
1.93
-8.52
-17.59
-24.55
-29.19
-31.64
-32.23
-31.27
-29.09
-25.99
-22.34
-18.56
-15.06
-12.19
-10.12
-8.81
-8.03
-7.50
-6.92
-6.15
-5.14
-3.97
-2.73
-1.48
-0.25
0.91
1.89
2.56
2.72
2.29
1.30
-0.01
-1.31
-2.25
-2.60
-2.32
-1.53
-0.51
0.43
1.08
1.32
1.17
0.69
-0.02
-0.92
-1.95
-3.04
-4.05
-4.85
-5.32
-5.46
-5.35
-5.15
-4.96
-4.77
-4.46
-3.81
-2.64
-0.90
1.31
3.70
5.93
7.70
8.80
9.18
8.92
8.23
7.34
6.49
5.88
5.60
5.64
5.88
6.19
6.50
6.81
7.23
7.83
8.63
9.49
10.17
10.41
10.01
8.94
7.31
5.38
3.43
1.68
0.29
-0.70
-1.28
-1.48
-1.34
-0.93
-0.32
0.45
1.39
2.56
3.97
5.56
7.06
8.09
8.26
7.34
5.36
2.58
-0.67
-4.14
-7.70
-11.28
-14.67
-17.50
-19.23
-19.41
-17.86
-14.85
-10.97
-7.00
-3.61
-1.18
0.25
0.90
1.19
1.51
2.22
3.53
5.49
7.94
10.52
12.74
14.10
14.31
13.32
11.37
8.88
6.26
3.83
1.73
-0.03
-1.42
-2.42
-2.94
-2.96
-2.55
-1.82
-0.87
0.30
1.80
3.72
5.97
8.21
9.89
10.41
9.36
6.71
2.79
-1.79
-6.28
-10.06
-12.70
-14.06
-14.26
-13.67
-12.76
-11.98
-11.57
-11.53
-11.64
-11.60
-11.18
-10.34
-9.21
-8.07
-7.20
-6.81
-7.01
-7.82
-9.10
-10.62
-12.06
-13.00
-13.07
-11.99
-9.67
-6.31
-2.34
1.60
4.84
6.82
7.22
6.02
3.47
0.03
-3.81
-7.58
-10.94
-13.68
-15.71
-17.11
-18.09
-18.89
-19.74
-20.73
-21.81
-22.82
-23.60
-24.08
-24.23
-24.07
-23.56
-22.62
-21.16
-19.11
-16.53
-13.60
-10.53
-7.53
-4.71
-2.09
0.34
2.58
4.64
6.46
8.01
9.29
10.36
11.31
12.22
13.18
14.26
15.47
16.83
18.25
19.65
20.92
21.96
22.66
22.97
22.81
22.17
21.09
19.69
18.14
16.62
15.18
13.80
12.31
10.54
8.37
5.78
2.86
-0.25
-3.41
-6.45
-9.19
-11.48
-13.21
-14.32
-14.88
-15.01
-14.87
-14.64
-14.48
-14.52
-14.84
-15.37
-15.93
-16.25
-16.00
-14.98
-13.10
-10.42
-7.09
-3.33
0.66
4.65
8.43
11.78
14.52
16.53
17.75
18.21
18.02
17.26
16.05
14.43
12.47
10.24
7.87
5.55
3.50
1.93
0.99
0.70
0.92
1.47
2.11
2.68
3.11
3.36
3.39
3.09
2.30
0.85
-1.30
-4.06
-7.16
-10.32
-13.25
-15.76
-17.64
-18.71
-18.81
-17.83
-15.82
-13.01
-9.69
-6.19
-2.75
0.47
3.41
5.99
8.20
10.00
11.46
12.70
13.84
14.95
15.96
16.73
17.05
16.78
15.91
14.53
12.86
11.12
9.49
8.03
6.74
5.53
4.30
2.99
1.57
0.10
-1.35
-2.64
-3.66
-4.24
-4.28
-3.68
-2.50
-0.93
0.74
2.23
3.34
4.03
4.40
4.64
4.92
5.36
5.98
6.73
7.49
8.11
8.40
8.19
7.37
5.94
4.03
1.86
-0.31
-2.29
-3.91
-5.15
-6.02
-6.57
-6.84
-6.84
-6.56
-5.99
-5.17
-4.19
-3.15
-2.20
-1.41
-0.83
-0.40
-0.08
0.20
0.46
0.77
1.20
1.85
2.83
4.17
5.83
7.66
9.43
10.86
11.71
11.80
11.03
9.40
7.01
4.08
0.89
-2.25
-5.06
-7.39
-9.23
-10.71
-12.07
-13.51
-15.10
-16.74
-18.12
-18.86
-18.57
-17.08
-14.45
-11.04
-7.35
-3.87
-0.90
1.48
3.39
5.04
6.48
7.69
8.51
8.78
8.39
7.40
5.96
4.30
2.68
1.29
0.25
-0.38
-0.64
-0.64
-0.57
-0.68
-1.27
-2.57
-4.75
-7.70
-11.07
-14.29
-16.73
-17.86
-17.49
-15.70
-12.87
-9.48
-5.92
-2.52
0.52
3.06
4.91
5.91
6.00
5.23
3.83
2.18
0.64
-0.51
-1.14
-1.33
-1.25
-1.07
-0.86
-0.54
0.04
1.07
2.61
4.54
6.59
8.37
9.55
9.92
9.48
8.39
6.86
5.12
3.31
1.47
-0.37
-2.18
-3.89
-5.39
-6.55
-7.27
-7.51
-7.26
-6.54
-5.41
-3.95
-2.28
-0.59
0.91
2.05
2.74
3.04
3.15
3.30
3.69
4.38
5.29
6.30
7.30
8.26
9.20
10.17
11.13
12.01
12.69
13.09
13.22
13.18
13.11
13.12
13.21
13.29
13.20
12.76
11.84
10.41
8.60
6.63
4.78
3.27
2.20
1.55
1.14
0.77
0.18
-0.86
-2.52
-4.89
-7.89
-11.28
-14.61
-17.39
-19.17
-19.68
-18.90
-16.99
-14.30
-11.21
-8.11
-5.31
-3.05
-1.43
-0.47
-0.07
-0.13
-0.57
-1.37
-2.52
-3.99
-5.65
-7.31
-8.74
-9.80
-10.49
-10.91
-11.26
-11.73
-12.37
-13.14
-13.93
-14.61
-15.16
-15.64
-16.21
-17.04
-18.23
-19.78
-21.53
-23.19
-24.36
-24.53
-23.14
-19.73
-14.01
-5.99
4.00
15.31
27.19
38.84
49.59
58.94
66.52
72.03
75.18
75.78
73.78
69.36
63.00
55.37
47.31
39.58
32.77
27.21
22.92
19.69
17.21
15.14
13.19
11.16
8.87
6.13
2.83
-1.05
-5.35
-9.71
-13.72
-17.10
-19.81
-22.13
-24.45
-27.11
-30.20
-33.52
-36.69
-39.32
-41.16
-42.11
-42.21
-41.53
-40.14
-38.07
-35.43
-32.34
-29.03
-25.69
-22.45
-19.33
-16.21
-12.91
-9.20
-4.87
0.22
6.00
12.23
18.36
23.63
27.20
28.35
26.68
22.32
15.92
8.48
1.11
-5.25
-10.03
-13.00
-14.18
-13.63
-11.46
-7.79
-2.96
2.46
7.63
11.65
13.79
13.74
11.65
7.99
3.43
-1.35
-5.73
-9.13
-11.03
-11.01
-8.93
-5.01
0.12
5.50
10.14
13.23
14.39
13.78
11.91
9.47
7.09
5.15
3.79
2.99
2.62
2.57
2.70
2.90
3.07
3.14
3.11
3.02
2.95
2.93
2.93
2.82
2.47
1.78
0.71
-0.61
-1.96
-3.03
-3.57
-3.44
-2.68
-1.54
-0.27
0.86
1.75
2.34
2.62
2.48
1.85
0.70
-0.87
-2.52
-3.88
-4.60
-4.57
-3.88
-2.82
-1.68
-0.63
0.30
1.15
1.94
2.63
3.10
3.25
3.05
2.60
2.04
1.54
1.17
0.94
0.81
0.70
0.56
0.34
-0.02
-0.58
-1.37
-2.36
-3.47
-4.56
-5.53
-6.23
-6.56
-6.39
-5.69
-4.49
-2.93
-1.24
0.37
1.77
2.98
4.14
5.38
6.78
8.32
9.91
11.47
12.95
14.31
15.52
16.55
17.36
17.93
18.26
18.38
18.30
17.99
17.40
16.52
15.43
14.27
13.22
12.48
12.18
12.36
12.96
13.71
14.27
14.26
13.42
11.73
9.36
6.56
3.55
0.41
-2.87
-6.25
-9.57
-12.57
-14.97
-16.62
-17.59
-18.06
-18.27
-18.35
-18.31
-18.13
-17.82
-17.47
-17.24
-17.22
-17.42
-17.76
-18.14
-18.44
-18.63
-18.67
-18.52
-18.13
-17.44
-16.47
-15.30
-14.07
-12.92
-11.92
-11.01
-10.02
-8.79
-7.24
-5.41
-3.46
-1.60
0.03
1.37
2.47
3.40
4.21
4.90
5.40
5.70
5.81
5.79
5.72
5.63
5.44
5.05
4.36
3.35
2.14
0.90
-0.22
-1.17
-1.99
-2.76
-3.54
-4.29
-4.94
-5.40
-5.60
-5.52
-5.19
-4.65
-3.95
-3.21
-2.53
-1.99
-1.66
-1.49
-1.45
-1.48
-1.55
-1.65
-1.76
-1.77
-1.55
-1.01
-0.13
0.97
2.13
3.22
4.17
5.04
5.89
6.78
7.64
8.37
8.84
8.97
8.77
8.34
7.78
7.13
6.36
5.38
4.09
2.51
0.73
-1.08
-2.78
-4.27
-5.59
-6.79
-7.90
-8.83
-9.39
-9.37
-8.64
-7.25
-5.38
-3.32
-1.31
0.49
1.99
3.19
4.00
4.36
4.18
3.41
2.08
0.27
-1.95
-4.46
-7.09
-9.65
-11.83
-13.32
-13.87
-13.34
-11.78
-9.39
-6.53
-3.55
-0.84
1.35
2.86
3.63
3.72
3.29
2.50
1.52
0.47
-0.60
-1.65
-2.67
-3.58
-4.25
-4.49
-4.15
-3.19
-1.67
0.25
2.34
4.44
6.45
8.36
10.11
11.65
12.87
13.68
14.00
13.83
13.26
12.38
11.30
10.12
8.93
7.84
6.93
6.24
5.77
5.47
5.32
5.29
5.37
5.48
5.48
5.22
4.59
3.61
2.41
1.20
0.14
-0.75
-1.54
-2.38
-3.38
-4.53
-5.72
-6.85
-7.77
-8.39
-8.64
-8.50
-8.00
-7.25
-6.40
-5.58
-4.89
-4.31
-3.77
-3.18
-2.47
-1.62
-0.66
0.36
1.39
2.35
3.16
3.73
4.03
4.10
4.03
3.93
3.81
3.62
3.27
2.72
2.05
1.43
1.07
1.05
1.33
1.75
2.14
2.36
2.40
2.32
2.22
2.15
2.10
2.04
1.86
1.54
1.07
0.53
-0.03
-0.56
-1.09
-1.68
-2.46
-3.56
-5.05
-6.92
-9.05
-11.24
-13.25
-14.85
-15.87
-16.23
-15.91
-14.95
-13.38
-11.23
-8.54
-5.39
-1.95
1.50
4.61
7.07
8.71
9.50
9.57
9.20
8.70
8.34
8.28
8.52
8.86
9.00
8.63
7.62
6.03
4.19
2.50
1.29
0.68
0.56
0.64
0.64
0.32
-0.41
-1.53
-2.94
-4.50
-6.02
-7.28
-8.09
-8.28
-7.85
-6.97
-5.93
-5.02
-4.47
-4.32
-4.48
-4.75
-4.95
-4.94
-4.62
-3.90
-2.72
-1.01
1.21
3.79
6.48
8.95
10.94
12.29
13.00
13.16
12.95
12.53
12.03
11.52
11.02
10.49
9.82
8.89
7.56
5.75
3.48
0.92
-1.67
-4.00
-5.84
-7.08
-7.75
-7.99
-7.96
-7.79
-7.55
-7.29
-7.05
-6.85
-6.76
-6.80
-6.95
-7.13
-7.26
-7.32
-7.32
-7.36
-7.54
-7.94
-8.58
-9.44
-10.42
-11.43
-12.33
-12.95
-13.11
-12.68
-11.59
-9.87
-7.67
-5.16
-2.57
-0.08
2.16
4.07
5.59
6.72
7.45
7.78
7.74
7.36
6.69
5.79
4.73
3.55
2.31
1.07
-0.04
-0.91
-1.48
-1.77
-1.94
-2.20
-2.70
-3.45
-4.25
-4.79
-4.78
-4.08
-2.71
-0.91
1.07
2.93
4.54
5.83
6.84
7.62
8.27
8.86
9.50
10.23
11.10
12.05
12.94
13.61
13.91
13.79
13.30
12.66
12.12
11.88
12.01
12.40
12.82
13.01
12.70
11.72
10.00
