1565985464.00
64.000000
-0.00
-0.00
-0.00
-0.00
-0.00
-0.00
-0.00
-0.00
-0.00
-0.00
0.00
0.01
0.01
-0.00
-0.03
-0.05
-0.05
0.00
0.13
0.36
0.66
1.01
1.37
1.72
2.06
2.40
2.79
3.24
3.80
4.42
5.06
5.66
6.20
6.68
7.15
7.68
8.31
9.14
10.09
11.04
11.88
12.56
13.14
13.76
14.65
15.96
17.91
20.32
22.90
25.38
27.58
29.57
31.68
34.32
37.81
42.54
48.15
54.10
59.83
64.97
69.58
74.14
79.34
85.71
93.76
103.00
112.62
121.73
129.77
136.75
143.30
150.75
157.77
166.64
177.95
191.79
206.97
220.57
228.25
225.36
208.53
176.87
132.76
80.05
23.07
-34.95
-92.44
-149.16
-205.22
-260.36
-313.72
-363.83
-409.77
-450.82
-486.38
-515.58
-537.02
-548.96
-549.65
-537.99
-513.77
-478.17
-433.31
-381.82
-326.32
-269.08
-211.80
-155.75
-101.96
-51.30
-4.74
36.85
72.81
102.87
127.16
146.21
160.71
171.38
178.84
183.49
185.61
185.44
183.24
179.36
174.22
168.23
161.72
154.96
148.08
141.16
134.23
127.34
120.57
113.97
107.62
101.58
95.88
90.54
85.55
80.93
76.68
72.83
69.37
66.33
63.68
61.40
59.46
57.80
56.32
54.91
53.42
51.67
49.48
46.70
43.23
38.99
34.00
28.30
22.03
15.40
8.69
2.18
-3.80
-8.98
-13.11
-16.03
-17.65
-18.00
-17.17
-15.34
-12.76
-9.68
-6.40
-3.15
-0.20
2.25
4.09
5.25
5.64
5.34
4.50
3.29
1.85
0.28
-1.38
-3.14
-5.02
-7.23
-9.83
-12.85
-16.36
-20.54
-25.68
-32.13
-40.19
-50.11
-62.26
-76.62
-92.86
-110.53
-129.11
-147.96
-166.39
-183.54
-198.35
-209.87
-216.70
-217.40
-210.83
-196.42
-174.40
-145.86
-112.35
-73.36
-30.96
12.39
54.40
93.11
126.93
154.57
175.04
188.00
194.12
194.55
191.40
186.96
183.00
180.23
178.30
175.86
171.57
164.85
155.72
145.23
134.50
124.26
114.19
103.09
89.39
71.21
47.29
16.92
-19.51
-60.01
-100.46
-134.91
-155.23
-156.84
-140.04
-110.09
-75.73
-45.54
-24.91
-14.50
-11.40
-11.53
-12.26
-12.96
-14.19
-16.48
-19.27
-21.11
-20.66
-17.64
-12.96
-8.53
-6.18
-6.58
-9.11
-12.19
-14.07
-13.48
-10.15
-4.81
1.17
6.51
10.61
13.57
15.98
18.46
21.26
24.04
25.96
25.98
23.32
17.61
9.30
-0.72
-11.44
-22.10
-32.32
-42.09
-51.69
-61.44
-71.45
-81.72
-92.09
-102.35
-112.39
-122.28
-132.16
-142.13
-152.21
-162.02
-170.65
-176.81
-178.93
-175.41
-164.84
-146.37
-119.47
-84.15
-41.09
8.31
61.87
116.64
169.02
215.00
250.71
272.84
279.33
269.78
245.64
209.90
166.31
118.51
68.90
19.38
-28.95
-75.07
-117.44
-153.68
-180.88
-196.70
-200.09
-192.05
-175.20
-153.34
-129.86
-106.61
-83.47
-58.33
-27.82
11.69
62.44
123.71
190.31
252.70
298.85
317.01
301.40
255.33
191.44
128.03
83.62
69.70
88.23
132.08
188.13
241.57
279.50
293.46
280.52
243.26
188.64
126.32
66.08
15.48
-21.13
-43.08
-52.43
-52.73
-48.04
-42.25
-38.57
-38.90
-43.52
-51.16
-60.15
-69.87
-81.72
-98.36
-121.89
-151.34
-181.65
-204.88
-213.04
-201.23
-169.25
-121.51
-65.58
-10.41
35.23
64.14
71.98
58.73
29.45
-6.10
-35.85
-49.18
-40.67
-12.06
28.42
69.00
98.28
108.74
98.85
72.86
38.81
5.58
-20.10
-35.24
-40.65
-39.43
-35.23
-31.02
-28.72
-29.36
-33.43
-40.53
-49.01
-55.88
-57.48
-51.03
-36.24
-16.16
3.46
16.37
18.35
9.09
-7.81
-26.70
-42.41
-52.35
-56.75
-57.47
-56.19
-53.36
-48.63
-42.16
-35.66
-32.00
-33.58
-40.47
-49.69
-56.40
-56.25
-47.56
-32.09
-14.06
1.77
11.87
14.87
11.30
3.07
-7.42
-17.64
-25.37
-28.98
-27.64
-21.61
-12.16
-1.39
8.24
14.44
15.94
13.07
7.93
3.63
2.85
6.22
11.68
15.30
13.35
4.63
-8.54
-21.33
-28.90
-28.99
-22.82
-14.03
-6.19
-0.67
3.88
10.20
19.99
32.27
43.43
49.09
46.43
35.88
20.82
6.00
-4.64
-9.49
-9.44
-7.06
-5.07
-5.17
-7.34
-10.14
-11.47
-9.71
-4.54
2.98
11.02
18.11
23.90
29.05
34.09
38.14
38.48
31.70
16.00
-6.92
-31.47
-50.08
-56.62
-49.66
-33.54
-17.16
-10.17
-18.88
-43.45
-77.61
-110.84
-131.91
-132.55
-110.04
-67.84
-14.04
41.35
89.37
124.30
144.05
148.88
139.51
116.08
78.77
29.84
-24.61
-74.63
-108.74
-117.74
-98.41
-55.36
-0.17
51.67
85.34
91.11
67.29
21.15
-33.19
-79.19
-103.38
-99.88
-71.80
-28.89
17.15
56.78
84.44
97.30
93.69
72.83
36.60
-8.16
-49.42
-73.39
-70.11
-38.67
11.35
63.12
99.07
107.86
88.34
49.34
5.52
-28.48
-42.96
-35.90
-12.30
18.97
48.97
71.31
82.89
82.58
70.00
45.35
10.73
-28.24
-62.32
-81.36
-78.68
-54.79
-17.90
19.32
45.11
53.34
45.10
26.82
6.35
-10.57
-21.77
-27.91
-30.43
-30.00
-26.23
-18.59
-7.65
4.50
14.80
20.50
20.26
14.64
5.82
-3.19
-9.51
-11.32
-8.40
-2.31
4.33
8.88
9.89
7.74
4.19
1.33
0.38
1.10
2.34
3.03
3.22
4.06
6.86
11.96
18.07
22.81
23.83
20.00
11.92
1.66
-7.94
-14.07
-14.78
-9.53
0.34
11.89
21.38
25.87
24.71
20.17
16.58
18.07
26.16
38.52
49.74
54.07
48.46
34.52
18.26
7.62
9.08
24.84
51.80
82.66
108.63
122.41
120.23
102.44
72.70
36.65
0.49
-30.09
-51.08
-61.08
-62.25
-60.11
-61.75
-72.84
-94.36
-120.81
-141.20
-143.36
-119.31
-69.67
-4.27
61.59
112.86
139.75
139.90
117.10
78.43
32.35
-12.00
-44.76
-56.58
-41.89
-2.88
48.45
92.85
110.72
90.47
33.83
-45.00
-125.81
-190.87
-231.15
-247.75
-248.78
-244.35
-242.27
-245.24
-252.98
-263.74
-275.51
-285.97
-292.31
-291.45
-280.80
-259.46
-230.77
-199.21
-169.18
-143.54
-122.09
-101.44
-75.87
-39.29
12.33
78.96
154.76
228.45
285.77
314.12
307.74
271.44
220.36
174.91
152.69
161.21
194.80
237.84
272.42
286.16
276.36
249.10
214.59
182.07
156.84
140.12
130.78
127.13
127.85
131.60
136.67
141.05
143.05
141.73
137.18
130.36
123.01
117.31
115.43
118.85
127.69
140.32
153.60
163.90
168.20
164.92
154.26
137.89
118.09
96.94
75.68
54.37
32.11
7.45
-21.24
-55.47
-96.39
-144.35
-198.15
-254.08
-305.72
-344.84
-363.86
-358.77
-331.52
-290.19
-246.31
-210.55
-188.44
-178.73
-174.79
-168.12
-152.03
-123.63
-83.82
-36.19
13.77
59.32
92.95
108.04
101.22
74.29
34.43
-8.13
-43.88
-67.23
-77.44
-77.33
-70.82
-61.12
-50.50
-40.99
-34.71
-33.46
-37.46
-44.58
-50.96
-52.90
-48.92
-40.70
-31.93
-25.86
-23.12
-21.12
-15.63
-3.64
14.45
34.41
49.88
55.55
49.55
34.09
14.34
-4.16
-17.67
-25.21
-28.03
-28.38
-27.92
-26.96
-24.75
-20.20
-12.84
-3.52
5.80
12.78
15.89
15.16
12.12
8.97
7.39
7.73
9.06
10.00
9.73
8.45
7.12
6.85
8.14
10.79
14.13
17.69
21.30
24.77
27.54
28.52
26.51
21.07
13.21
5.17
-0.43
-1.72
1.53
7.91
15.09
20.93
24.33
25.53
25.71
26.00
26.70
27.00
25.44
21.02
14.10
6.63
1.25
-0.02
2.81
7.67
11.40
11.35
6.82
-0.73
-8.44
-13.49
-14.38
-11.45
-6.55
-1.96
0.77
1.60
1.95
3.92
9.01
17.10
26.21
33.32
35.84
33.01
26.31
18.73
13.25
11.42
12.97
16.53
20.81
25.27
29.81
33.61
33.86
25.69
3.77
-34.98
-88.59
-148.93
-203.28
-238.28
-244.83
-221.64
-175.94
-120.62
-69.36
-32.00
-12.07
-7.56
-13.60
-25.80
-41.83
-60.83
-81.21
-98.98
-107.97
-102.27
-79.48
-42.72
0.08
39.35
67.84
82.78
85.75
80.74
71.83
61.75
52.04
43.97
39.40
40.62
49.24
64.88
84.77
104.33
118.48
123.19
116.34
97.78
68.82
31.43
-12.48
-61.60
-115.00
-171.42
-227.86
-278.77
-316.57
-333.87
-326.86
-297.74
-254.68
-208.57
-167.93
-134.21
-101.05
-58.03
2.75
80.73
165.02
238.05
283.14
291.75
267.12
222.02
172.51
131.17
102.96
85.77
74.31
64.57
56.21
51.99
54.65
64.18
77.45
90.08
99.44
106.21
113.90
126.11
143.15
160.60
170.30
163.65
135.30
86.16
23.75
-39.90
-91.90
-122.23
-126.20
-105.08
-64.93
-14.93
34.84
75.06
98.89
103.31
90.01
65.39
38.99
20.67
17.29
30.24
54.74
81.51
100.10
102.72
87.14
57.20
21.23
-11.19
-32.59
-39.54
-32.85
-16.45
4.07
22.44
32.27
28.10
7.07
-29.29
-74.53
-118.78
-152.23
-168.76
-167.88
-154.07
-133.92
-112.97
-94.10
-77.75
-63.46
-51.08
-41.12
-34.11
-30.02
-28.27
-28.37
-30.43
-35.22
-43.41
-54.85
-68.22
-81.30
-91.81
-98.14
-99.83
-97.42
-91.93
-84.15
-74.20
-61.47
-44.64
-21.73
9.80
52.29
106.57
170.54
238.22
300.66
348.40
374.71
377.98
361.90
333.09
297.31
256.81
210.06
154.43
89.78
20.79
-43.58
-93.46
-121.99
-127.89
-114.85
-88.49
-53.16
-10.77
37.64
88.94
136.50
171.70
187.95
184.69
168.28
149.10
136.19
132.73
134.44
132.84
119.70
90.87
47.36
-6.45
-65.46
-125.87
-185.30
-241.72
-292.47
-334.39
-364.62
-381.57
-385.90
-379.66
-365.26
-344.53
-318.18
-285.76
-246.20
-198.47
-142.38
-79.19
-11.90
54.89
115.52
164.67
198.49
215.45
216.36
203.45
178.78
143.12
96.02
37.53
-29.69
-98.79
-159.52
-201.14
-215.94
-201.94
-163.19
-108.18
-47.23
10.11
56.72
88.48
104.39
106.28
98.14
85.05
71.50
60.33
52.31
46.74
42.46
38.51
34.13
28.73
22.33
15.95
11.56
11.04
14.64
19.89
22.58
19.29
9.82
-1.79
-9.04
-6.70
6.16
25.29
43.11
52.00
47.19
28.10
-1.82
-36.28
-67.59
-88.25
-92.59
-78.63
-49.49
-13.12
19.75
39.30
40.13
23.35
-3.95
-31.51
-49.66
-52.86
-41.18
-19.83
3.30
20.90
29.02
28.23
22.60
17.35
16.25
20.10
26.82
33.13
36.54
36.76
35.38
34.72
35.87
38.01
38.96
36.29
28.57
15.61
-2.15
-24.20
-50.14
-79.06
-108.77
-135.79
-156.19
-166.77
-166.04
-154.30
-132.44
-100.83
-58.84
-6.11
55.50
120.56
180.55
226.37
251.77
255.41
240.34
211.52
173.02
127.01
74.64
18.57
-35.83
-81.31
-111.68
-125.06
-125.19
-120.01
-118.19
-125.47
-142.71
-166.48
-190.87
-209.66
-217.75
-211.35
-188.13
-147.44
-91.31
-25.31
41.31
97.11
131.50
138.74
120.47
85.53
46.86
16.54
1.50
1.86
12.44
26.31
38.13
45.67
49.07
48.88
44.51
34.21
16.58
-7.57
-34.36
-57.75
-71.90
-73.51
-62.86
-43.02
-18.22
8.63
36.95
68.10
103.70
143.97
186.82
228.27
263.68
289.30
303.26
305.63
297.86
282.00
259.97
233.31
203.13
170.53
136.66
102.97
70.89
41.65
15.96
-6.04
-24.66
-40.42
-53.78
-65.01
-74.17
-81.26
-86.38
-89.74
-91.72
-92.70
-92.94
-92.60
-91.68
-90.15
-88.03
-85.42
-82.49
-79.41
-76.30
-73.15
-69.93
-66.58
-63.10
-59.61
-56.28
-53.24
-50.53
-48.04
-45.53
-42.78
-39.68
-36.33
-33.10
-30.39
-28.47
-27.32
-26.53
-25.50
-23.69
-20.88
-17.34
-13.93
-11.63
-11.03
-12.02
-13.74
-14.86
-14.21
-11.39
-7.11
-2.97
-0.75
-1.55
-5.09
-9.75
-13.15
-13.28
-9.73
-3.78
2.05
5.10
3.97
-1.07
-8.50
-16.42
-22.98
-26.29
-24.26
-15.29
0.47
20.09
38.01
48.31
47.60
36.77
20.71
5.51
-4.76
-9.91
-12.84
-17.39
-25.59
-36.59
-47.22
-54.01
-54.63
-48.44
-36.66
-21.45
-5.63
8.71
21.10
32.73
45.59
60.94
77.70
91.38
97.15
90.72
72.07
45.50
19.54
1.64
-5.17
-3.20
1.34
1.76
-5.93
-21.21
-39.16
-52.60
-55.16
-43.69
-20.02
8.77
32.51
41.52
30.90
3.29
-32.40
-65.02
-85.99
-92.50
-87.57
-76.81
-64.17
-51.63
-37.93
-21.36
-2.33
16.14
30.03
36.35
35.11
29.06
22.17
18.12
18.26
21.45
24.94
25.76
22.21
14.55
4.77
-4.54
-10.93
-13.33
-12.15
-8.77
-4.64
-0.94
2.11
5.05
8.62
13.42
19.42
25.98
32.17
37.11
40.35
41.93
42.31
41.96
41.23
40.13
38.41
35.60
31.27
25.04
16.83
6.77
-4.80
-17.37
-30.25
-42.68
-53.84
-62.95
-69.37
-72.47
-71.77
-67.11
-58.61
-46.70
-32.03
-15.44
2.38
19.73
35.51
48.83
59.19
66.43
70.64
72.21
71.64
69.27
65.15
59.48
52.45
44.35
35.67
26.84
18.39
10.62
3.20
-4.57
-13.34
-23.50
-35.03
-46.33
-56.79
-65.45
-71.57
-75.39
-77.77
-79.71
-81.93
-84.46
-86.31
-86.14
-83.63
-77.28
-67.49
-55.63
-43.30
-32.17
-23.84
-19.44
-19.66
-23.83
-29.29
-32.11
-28.21
-15.27
6.29
30.85
51.77
63.89
65.71
59.63
49.91
40.51
33.36
28.14
23.41
18.51
13.86
10.61
9.62
10.60
12.31
13.17
11.92
8.30
3.25
-1.81
-5.62
-7.57
-8.02
-8.08
-8.80
-10.99
-14.82
-19.70
-24.72
-29.06
-32.38
-34.86
-37.02
-39.55
-42.91
-47.26
-52.30
-57.58
-62.68
-67.42
-71.83
-76.01
-80.09
-84.05
-87.63
-90.29
-91.42
-90.38
-86.62
-79.94
-69.96
-56.69
-40.37
-21.48
-0.72
21.02
42.76
63.53
81.72
96.82
108.51
116.74
121.64
123.50
122.72
119.78
115.22
110.07
104.56
98.95
93.55
88.62
84.25
80.44
77.16
74.32
71.90
69.88
68.23
66.96
66.03
65.16
63.92
61.92
58.75
54.19
48.69
42.12
34.67
26.63
17.97
8.54
-1.87
-13.36
-25.66
-38.21
-50.17
-61.04
-69.82
-76.47
-81.48
-85.55
-89.17
-92.21
-93.89
-92.96
-88.15
-78.63
-64.70
-47.59
-29.01
-10.59
6.62
22.36
36.99
50.52
63.91
77.85
92.64
107.57
120.30
126.90
122.92
105.64
76.28
39.55
2.96
-26.14
-43.60
-49.83
-48.81
-45.54
-43.44
-43.08
-42.86
-40.85
-36.41
-30.67
-25.73
-23.30
-24.00
-27.39
-32.69
-39.42
-47.23
-55.16
-61.13
-62.18
-55.79
-41.57
-22.02
-1.93
13.44
20.68
19.61
12.61
3.00
-6.61
-15.19
-22.70
-29.18
-34.15
-36.71
-36.40
-33.81
-30.55
-28.38
-28.55
-31.03
-34.39
-36.55
-35.67
-31.01
-23.21
-14.02
-5.36
1.38
6.06
9.79
14.24
20.74
29.50
39.46
48.72
55.77
59.76
61.22
61.71
62.98
66.38
72.57
81.65
92.28
103.41
112.09
114.08
105.32
83.96
51.87
14.59
-20.61
-47.64
-63.62
-69.69
-69.32
-66.12
-62.32
-58.64
-55.18
-52.36
-51.06
-51.98
-54.93
-58.65
-61.29
-61.49
-58.90
-54.52
-50.23
-48.10
-49.72
-55.54
-64.11
-71.85
-73.84
-65.56
-45.15
-14.86
19.39
50.16
71.67
81.72
82.14
77.26
71.40
66.87
63.72
60.75
57.06
52.82
49.13
46.85
45.93
45.25
43.17
38.30
30.32
20.14
9.02
-0.82
-8.20
-13.07
-16.27
-19.03
-22.29
-26.21
-30.16
-33.04
-33.84
-32.27
-28.77
-24.30
-19.94
-16.42
-13.58
-10.91
-7.54
-2.78
3.42
10.50
17.38
23.16
27.19
29.43
30.33
30.60
31.11
33.05
37.82
46.38
57.93
69.38
75.62
71.36
53.78
24.12
-12.55
-49.58
-81.58
-105.72
-121.22
-127.70
-123.99
-107.78
-79.97
-44.60
-8.61
20.29
36.84
40.59
35.40
27.40
21.87
21.89
27.30
36.80
49.16
63.45
78.40
91.42
98.54
94.75
78.25
50.86
18.08
-12.99
-36.50
-50.01
-54.79
-54.26
-51.49
-47.76
-42.81
-36.08
-28.46
-22.76
-22.83
-31.04
-46.38
-63.84
-75.69
-74.40
-55.92
-21.66
21.51
63.23
92.88
103.24
92.55
64.74
27.70
-9.60
-39.77
-59.12
-67.94
-69.60
-68.37
-67.97
-70.69
-77.04
-85.78
-94.31
-98.97
-94.68
-80.01
-56.17
-27.27
0.92
23.45
37.79
44.43
45.71
44.09
40.53
35.17
28.12
20.40
14.12
11.37
13.06
18.19
24.09
27.43
25.92
19.32
9.64
0.36
-5.21
-5.22
-0.08
7.57
13.84
15.70
12.07
4.51
-3.12
-7.12
-4.89
4.38
19.52
37.78
55.48
68.21
70.69
59.44
33.66
-2.74
-41.02
-70.08
-80.90
-70.38
-42.79
-7.56
25.93
51.30
67.07
75.55
79.91
81.68
80.54
75.47
66.80
57.07
49.78
47.84
52.29
61.76
73.18
82.80
86.77
82.03
66.77
41.28
8.15
-27.53
-60.03
-85.06
-101.62
-112.16
-120.64
-129.62
-136.79
-138.15
-128.21
-104.03
-67.93
-26.92
10.74
39.61
59.00
71.45
79.14
81.16
73.14
50.34
11.93
-36.63
-85.54
-124.02
-145.22
-149.24
-141.73
-130.58
-122.38
-120.33
-124.39
-132.39
-140.89
-145.86
-143.22
-129.64
-103.88
-68.22
-28.30
8.71
36.97
54.19
61.61
62.42
59.78
55.94
51.59
46.45
40.80
36.34
35.62
40.37
50.36
63.41
77.50
90.56
101.28
109.87
118.20
129.38
146.44
171.90
207.60
250.59
296.48
337.89
365.81
372.20
353.16
309.85
248.32
169.69
84.32
5.63
-56.64
-99.69
-126.23
-139.62
-142.58
-137.02
-125.97
-111.31
-95.93
-82.87
-73.69
-69.93
-68.88
-68.25
-66.79
-65.89
-65.99
-68.69
-75.78
-84.60
-93.91
-101.57
-106.09
-106.27
-106.95
-108.04
-109.82
-112.87
-117.14
-122.13
-126.00
-127.75
-119.66
-102.26
-78.33
-52.66
-29.64
-11.78
0.27
8.14
11.28
12.03
10.05
4.97
-4.36
-19.05
-39.86
-67.54
-97.10
-125.77
-149.34
-163.55
-162.77
-143.43
-106.49
-58.12
-8.07
34.37
62.88
77.27
80.63
77.92
72.83
66.77
59.62
51.25
42.62
34.96
29.99
27.82
27.36
26.87
24.68
20.29
14.52
9.63
7.00
8.09
12.99
20.73
29.76
38.63
46.51
53.36
59.74
64.50
70.08
76.68
83.34
88.83
92.03
92.28
89.53
84.28
77.32
67.11
55.35
43.59
32.80
23.27
14.86
7.29
0.34
-5.93
-10.97
-13.91
-14.60
-13.28
-10.64
-7.71
-5.45
-4.44
-4.65
-5.33
-4.44
-1.45
3.96
11.91
22.27
34.40
46.84
57.17
61.25
57.10
44.40
25.44
4.41
-14.22
-27.53
-35.07
-38.39
-39.69
-40.01
-39.42
-37.13
-32.60
-26.32
-19.77
-14.66
-11.86
-11.32
-11.95
-12.66
-12.72
-12.12
-11.41
-11.28
-12.18
-14.04
-16.30
-18.02
-18.48
-17.35
-14.81
-11.49
-8.16
-5.51
-3.88
-3.33
-3.61
-4.44
-5.59
-6.87
-8.11
-9.10
-9.63
-9.45
-8.47
-6.73
-4.50
-2.19
-0.26
0.97
1.39
1.21
0.81
0.64
1.08
2.30
4.32
6.93
9.80
12.61
14.94
16.41
16.79
16.11
14.86
13.75
13.43
14.04
15.06
15.56
14.68
12.23
8.80
5.46
3.08
1.88
1.32
0.56
-0.98
-3.28
-5.75
-7.69
-8.78
-9.25
-9.63
-10.52
-12.18
-14.48
-16.95
-19.12
-20.65
-21.52
-21.99
-22.55
-23.71
-25.79
-28.77
-32.26
-35.60
-38.02
-38.90
-37.90
-35.01
-30.49
-24.68
-17.90
-10.45
-2.64
5.03
11.76
16.54
18.39
16.86
12.33
6.03
-0.41
-5.63
-9.19
-11.75
-14.62
-18.99
-25.17
-32.36
-38.90
-42.94
-43.07
-38.67
-30.05
-18.33
-5.25
7.09
16.66
22.08
23.05
20.52
16.27
12.21
9.65
8.92
9.51
10.58
11.52
12.17
12.72
13.40
14.19
14.82
14.96
14.50
13.62
12.78
12.38
12.59
13.19
13.68
13.59
12.69
11.12
9.39
8.15
7.95
8.96
10.92
13.23
15.27
16.55
16.88
16.43
15.47
14.28
12.99
11.55
9.89
8.00
5.96
4.01
2.38
1.26
0.72
0.74
1.26
2.25
3.59
5.11
6.58
7.71
8.37
8.60
8.65
8.82
9.39
10.48
12.09
14.20
16.82
19.99
23.71
27.93
32.51
37.26
41.98
46.34
49.90
52.08
52.34
50.34
46.14
40.16
33.03
25.31
17.38
9.35
1.18
-7.16
-15.61
-23.94
-31.80
-38.78
-44.48
-48.60
-51.05
-51.96
-51.71
-50.71
-49.32
-47.64
-45.66
-43.29
-40.55
-37.60
-34.72
-32.12
-29.88
-27.86
-25.79
-23.39
-20.54
-17.28
-13.84
-10.49
-7.55
-5.29
-3.92
-3.53
-4.09
-5.33
-6.70
-7.44
-6.74
-4.08
0.49
6.18
11.68
15.66
17.33
16.77
14.87
12.84
11.61
11.38
11.70
11.84
11.26
9.93
8.25
6.79
5.94
5.75
5.94
6.14
6.08
5.65
4.93
4.06
3.14
2.21
1.23
0.13
-1.12
-2.50
-3.83
-4.84
-5.21
-4.69
-3.22
-1.02
1.44
3.60
5.02
5.56
5.48
5.20
5.16
5.56
6.28
7.05
7.60
7.84
7.89
7.98
8.23
8.55
8.67
8.31
7.39
6.09
4.75
3.64
2.85
2.15
1.18
-0.34
-2.46
-4.91
-7.24
-9.01
-10.00
-10.22
-9.98
-9.63
-9.47
-9.62
-10.05
-10.57
-10.98
-11.10
-10.84
-10.22
-9.33
-8.29
-7.19
-6.09
-5.02
-4.01
-3.08
-2.26
-1.57
-0.96
-0.41
0.11
0.58
0.94
1.12
1.11
1.03
1.07
1.42
2.14
3.04
3.73
3.79
3.02
1.60
0.11
-0.71
-0.30
1.49
4.28
7.41
10.14
11.99
12.77
12.52
11.36
9.42
6.79
3.65
0.30
-2.84
-5.35
-6.99
-7.76
-7.96
-8.05
-8.46
-9.47
-11.04
-12.83
-14.37
-15.23
-15.20
-14.33
-12.95
-11.44
-10.09
-8.95
-7.86
-6.57
-4.87
-2.77
-0.53
1.44
2.76
3.31
3.22
2.82
2.45
2.18
1.87
1.18
-0.21
-2.37
-5.13
-8.12
-11.03
-13.67
-16.00
-17.98
-19.42
-20.00
-19.47
-17.83
-15.44
-12.75
-10.06
-7.22
-3.56
1.70
9.02
18.21
28.42
38.49
47.39
54.60
59.95
63.42
64.76
63.49
59.15
51.71
41.85
30.87
20.36
11.61
5.26
1.16
-1.47
-3.59
-5.99
-9.08
-12.83
-16.90
-20.87
-24.34
-27.12
-29.22
-30.84
-32.19
-33.39
-34.36
-34.77
-34.19
-32.20
-28.57
-23.39
-17.01
-10.03
-3.17
2.89
7.55
10.41
11.27
10.18
7.40
3.41
-1.14
-5.51
-8.95
-10.88
-10.98
-9.26
-6.07
-1.88
2.78
7.49
11.97
16.03
19.43
21.90
23.10
22.81
20.97
17.76
13.54
8.76
3.87
-0.73
-4.63
-7.46
-8.90
-8.83
-7.39
-5.05
-2.38
0.06
1.95
3.29
4.26
5.01
5.55
5.76
5.59
5.26
5.27
6.16
8.08
10.60
12.72
13.30
11.54
7.40
1.60
-4.69
-10.31
-14.47
-16.85
-17.52
-16.79
-15.03
-12.69
-10.19
-7.88
-5.93
-4.33
-2.93
-1.59
-0.26
0.92
1.69
1.75
0.94
-0.74
-2.98
-5.33
-7.26
-8.29
-8.20
-7.02
-5.03
-2.70
-0.50
1.14
1.97
1.93
1.13
-0.20
-1.77
-3.29
-4.52
-5.24
-5.32
-4.68
-3.39
-1.61
0.43
2.42
4.13
5.43
6.32
6.93
7.41
7.90
8.42
8.90
9.25
9.35
9.17
8.77
8.17
7.32
6.17
4.69
3.04
1.57
0.74
1.03
2.63
5.27
8.11
10.04
9.98
7.55
3.12
-2.22
-6.97
-9.82
-10.21
-8.55
-5.88
-3.48
-2.08
-1.88
-2.64
-3.72
-4.25
-3.29
0.10
6.71
16.76
29.78
43.58
54.43
58.50
54.06
42.48
27.27
12.73
0.42
-9.51
-17.65
-24.62
-30.63
-35.02
-37.24
-37.24
-35.56
-33.18
-30.86
-29.12
-28.01
-27.21
-26.15
-24.45
-22.08
-19.31
-16.56
-14.05
-11.83
-9.88
-8.15
-6.64
-5.54
-5.14
-5.56
-6.58
-7.43
-7.16
-5.22
-1.89
1.76
4.26
4.56
2.53
-0.90
-4.22
-6.14
-6.26
-5.37
-4.77
-5.53
-7.76
-10.49
-12.19
-11.46
-7.53
-0.52
8.46
17.79
25.63
30.11
29.65
22.22
7.15
-13.26
-33.53
-47.39
-50.78
-43.48
-28.65
-11.19
5.64
20.18
32.06
41.73
49.48
55.36
59.30
60.15
57.50
51.20
41.36
28.61
14.11
-0.87
-15.14
-27.72
-37.73
-43.81
-45.16
-41.98
-35.59
-26.86
-16.69
-6.07
3.74
11.81
17.93
22.28
25.14
26.74
27.01
25.44
21.52
15.23
7.37
-0.50
-6.79
-10.37
-10.92
-8.83
-5.16
-1.14
2.25
4.53
5.67
5.85
5.28
4.24
3.04
1.91
1.01
0.37
-0.03
-0.29
-0.63
-1.29
-2.39
-3.86
-5.51
-7.02
-8.09
-8.53
-8.32
-7.61
-6.61
-5.50
-4.34
-3.14
-1.86
-0.53
0.74
1.78
2.44
2.68
2.55
2.25
1.95
1.80
1.83
2.00
2.22
2.43
2.60
2.72
2.80
2.84
2.84
2.80
2.74
2.66
2.55
2.36
2.08
1.72
1.39
1.18
1.15
1.28
1.48
1.60
1.53
1.23
0.73
0.10
-0.57
-1.22
-1.77
-2.15
-2.27
-2.05
-1.49
-0.70
0.12
0.67
0.71
0.12
-1.04
-2.54
-4.05
-5.26
-5.94
-5.97
-5.40
-4.32
-2.88
-1.23
0.47
2.05
3.39
4.38
4.96
5.12
4.86
4.22
3.23
2.00
0.64
-0.74
-2.09
-3.38
-4.61
-5.73
-6.59
-7.03
-6.94
-6.40
-5.64
-4.95
-4.50
-4.24
-3.94
-3.32
-2.23
-0.73
0.92
2.45
3.68
4.59
5.34
6.10
7.06
8.29
9.77
11.32
12.65
13.35
13.02
11.41
8.52
4.72
0.65
-2.90
-5.21
-5.82
-4.59
-1.77
2.14
6.43
10.32
13.10
14.26
13.61
11.36
8.05
4.40
1.14
-1.22
-2.49
-2.86
-2.77
-2.74
-3.24
-4.48
-6.37
-8.52
-10.35
-11.24
-10.75
-8.71
-5.33
-1.14
3.15
6.79
9.28
10.41
10.29
9.30
7.86
6.34
4.98
3.93
3.28
3.10
3.42
4.21
5.28
6.41
7.37
8.02
8.33
8.35
8.11
7.61
6.80
5.59
3.90
1.67
-1.08
-4.15
-7.19
-9.74
-11.39
-12.02
-11.83
-11.27
-10.83
-10.68
-10.66
-10.32
-9.22
-7.25
-4.70
-2.15
-0.16
0.97
1.27
1.08
0.75
0.53
0.48
0.50
0.44
0.11
-0.67
-2.06
-4.10
-6.66
-9.37
-11.73
-13.30
-13.90
-13.74
-13.36
-13.29
-13.87
-14.97
-16.10
-16.60
-15.91
-13.78
-10.30
-5.83
-0.92
3.80
7.74
10.48
11.92
12.49
13.08
14.83
18.60
24.44
31.23
36.89
39.03
35.89
27.14
14.12
-0.57
-14.01
-23.97
-29.46
-30.78
-29.06
-25.55
-21.13
-16.25
-11.07
-5.73
-0.51
4.19
8.05
10.95
13.06
14.66
15.99
17.06
17.65
17.42
16.11
13.72
10.64
7.48
4.91
3.43
3.11
3.61
4.22
4.23
3.25
1.45
-0.44
-1.45
-0.77
1.76
5.54
9.46
12.30
13.21
11.90
8.57
3.67
-2.27
-8.62
-14.55
-18.98
-20.78
-19.16
-14.00
-6.04
3.34
12.50
20.00
24.95
27.08
26.63
24.11
20.05
14.90
8.95
2.41
-4.47
-11.39
-18.01
-24.01
-29.17
-33.41
-36.66
-38.86
-39.84
-39.45
-37.66
-34.67
-30.85
-26.67
-22.57
-18.79
-15.45
-12.57
-10.10
-8.06
-6.46
-5.33
-4.65
-4.33
-4.24
-4.21
-4.10
-3.83
-3.43
-2.97
-2.56
-2.25
-2.03
-1.84
-1.58
-1.20
-0.73
-0.28
0.03
0.08
-0.09
-0.35
-0.47
-0.23
0.45
1.50
2.77
4.08
5.31
6.45
7.52
8.53
9.37
9.91
10.02
9.66
8.89
7.88
6.86
6.07
5.64
5.60
5.76
5.84
5.51
4.56
2.99
1.01
-1.02
-2.76
-4.05
-4.94
-5.64
-6.37
-7.33
-8.56
-9.99
-11.46
-12.81
-13.85
-14.39
-14.22
-13.22
-11.53
-9.57
-7.84
-6.74
-6.30
-6.17
-5.78
-4.61
-2.39
0.64
4.07
7.68
11.62
16.23
21.63
27.40
32.64
36.34
37.56
36.10
32.65
28.53
25.00
22.56
20.69
18.21
13.94
7.03
-2.30
-12.77
-22.65
-30.53
-36.02
-39.64
-42.35
-43.20
-41.98
-40.10
-40.68
-46.48
-57.38
-69.61
-77.43
-75.75
-62.64
-40.65
-15.21
7.96
25.34
36.53
43.46
47.81
50.31
50.86
48.89
44.38
38.25
32.06
27.30
24.59
23.46
22.90
21.89
19.54
15.94
11.94
8.63
6.83
6.71
7.67
8.87
9.53
9.21
7.93
6.13
4.40
3.26
2.85
2.91
2.98
2.57
1.40
-0.44
-2.50
-4.17
-4.90
-4.45
-3.01
-1.03
1.01
2.72
4.05
5.08
6.01
6.92
7.79
8.47
8.78
8.67
8.16
7.40
6.56
5.77
5.09
4.55
4.17
3.97
3.97
4.12
4.31
4.32
4.00
3.28
2.22
1.01
-0.16
-1.16
-1.96
-2.61
-3.15
-3.57
-3.86
-4.04
-4.13
-4.19
-4.30
-4.46
-4.67
-4.84
-4.89
-4.78
-4.48
-4.00
-3.38
-2.65
-1.86
-1.07
-0.36
0.20
0.57
0.74
0.78
0.78
0.83
1.00
1.26
1.51
1.62
1.51
1.17
0.66
0.10
-0.40
-0.77
-1.02
-1.19
-1.36
-1.59
-1.87
-2.16
-2.42
-2.63
-2.78
-2.94
-3.14
-3.40
-3.72
-4.07
-4.42
-4.78
-5.16
-5.62
-6.18
-6.80
-7.36
-7.74
-7.80
-7.55
-7.09
-6.62
-6.34
-6.32
-6.46
-6.56
-6.43
-6.02
-5.41
-4.78
-4.28
-3.98
-3.80
-3.65
-3.44
-3.17
-2.89
-2.66
-2.50
-2.33
-2.05
-1.57
-0.89
-0.13
0.52
0.86
0.79
0.32
-0.43
-1.20
-1.76
-1.93
-1.67
-1.08
-0.39
0.10
0.16
-0.25
-1.02
-1.85
-2.46
-2.69
-2.61
-2.42
-2.32
-2.39
-2.53
-2.52
-2.18
-1.46
-0.48
0.56
1.47
2.22
2.87
3.55
4.35
5.26
6.15
6.88
7.34
7.52
7.48
7.34
7.20
7.11
7.03
6.86
6.53
5.97
5.22
4.41
3.69
3.21
3.05
3.17
3.45
3.69
3.70
3.37
2.69
1.76
0.76
-0.08
-0.62
-0.79
-0.67
-0.42
-0.27
-0.37
-0.77
-1.35
-1.92
-2.27
-2.27
-1.92
-1.28
-0.51
0.30
1.08
1.81
2.48
3.02
3.36
3.43
3.23
2.85
2.42
2.06
1.81
1.65
1.52
1.37
1.24
1.18
1.25
1.41
1.56
1.59
1.42
1.10
0.74
0.46
0.31
0.23
0.12
-0.12
-0.50
-0.93
-1.31
-1.57
-1.75
-1.94
-2.24
-2.67
-3.15
-3.53
-3.69
-3.53
-3.07
-2.36
-1.53
-0.67
0.17
0.92
1.57
2.09
2.48
2.76
2.93
3.02
3.04
2.99
2.89
2.72
2.51
2.27
2.05
1.89
1.89
2.10
2.51
3.05
3.57
3.93
4.06
3.97
3.74
3.49
3.28
3.09
2.85
2.52
2.11
1.64
1.17
0.72
0.24
-0.30
-0.92
-1.55
-2.12
-2.55
-2.80
-2.84
-2.68
-2.35
-1.90
-1.41
-1.02
-0.87
-1.02
-1.42
-1.92
-2.33
-2.50
-2.44
-2.22
-1.99
-1.86
-1.86
-1.91
-1.93
-1.84
-1.63
-1.33
-1.03
-0.79
-0.64
-0.57
-0.46
-0.13
0.71
2.34
4.98
8.68
13.29
18.48
23.79
28.78
33.03
36.22
38.10
38.54
37.50
35.11
31.60
27.28
22.43
17.24
11.81
6.12
0.17
-5.94
-12.05
-17.86
-23.04
-27.29
-30.38
-32.20
-32.78
-32.24
-30.74
-28.37
-25.20
-21.27
-16.72
-11.81
-6.94
-2.54
1.06
3.75
5.63
6.95
7.99
8.97
9.96
10.93
11.74
12.18
12.08
11.35
10.01
8.27
6.39
4.61
3.06
1.77
0.64
-0.40
-1.36
-2.23
-3.00
-3.76
-4.70
-6.01
-7.77
-9.85
-11.96
-13.72
-14.89
-15.39
-15.31
-14.82
-14.06
-13.07
-11.82
-10.31
-8.61
-6.83
-5.10
-3.50
-2.00
-0.59
0.76
1.95
2.87
3.37
3.40
3.00
2.28
1.41
0.53
-0.28
-1.00
-1.63
-2.19
-2.72
-3.26
-3.87
-4.68
-5.79
-7.31
-9.24
-11.47
-13.77
-15.88
-17.58
-18.79
-19.51
-19.80
-19.69
-19.13
-18.01
-16.24
-13.85
-11.02
-8.03
-5.15
-2.55
-0.30
1.60
3.15
4.28
4.91
5.01
4.64
3.98
3.23
2.53
1.95
1.45
0.92
0.28
-0.52
-1.48
-2.56
-3.68
-4.77
-5.76
-6.66
-7.53
-8.45
-9.49
-10.63
-11.70
-12.48
-12.75
-12.40
-11.42
-9.94
-8.11
-6.05
-3.90
-1.76
0.21
1.90
3.28
4.45
5.57
6.81
8.23
9.78
11.29
12.55
13.41
13.84
13.92
13.79
13.62
13.53
13.50
13.47
13.29
12.87
12.17
11.26
10.22
9.12
7.98
6.76
5.41
3.94
2.43
1.02
-0.15
-0.97
-1.44
-1.67
-1.80
-1.97
-2.22
-2.56
-2.92
-3.30
-3.72
-4.28
-5.00
-5.83
-6.67
-7.39
-8.00
-8.66
-9.59
-10.97
-12.72
-14.57
-16.09
-16.87
-16.72
-15.72
-14.18
-12.42
-10.66
-8.92
-7.06
-4.87
-2.21
0.94
4.50
8.35
12.34
16.27
19.81
22.54
24.12
24.41
23.61
22.22
20.79
19.74
19.15
18.82
18.43
17.78
16.82
15.69
14.51
13.33
12.10
10.72
9.22
7.71
6.38
5.39
4.72
4.24
3.68
2.85
1.65
0.22
-1.20
-2.35
-3.06
-3.35
-3.36
-3.30
-3.35
-3.55
-3.88
-4.23
-4.54
-4.77
-4.93
-4.97
-4.84
-4.49
-3.91
-3.16
-2.37
-1.65
-1.11
-0.77
-0.59
-0.55
-0.62
-0.79
-1.05
-1.36
-1.65
-1.83
-1.88
-1.83
-1.79
-1.87
-2.16
-2.66
-3.28
-3.87
-4.29
-4.46
-4.40
-4.22
-3.99
-3.76
-3.45
-2.94
-2.13
-1.00
0.36
1.78
3.06
4.08
4.77
5.12
5.21
5.14
5.02
4.92
4.88
4.87
4.83
4.71
4.55
4.39
4.28
4.25
4.24
4.20
4.10
4.03
4.11
4.44
4.96
5.47
5.75
5.60
5.05
4.26
3.45
2.77
2.28
1.88
1.49
1.07
0.61
0.14
-0.37
-1.01
-1.88
-2.97
-4.16
-5.23
-5.95
-6.24
-6.13
-5.83
-5.59
-5.64
-6.15
-7.18
-8.73
-10.69
-12.84
-14.87
-16.42
-17.21
-17.04
-15.99
-14.31
-12.35
-10.45
-8.85
-7.61
-6.66
-5.89
-5.18
-4.47
-3.76
-3.04
-2.30
-1.55
-0.84
-0.26
0.07
0.16
0.13
0.28
0.93
2.34
4.53
7.30
10.25
12.94
14.96
16.03
16.02
14.97
13.04
10.54
7.80
5.15
2.82
0.90
-0.60
-1.77
-2.68
-3.41
-4.03
-4.62
-5.26
-6.02
-6.89
-7.82
-8.71
-9.48
-10.06
-10.38
-10.37
-9.96
-9.10
-7.77
-6.09
-4.19
-2.19
-0.20
1.78
3.75
5.68
7.51
9.10
10.34
11.13
11.49
11.46
11.14
10.69
10.27
10.08
10.32
11.07
12.29
13.78
15.24
16.38
17.01
17.10
16.75
16.16
15.52
14.93
14.35
13.66
12.67
11.25
9.42
7.28
5.06
2.94
1.02
-0.71
-2.33
-3.87
-5.32
-6.62
-7.70
-8.61
-9.38
-10.07
-10.64
-10.96
-10.88
-10.35
-9.44
-8.32
-7.24
-6.39
-5.87
-5.64
-5.64
-5.74
-5.82
-5.81
-5.65
-5.32
-4.85
-4.26
-3.55
-2.73
-1.84
-0.91
0.01
0.87
1.63
2.30
2.89
3.41
3.87
4.27
4.59
4.79
4.85
4.71
4.33
3.71
2.91
2.03
1.21
0.51
-0.05
-0.54
-1.06
-1.77
-2.81
-4.26
-6.13
-8.27
-10.49
-12.47
-13.97
-14.91
-15.34
-15.38
-15.10
-14.49
-13.50
-12.17
-10.46
-8.42
-6.14
-3.72
-1.19
1.42
4.10
6.87
9.75
13.03
16.97
21.54
26.34
30.63
33.63
34.82
34.15
31.98
29.16
26.52
24.46
22.97
21.78
20.68
19.60
18.72
16.58
12.41
6.31
-0.68
-7.21
-12.28
-15.54
-17.09
-16.91
-15.52
-13.17
-10.07
-6.60
-3.17
-0.19
2.15
3.49
3.92
3.69
3.33
3.26
3.58
4.13
4.54
4.54
4.05
3.26
2.36
1.67
1.31
1.20
1.15
0.97
0.59
0.05
-0.61
-1.46
-2.57
-4.04
-5.85
-7.88
-9.93
-11.78
-13.31
-14.46
-15.25
-15.65
-15.61
-15.10
-14.19
-13.06
-11.95
-11.09
-10.55
-10.24
-9.97
-9.54
-8.88
-8.08
-7.30
-6.72
-6.42
-6.33
-6.34
-6.32
-6.21
-6.01
-5.77
-5.56
-5.39
-5.33
-5.39
-5.61
-5.99
-6.46
-6.91
-7.19
-7.17
-6.78
-6.03
-5.02
-3.88
-2.75
-1.76
-1.02
-0.56
-0.38
-0.42
-0.58
-0.74
-0.84
-0.87
-0.86
-0.85
-0.91
-1.07
-1.31
-1.61
-1.92
-2.18
-2.34
-2.33
-2.13
-1.73
-1.16
-0.46
0.31
1.09
1.78
2.31
2.61
2.71
2.67
2.59
2.51
2.42
2.27
1.99
1.56
1.03
0.47
-0.06
-0.60
-1.27
-2.24
-3.59
-5.31
-7.22
-9.09
-10.72
-11.95
-12.72
-13.02
-12.89
-12.33
-11.35
-10.00
-8.35
-6.54
-4.68
-2.86
-1.11
0.59
2.26
3.91
5.51
6.99
8.28
9.32
10.08
10.58
10.85
10.93
10.83
10.59
10.23
9.78
9.26
8.72
8.19
7.71
7.26
6.80
6.24
5.49
4.47
3.19
1.73
0.22
-1.19
-2.41
-3.39
-4.19
-4.88
-5.55
-6.23
-6.88
-7.44
-7.81
-7.90
-7.70
-7.22
-6.51
-5.56
-4.29
-2.62
-0.48
2.07
4.82
7.47
9.72
11.42
12.58
13.36
13.93
14.35
14.55
14.33
13.49
12.02
10.07
7.95
5.96
4.23
2.73
1.28
-0.30
-2.02
-3.76
-5.25
-6.21
-6.47
-6.00
-4.90
-3.37
-1.59
0.24
1.98
3.48
4.66
5.46
5.85
5.83
5.45
4.73
3.74
2.57
1.29
0.01
-1.18
-2.21
-3.00
-3.48
-3.61
-3.40
-2.95
-2.40
-1.90
-1.54
-1.33
-1.21
-1.11
-1.00
-0.89
-0.82
-0.81
-0.85
-0.91
-0.94
-0.89
-0.72
-0.43
-0.06
0.29
0.51
0.48
0.18
-0.26
-0.66
-0.86
-0.81
-0.60
-0.40
-0.36
-0.51
-0.81
-1.20
-1.66
-2.22
-2.94
-3.75
-4.53
-5.09
-5.31
-5.19
-4.82
-4.36
-3.89
-3.42
-2.88
-2.17
-1.26
-0.23
0.81
1.73
2.45
2.96
3.25
3.36
3.32
3.20
3.03
2.90
2.82
2.78
2.73
2.61
2.44
2.25
2.12
2.05
1.99
1.84
1.56
1.19
0.85
0.70
0.77
0.95
1.05
0.94
0.57
0.06
-0.45
-0.86
-1.16
-1.43
-1.72
-2.07
-2.43
-2.79
-3.17
-3.64
-4.25
-4.97
-5.66
-6.09
-6.04
-5.40
-4.27
-2.87
-1.51
-0.43
0.30
0.76
1.13
1.54
2.01
2.46
2.74
2.74
2.46
1.98
1.45
1.02
0.77
0.71
0.83
1.08
1.41
1.75
2.06
2.29
2.43
2.48
2.44
2.31
2.10
1.77
1.34
0.85
0.38
0.01
-0.25
-0.39
-0.46
-0.50
-0.55
-0.56
-0.54
-0.44
-0.33
-0.27
-0.39
-0.72
-1.25
-1.83
-2.28
-2.42
-2.13
-1.43
-0.44
0.66
1.68
2.48
3.03
3.35
3.52
3.60
3.64
3.63
3.54
3.36
3.10
2.81
2.54
2.29
2.07
1.82
1.50
1.12
0.72
0.40
0.25
0.27
0.35
0.34
0.13
-0.32
-0.86
-1.33
-1.56
-1.54
-1.35
-1.16
-1.07
-1.11
-1.20
-1.27
-1.29
-1.29
-1.34
-1.45
-1.63
-1.82
-1.98
-2.12
-2.26
-2.46
-2.75
-3.18
-3.76
-4.52
-5.43
-6.39
-7.24
-7.75
-7.77
-7.22
-6.16
-4.74
-3.15
-1.52
0.02
1.42
2.60
3.49
4.00
4.14
4.01
3.78
3.63
3.67
3.90
4.19
4.38
4.35
4.09
3.72
3.40
3.24
3.31
3.55
3.84
4.04
4.07
3.89
3.54
3.10
2.67
2.33
2.14
2.16
2.38
2.73
3.11
3.36
3.37
3.10
2.55
1.82
1.04
0.35
-0.16
-0.47
-0.63
-0.73
-0.89
-1.17
-1.60
-2.10
-2.55
-2.82
-2.82
-2.57
-2.19
-1.87
-1.81
-2.13
-2.84
-3.79
-4.72
-5.38
-5.60
-5.35
-4.73
-3.90
-3.01
-2.18
-1.44
-0.80
-0.23
0.24
0.62
0.88
1.02
1.08
1.10
1.15
1.25
1.40
1.54
1.61
1.58
1.47
1.34
1.23
1.17
1.19
1.26
1.40
1.57
1.70
1.70
1.47
0.96
0.27
-0.45
-1.02
-1.35
-1.44
-1.43
-1.41
-1.43
-1.47
-1.51
-1.54
-1.61
-1.79
-2.10
-2.51
-2.92
-3.26
-3.47
-3.56
-3.59
-3.57
-3.48
-3.29
-2.95
-2.47
-1.89
-1.26
-0.61
0.05
0.73
1.43
2.11
2.70
3.16
3.43
3.50
3.39
3.12
2.77
2.38
2.04
1.83
1.78
1.90
2.17
2.48
2.74
2.87
2.82
2.60
2.27
1.91
1.60
1.40
1.35
1.41
1.51
1.55
1.44
1.13
0.65
0.09
-0.44
-0.83
-1.04
-1.08
-1.00
-0.87
-0.79
-0.79
-0.91
-1.15
-1.48
-1.85
-2.22
-2.55
-2.85
-3.11
-3.36
-3.61
-3.88
-4.16
-4.47
-4.81
-5.18
-5.55
-5.83
-5.92
-5.70
-5.11
-4.17
-2.99
-1.72
-0.55
0.41
1.11
1.61
1.99
2.34
2.68
2.98
3.20
3.28
3.25
3.13
2.99
2.86
2.75
2.65
2.52
2.41
2.36
2.40
2.54
2.74
2.92
2.96
2.84
2.54
2.07
1.52
0.94
0.42
0.02
-0.22
-0.33
-0.35
-0.38
-0.48
-0.69
-1.00
-1.33
-1.62
-1.81
-1.86
-1.79
-1.67
-1.55
-1.51
-1.59
-1.82
-2.18
-2.69
-3.31
-3.99
-4.68
-5.27
-5.64
-5.73
-5.54
-5.10
-4.47
-3.72
-2.87
-1.95
-1.02
-0.16
0.52
0.95
1.13
1.13
1.06
1.03
1.09
1.27
1.51
1.79
2.07
2.37
2.68
2.98
3.22
3.36
3.36
3.23
3.00
2.71
2.38
2.04
1.71
1.42
1.19
1.00
0.81
0.55
0.16
-0.32
-0.80
-1.17
-1.36
-1.39
-1.36
-1.37
-1.48
-1.70
-1.97
-2.28
-2.62
-3.06
-3.61
-4.23
-4.75
-4.99
-4.80
-4.18
-3.24
-2.18
-1.20
-0.40
0.21
0.69
1.07
1.36
1.52
1.52
1.38
1.16
0.99
0.97
1.17
1.57
2.14
2.78
3.37
3.82
4.08
4.14
4.05
3.89
3.73
3.66
3.68
3.76
3.84
3.85
3.73
3.47
3.07
2.54
1.90
1.16
0.33
-0.54
-1.40
-2.20
-2.90
-3.53
-4.12
-4.71
-5.31
-5.87
-6.33
-6.67
-6.89
-7.00
-7.01
-6.87
-6.50
-5.87
-4.97
-3.87
-2.67
-1.46
-0.26
0.88
1.96
2.91
3.71
4.33
4.79
5.14
5.42
5.64
5.81
5.90
5.95
5.94
5.87
5.68
5.34
4.84
4.25
3.70
3.35
3.27
3.44
3.68
3.80
3.66
3.26
2.71
2.20
1.82
1.58
1.41
1.23
1.00
0.78
0.62
0.56
0.54
0.48
0.31
0.03
-0.29
-0.61
-0.91
-1.25
-1.73
-2.37
-3.11
-3.81
-4.35
-4.68
-4.87
-5.04
-5.29
-5.66
-6.08
-6.50
-6.84
-7.11
-7.34
-7.55
-7.74
-7.83
-7.73
-7.39
-6.80
-6.04
-5.22
-4.44
-3.73
-3.09
-2.46
-1.79
-1.10
-0.46
0.02
0.25
0.22
-0.01
-0.29
-0.42
-0.21
0.48
1.70
3.36
5.28
7.23
8.95
10.30
11.18
11.60
11.60
11.24
10.56
9.59
8.40
7.03
5.56
4.07
2.63
1.29
0.09
-0.94
-1.78
-2.43
-2.85
-3.05
-3.06
-2.96
-2.82
-2.72
-2.67
-2.67
-2.68
-2.71
-2.78
-2.93
-3.20
-3.59
-4.02
-4.39
-4.58
-4.51
-4.12
-3.43
-2.49
-1.42
-0.33
0.67
1.51
2.13
2.53
2.76
2.82
2.76
2.60
2.38
2.14
1.95
1.85
1.85
1.94
2.07
2.20
2.30
2.38
2.45
2.52
2.57
2.58
2.54
2.46
2.36
2.28
2.23
2.23
2.30
2.42
2.54
2.57
2.43
2.10
1.62
1.12
0.73
0.52
0.46
0.44
0.30
-0.06
-0.62
-1.30
-1.99
-2.62
-3.20
-3.77
-4.35
-4.91
-5.37
-5.64
-5.67
-5.52
-5.29
-5.11
-5.08
-5.24
-5.58
-6.01
-6.47
-6.86
-7.05
-6.91
-6.31
-5.22
-3.71
-1.95
-0.17
1.44
2.77
3.82
4.67
5.38
6.05
6.71
7.38
8.06
8.67
9.10
9.24
8.96
8.28
7.30
6.21
5.19
4.38
3.78
3.33
2.93
2.53
2.12
1.72
1.36
1.02
0.68
0.33
0.01
-0.19
-0.21
-0.07
0.13
0.28
0.26
0.06
-0.26
-0.59
-0.84
-0.98
-1.05
-1.12
-1.24
-1.48
-1.84
-2.31
-2.86
-3.42
-3.97
-4.47
-4.90
-5.28
-5.59
-5.79
-5.83
-5.68
-5.35
-4.90
-4.39
-3.89
-3.43
-3.01
-2.62
-2.21
-1.77
-1.28
-0.74
-0.17
0.43
1.04
1.71
2.45
3.28
4.18
5.06
5.83
6.37
6.64
6.63
6.38
5.94
5.31
4.50
3.51
2.36
1.11
-0.14
-1.26
-2.12
-2.63
-2.72
-2.40
-1.73
-0.82
0.19
1.17
1.96
2.45
2.52
2.11
1.23
0.04
-1.22
-2.31
-3.02
-3.30
-3.28
-3.18
-3.22
-3.53
-4.12
-4.88
-5.68
-6.46
-7.18
-7.87
-8.55
-9.22
-9.87
-10.43
-10.87
-11.12
-11.09
-10.74
-10.02
-8.91
-7.43
-5.64
-3.64
-1.54
0.49
2.30
3.72
4.70
5.25
5.49
5.58
5.66
5.83
6.11
6.44
6.74
6.94
6.97
6.85
6.65
6.46
6.39
6.48
6.69
6.90
6.99
6.86
6.52
6.05
5.56
5.17
4.89
4.68
4.50
4.36
4.32
4.46
4.85
5.47
6.21
6.96
7.65
8.29
8.87
9.35
9.61
9.46
8.74
7.41
5.56
3.40
1.11
-1.18
-3.39
-5.50
-7.49
-9.26
-10.74
-11.85
-12.56
-12.89
-12.83
-12.34
-11.40
-10.02
-8.28
-6.38
-4.54
-2.92
-1.60
-0.57
0.20
0.74
1.05
1.12
1.05
0.98
1.10
1.52
2.21
3.01
3.72
4.18
4.37
4.38
4.30
4.23
4.13
3.90
3.40
2.56
1.40
0.09
-1.15
-2.08
-2.57
-2.62
-2.37
-2.01
-1.73
-1.61
-1.65
-1.81
-2.05
-2.40
-2.93
-3.65
-4.51
-5.33
-5.90
-6.04
-5.74
-5.16
-4.59
-4.33
-4.56
-5.28
-6.33
-7.50
-8.60
-9.53
-10.25
-10.78
-11.12
-11.23
-11.08
-10.64
-9.90
-8.93
-7.79
-6.57
-5.31
-3.93
-2.31
-0.27
2.29
5.28
8.43
11.36
13.70
15.29
16.15
16.48
16.49
16.29
15.78
14.78
13.13
10.81
8.02
5.08
2.36
0.06
-1.74
-3.17
-4.41
-5.56
-6.64
-7.57
-8.25
-8.67
-8.85
-8.84
-8.60
-7.96
-6.69
-4.63
-1.81
1.55
5.05
8.30
11.03
13.13
14.64
15.57
15.92
15.57
14.41
12.47
9.92
7.11
4.46
2.27
0.62
-0.59
-1.57
-2.45
-3.25
-3.83
-4.02
-3.77
-3.20
-2.57
-2.13
-2.05
-2.26
-2.53
-2.58
-2.19
-1.34
-0.17
1.11
2.23
3.00
3.31
3.17
2.65
1.94
1.27
0.88
0.94
1.55
2.66
4.15
5.84
7.58
9.24
10.72
11.89
12.61
12.76
12.26
11.09
9.34
7.17
4.75
2.25
-0.21
-2.53
-4.63
-6.48
-8.06
-9.42
-10.60
-11.67
-12.61
-13.35
-13.79
-13.83
-13.50
-12.88
-12.11
-11.32
-10.51
-9.66
-8.74
-7.77
-6.87
-6.13
-5.64
-5.39
-5.31
-5.31
-5.31
-5.26
-5.08
-4.70
-4.04
-3.12
-2.07
-1.08
-0.36
-0.03
-0.07
-0.37
-0.84
-1.40
-2.08
-2.97
-4.12
-5.46
-6.84
-8.02
-8.74
-8.87
-8.39
-7.40
-6.10
-4.68
-3.34
-2.24
-1.50
-1.16
-1.20
-1.48
-1.82
-2.01
-1.82
-1.07
0.37
2.49
5.16
8.11
10.97
13.40
15.13
16.09
16.38
16.17
15.66
14.94
14.07
13.04
11.87
10.62
9.34
8.08
6.80
5.49
4.13
2.78
1.55
0.54
-0.18
-0.63
-0.87
-0.92
-0.80
-0.55
-0.23
0.06
0.18
0.07
-0.21
-0.51
-0.62
-0.43
0.03
0.61
1.09
1.32
1.23
0.86
0.31
-0.30
-0.84
-1.21
-1.36
-1.30
-1.11
-0.93
-0.91
-1.13
-1.55
-2.06
-2.47
-2.69
-2.72
-2.68
-2.68
-2.78
-2.92
-3.02
-3.03
-3.00
-3.06
-3.32
-3.76
-4.24
-4.52
-4.44
-3.94
-3.14
-2.23
-1.35
-0.54
0.22
0.96
1.67
2.26
2.61
2.69
2.57
2.41
2.39
2.61
3.03
3.53
3.97
4.27
4.40
4.40
4.36
4.32
4.31
4.30
4.26
4.10
3.76
3.23
2.55
1.81
1.07
0.38
-0.26
-0.89
-1.51
-2.11
-2.64
-3.02
-3.21
-3.18
-2.96
-2.60
-2.22
-1.92
-1.78
-1.81
-1.97
-2.20
-2.45
-2.71
-2.99
-3.24
-3.33
-3.04
-2.20
-0.75
1.17
3.27
5.20
6.65
7.44
7.54
7.02
6.07
4.89
3.68
2.64
1.85
1.34
1.05
0.89
0.73
0.48
0.12
-0.33
-0.75
-1.03
-1.07
-0.87
-0.52
-0.09
0.40
0.98
1.72
2.62
3.53
4.23
4.48
4.19
3.44
2.42
1.36
0.39
-0.49
-1.42
-2.52
-3.90
-5.53
-7.29
-8.99
-10.44
-11.49
-12.10
-12.35
-12.36
-12.27
-12.14
-11.92
-11.54
-10.88
-9.89
-8.61
-7.12
-5.55
-3.98
-2.45
-0.93
0.57
2.06
3.48
4.74
5.75
6.46
6.87
7.07
7.15
7.23
7.41
7.75
8.27
8.97
9.81
10.70
11.54
12.24
12.72
12.95
12.98
12.87
12.70
12.45
12.10
11.56
10.83
10.00
9.26
8.80
8.73
9.02
9.51
9.98
10.26
10.26
9.99
9.48
8.74
7.76
6.51
5.00
3.27
1.40
-0.57
-2.57
-4.56
-6.43
-8.06
-9.34
-10.20
-10.68
-10.92
-11.04
-11.15
-11.24
-11.27
-11.22
-11.11
-11.06
-11.16
-11.50
-12.07
-12.79
-13.57
-14.29
-14.90
-15.32
-15.47
-15.25
-14.60
-13.51
-12.06
-10.40
-8.71
-7.10
-5.62
-4.22
-2.86
-1.50
-0.15
1.12
2.22
3.07
3.60
3.78
3.65
3.32
2.92
2.61
2.48
2.59
2.89
3.28
3.68
4.01
4.21
4.24
4.07
3.73
3.27
2.81
2.43
2.17
2.01
1.83
1.54
1.15
0.75
0.48
0.44
0.64
0.96
1.28
1.48
1.58
1.58
1.51
1.34
0.99
0.44
-0.25
-0.97
-1.57
-1.96
-2.12
-2.16
-2.23
-2.45
-2.88
-3.49
-4.15
-4.71
-5.06
-5.19
-5.19
-5.15
-5.14
-5.09
-4.85
-4.30
-3.46
-2.48
-1.57
-0.90
-0.48
-0.19
0.11
0.52
1.02
1.53
1.93
2.20
2.35
2.43
2.47
2.53
2.61
2.74
2.91
3.09
3.19
3.16
2.94
2.55
2.06
1.56
1.14
0.85
0.67
0.54
0.38
0.11
-0.30
-0.84
-1.47
-2.08
-2.60
-2.95
-3.13
-3.17
-3.16
-3.18
-3.34
-3.71
-4.28
-5.03
-5.85
-6.61
-7.23
-7.69
-8.05
-8.41
-8.83
-9.34
-9.82
-10.14
-10.17
-9.85
-9.22
-8.40
-7.43
-6.33
-5.04
-3.55
-1.93
-0.35
1.00
1.99
2.59
2.89
3.04
3.16
3.29
3.47
3.70
3.97
4.28
4.59
4.77
4.74
4.46
4.06
3.75
3.78
4.34
5.41
6.84
8.34
9.64
10.56
11.06
11.17
10.95
10.41
9.53
8.31
6.80
5.11
3.40
1.85
0.56
-0.43
-1.17
-1.77
-2.38
-3.06
-3.83
-4.61
-5.27
-5.69
-5.81
-5.62
-5.15
-4.45
-3.55
-2.47
-1.27
-0.08
0.98
1.78
2.27
2.54
2.69
2.85
3.08
3.35
3.56
3.65
3.64
3.62
3.75
4.10
4.63
5.20
5.61
5.71
5.51
5.08
4.54
3.99
3.45
2.91
2.38
1.94
1.66
1.58
1.62
1.65
1.53
1.19
0.69
0.13
-0.36
-0.68
-0.79
-0.71
-0.49
-0.25
-0.11
-0.18
-0.49
-0.95
-1.45
-1.84
-2.09
-2.25
-2.45
-2.82
-3.39
-4.14
-4.94
-5.69
-6.27
-6.60
-6.59
-6.19
-5.39
-4.26
-2.95
-1.63
-0.49
0.40
1.01
1.40
1.65
1.84
2.03
2.21
2.37
2.51
2.61
2.69
2.76
2.82
2.87
2.92
2.93
2.89
2.80
2.67
2.53
2.43
2.39
2.39
2.40
2.37
2.26
2.06
1.75
1.36
0.93
0.49
0.07
-0.30
-0.60
-0.82
-0.95
-1.01
-1.01
-0.99
-1.01
-1.16
-1.53
-2.15
-2.97
-3.87
-4.69
-5.29
-5.59
-5.57
-5.27
-4.70
-3.92
-2.97
-1.95
-0.96
-0.12
0.51
0.94
1.22
1.39
1.48
1.47
1.34
1.12
0.86
0.68
0.68
0.93
1.41
2.03
2.67
3.21
3.59
3.75
3.69
3.40
2.93
2.33
1.70
1.12
0.66
0.38
0.26
0.28
0.39
0.51
0.54
0.35
-0.11
-0.80
-1.59
-2.28
-2.72
-2.89
-2.90
-2.94
-3.16
-3.59
-4.12
-4.57
-4.78
-4.64
-4.16
-3.45
-2.64
-1.87
-1.20
-0.62
-0.05
0.56
1.24
1.91
2.44
2.75
2.81
2.69
2.51
2.33
2.18
2.05
1.94
1.91
2.03
2.34
2.79
3.24
3.50
3.45
3.09
2.52
1.90
1.41
1.13
1.12
1.32
1.67
2.10
2.52
2.83
2.94
2.78
2.33
1.66
0.89
0.22
-0.23
-0.42
-0.41
-0.36
-0.39
-0.56
-0.83
-1.12
-1.40
-1.67
-2.01
-2.47
-3.03
-3.63
-4.17
-4.60
-4.92
-5.18
-5.39
-5.52
-5.49
-5.23
-4.75
-4.11
-3.43
-2.83
-2.33
-1.86
-1.34
-0.68
0.08
0.85
1.51
1.99
2.30
2.53
2.76
2.99
3.14
3.12
2.86
2.44
2.00
1.71
1.66
1.83
2.12
2.39
2.54
2.54
2.40
2.17
1.92
1.70
1.52
1.42
1.37
1.33
1.25
1.10
0.88
0.64
0.43
0.30
0.22
0.09
-0.20
-0.71
-1.37
-2.00
-2.39
-2.43
-2.16
-1.81
-1.67
-1.93
-2.60
-3.52
-4.42
-5.09
-5.44
-5.44
-5.13
-4.53
-3.64
-2.50
-1.25
-0.04
0.92
1.54
1.86
2.01
2.16
2.41
2.77
3.14
3.42
3.55
3.51
3.39
3.28
3.26
3.33
3.47
3.61
3.74
3.89
4.07
4.25
4.33
4.22
3.88
3.38
2.89
2.57
2.49
2.60
2.75
2.83
2.75
2.52
2.16
1.69
1.14
0.57
0.12
-0.07
0.00
0.20
0.24
-0.17
-1.17
-2.66
-4.35
-5.88
-6.99
-7.56
-7.67
-7.51
-7.24
-7.00
-6.82
-6.67
-6.41
-5.95
-5.19
-4.13
-2.88
-1.61
-0.47
0.44
1.12
1.63
2.03
2.35
2.56
2.68
2.76
2.92
3.27
3.81
4.44
4.95
5.15
4.96
4.46
3.89
3.48
3.37
3.56
3.93
4.30
4.54
4.56
4.36
3.94
3.36
2.69
2.02
1.46
1.07
0.86
0.77
0.70
0.57
0.29
-0.14
-0.67
-1.23
-1.75
-2.15
-2.45
-2.65
-2.80
-2.93
-3.06
-3.19
-3.25
-3.19
-2.97
-2.64
-2.24
-1.83
-1.49
-1.23
-1.03
-0.89
-0.80
-0.81
-0.96
-1.31
-1.87
-2.59
-3.32
-3.93
-4.26
-4.27
-3.96
-3.42
-2.77
-2.10
-1.46
-0.89
-0.39
0.00
0.29
0.47
0.61
0.79
1.08
1.46
1.90
2.28
2.55
2.73
2.89
3.15
3.55
4.06
4.52
4.78
4.73
4.38
3.84
3.23
2.66
2.18
1.76
1.39
1.03
0.71
0.40
0.11
-0.22
-0.61
-1.04
-1.47
-1.83
-2.08
-2.25
-2.45
-2.79
-3.31
-3.95
-4.58
-5.05
-5.25
-5.17
-4.93
-4.68
-4.57
-4.69
-4.99
-5.37
-5.69
-5.80
-5.63
-5.14
-4.34
-3.30
-2.07
-0.78
0.47
1.53
2.32
2.80
3.06
3.20
3.37
3.66
4.11
4.69
5.35
6.02
6.67
7.24
7.69
7.94
7.91
7.54
6.83
5.88
4.82
3.79
2.93
2.28
1.84
1.57
1.42
1.34
1.32
1.34
1.37
1.41
1.50
1.68
1.96
2.29
2.58
2.72
2.63
2.32
1.87
1.40
1.00
0.64
0.24
-0.34
-1.18
-2.28
-3.53
-4.77
-5.86
-6.69
-7.29
-7.71
-8.00
-8.16
-8.10
-7.74
-7.07
-6.21
-5.34
-4.68
-4.32
-4.20
-4.15
-3.93
-3.40
-2.52
-1.42
-0.25
0.84
1.71
2.32
2.64
2.69
2.50
2.18
1.86
1.70
1.82
2.22
2.85
3.54
4.14
4.56
4.77
4.81
4.74
4.60
4.42
4.19
3.95
3.70
3.46
3.22
2.96
2.63
2.22
1.73
1.17
0.56
-0.11
-0.83
-1.59
-2.36
-3.09
-3.70
-4.14
-4.31
-4.18
-3.74
-3.08
-2.33
-1.69
-1.33
-1.41
-1.97
-2.99
-4.40
-6.05
-7.70
-9.04
-9.79
-9.73
-8.85
-7.31
-5.45
-3.60
-2.03
-0.82
0.04
0.67
1.17
1.59
1.94
2.22
2.40
2.49
2.52
2.47
2.33
2.08
1.71
1.28
0.89
0.68
0.75
1.11
1.67
2.28
2.80
3.14
3.31
3.35
3.30
3.18
2.97
2.67
2.29
1.90
1.56
1.32
1.16
1.02
0.85
0.62
0.38
0.15
-0.05
-0.28
-0.62
-1.09
-1.68
-2.28
-2.75
-3.06
-3.25
-3.48
-3.87
-4.46
-5.17
-5.79
-6.06
-5.84
-5.12
-4.02
-2.76
-1.50
-0.35
0.66
1.52
2.24
2.77
3.07
3.14
2.98
2.64
2.19
1.73
1.35
1.11
1.08
1.27
1.65
2.15
2.67
3.13
3.47
3.63
3.60
3.41
3.13
2.87
2.74
2.75
2.83
2.87
2.76
2.48
2.09
1.66
1.22
0.75
0.23
-0.33
-0.88
-1.28
-1.48
-1.47
-1.39
-1.40
-1.67
-2.25
-3.07
-3.96
-4.74
-5.21
-5.26
-4.85
-4.04
-2.94
-1.72
-0.56
0.45
1.23
1.82
2.22
2.45
2.49
2.33
2.03
1.68
1.38
1.21
1.16
1.17
1.15
1.04
0.85
0.64
0.47
0.41
0.46
0.59
0.73
0.78
0.71
0.49
0.17
-0.16
-0.43
-0.64
-0.83
-1.06
-1.39
-1.77
-2.13
-2.33
-2.28
-1.87
-1.02
0.34
2.21
4.52
6.98
9.20
10.78
11.48
11.36
10.70
9.96
9.47
9.40
9.68
10.07
10.32
10.24
9.75
8.87
7.73
6.54
5.56
5.02
5.06
5.65
6.67
7.99
9.60
11.55
13.89
16.46
18.83
20.39
20.58
19.16
16.31
12.55
8.45
4.42
0.53
-3.28
-7.10
-10.82
-14.17
-16.81
-18.58
-19.59
-20.12
-20.55
-21.09
-21.74
-22.31
-22.59
-22.50
-22.13
-21.70
-21.42
-21.39
-21.50
-21.52
-21.21
-20.40
-19.08
-17.39
-15.52
-13.66
-11.95
-10.45
-9.21
-8.25
-7.57
-7.13
-6.87
-6.60
-6.13
-5.24
-3.78
-1.71
0.87
3.74
6.62
9.23
11.34
12.83
13.66
13.90
13.63
12.99
12.10
11.08
10.01
8.91
7.77
6.54
5.21
3.74
2.19
0.62
-0.86
-2.12
-3.07
-3.67
-3.96
-4.04
-4.03
-4.01
-4.00
-3.96
-3.81
-3.50
-3.07
-2.59
-2.16
-1.86
-1.72
-1.77
-2.00
-2.41
-3.01
-3.80
-4.75
-5.82
-6.94
-7.98
-8.77
-9.18
-9.14
-8.69
-7.98
-7.21
-6.57
-6.11
-5.77
-5.41
-4.93
-4.29
-3.53
-2.75
-1.98
-1.22
-0.40
0.56
1.67
2.91
4.25
5.71
7.30
9.03
10.79
12.45
13.79
14.68
15.08
15.05
14.72
14.22
13.65
13.07
12.51
12.00
11.50
10.95
10.27
9.39
8.31
7.09
5.84
4.67
3.67
2.84
2.18
1.62
1.10
0.52
-0.23
-1.16
-2.22
-3.28
-4.16
-4.78
-5.14
-5.31
-5.40
-5.42
-5.33
-5.06
-4.58
-3.92
-3.20
-2.58
-2.19
-2.07
-2.18
-2.41
-2.63
-2.75
-2.70
-2.49
-2.17
-1.80
-1.41
-1.02
-0.61
-0.19
0.19
0.47
0.58
0.50
0.24
-0.16
-0.63
-1.07
-1.39
-1.49
-1.35
-1.04
-0.70
-0.46
-0.44
-0.60
-0.83
-1.00
-1.04
-0.95
-0.81
-0.68
-0.61
-0.63
-0.73
-0.95
-1.33
-1.85
-2.42
-2.87
-3.04
-2.78
-2.08
-1.05
0.09
1.08
1.75
2.01
1.92
1.59
1.15
0.69
0.24
-0.20
-0.61
-0.93
-1.09
-1.03
-0.77
-0.39
0.01
0.35
0.65
0.95
1.29
1.66
1.99
2.21
2.26
2.16
1.95
1.70
1.42
1.11
0.72
0.27
-0.19
-0.61
-0.96
-1.28
-1.62
-2.03
-2.49
-2.99
-3.45
-3.88
-4.27
-4.64
-4.99
-5.27
-5.41
-5.34
-5.01
-4.44
-3.60
-2.54
-1.32
-0.03
1.19
2.22
2.99
3.48
3.74
3.81
3.75
3.59
3.41
3.30
3.34
3.54
3.77
3.88
3.72
3.28
2.67
2.10
1.74
1.66
1.83
2.14
2.53
2.97
3.45
3.97
4.49
4.92
5.24
5.46
5.59
5.69
5.71
5.63
5.41
5.04
4.52
3.87
3.14
2.35
1.55
0.80
0.15
-0.38
-0.79
-1.14
-1.46
-1.77
-2.04
-2.21
-2.31
-2.36
-2.45
-2.66
-3.05
-3.62
-4.36
-5.23
-6.16
-7.05
-7.73
-8.00
-7.69
-6.72
-5.21
-3.37
-1.55
-0.01
1.08
1.71
1.99
2.08
2.14
2.27
2.49
2.73
2.91
2.95
2.83
2.61
2.42
2.35
2.45
2.63
2.76
2.71
2.44
2.03
1.65
1.43
1.46
1.68
1.98
2.21
2.31
2.25
2.09
1.89
1.73
1.62
1.54
1.47
1.38
1.27
1.18
1.13
1.12
1.12
1.11
1.03
0.84
0.51
0.00
-0.67
-1.46
-2.26
-2.96
-3.52
-3.96
-4.39
-4.92
-5.60
-6.32
-6.86
-6.97
-6.48
-5.39
-3.91
-2.30
-0.83
0.40
1.39
2.24
3.04
3.84
4.57
5.16
5.53
5.65
5.58
5.39
5.17
4.98
4.86
4.78
4.69
4.55
4.31
4.01
3.70
3.44
3.25
3.05
2.69
2.10
1.23
0.20
-0.82
-1.67
-2.26
-2.62
-2.85
-3.11
-3.44
-3.86
-4.27
-4.60
-4.82
-4.94
-5.06
-5.23
-5.50
-5.85
-6.21
-6.51
-6.66
-6.61
-6.34
-5.85
-5.18
-4.38
-3.52
-2.66
-1.87
-1.20
-0.64
-0.16
0.32
0.86
1.47
2.08
2.58
2.86
2.92
2.81
2.69
2.68
2.83
3.10
3.37
3.54
3.54
3.38
3.14
2.89
2.72
2.68
2.77
2.95
3.16
3.28
3.24
3.03
2.64
2.15
1.62
1.13
0.68
0.26
-0.15
-0.56
-0.96
-1.28
-1.51
-1.64
-1.74
-1.88
-2.12
-2.44
-2.81
-3.16
-3.54
-4.01
-4.69
-5.59
-6.60
-7.47
-7.96
-7.85
-7.11
-5.85
-4.28
-2.64
-1.14
0.11
1.06
1.73
2.22
2.63
3.03
3.45
3.81
4.02
4.02
3.84
3.61
3.49
3.55
3.76
4.00
4.09
3.94
3.57
3.11
2.72
2.50
2.50
2.65
2.86
3.00
3.01
2.86
2.57
2.18
1.76
1.35
0.99
0.73
0.55
0.44
0.34
0.13
-0.27
-0.87
-1.60
-2.32
-2.85
-3.15
-3.27
-3.34
-3.54
-3.92
-4.46
-5.05
-5.59
-6.04
-6.35
-6.51
-6.46
-6.10
-5.38
-4.30
-2.95
-1.48
-0.05
1.19
2.15
2.77
3.04
3.02
2.83
2.58
2.41
2.35
2.38
2.40
2.36
2.23
2.06
1.92
1.90
2.00
2.20
2.41
2.58
2.66
2.66
2.57
2.41
2.19
1.93
1.67
1.45
1.32
1.29
1.33
1.36
1.31
1.13
0.85
0.54
0.25
0.01
-0.21
-0.47
-0.79
-1.16
-1.55
-1.89
-2.21
-2.55
-2.97
-3.50
-4.07
-4.50
-4.58
-4.13
-3.09
-1.58
0.18
1.91
3.38
4.50
5.27
5.82
6.26
6.65
7.02
7.35
7.60
7.79
7.94
8.07
8.19
8.27
8.27
8.13
7.80
7.25
6.51
5.65
4.81
4.08
3.49
3.00
2.44
1.73
0.83
-0.15
-1.04
-1.72
-2.16
-2.49
-2.87
-3.42
-4.12
-4.84
-5.44
-5.86
-6.12
-6.33
-6.60
-7.00
-7.52
-8.09
-8.65
-9.16
-9.61
-10.00
-10.35
-10.64
-10.87
-11.00
-10.98
-10.75
-10.26
-9.49
-8.45
-7.17
-5.74
-4.23
-2.80
-1.58
-0.70
-0.22
-0.06
-0.06
-0.03
0.18
0.55
0.97
1.30
1.47
1.53
1.64
1.94
2.47
3.15
3.80
4.23
4.37
4.26
4.00
3.70
3.42
3.15
2.88
2.62
2.41
2.32
2.35
2.47
2.58
2.60
2.50
2.30
2.06
1.80
1.53
1.26
0.98
0.74
0.54
0.38
0.15
-0.29
-1.02
-2.05
-3.25
-4.41
-5.34
-5.94
-6.16
-6.04
-5.63
-4.93
-3.95
-2.71
-1.31
0.09
1.32
2.28
2.95
3.37
3.58
3.62
3.48
3.15
2.70
2.27
2.02
2.07
2.37
2.80
3.14
3.22
3.03
2.66
2.27
2.01
1.92
1.95
2.01
2.03
1.96
1.79
1.55
1.27
1.00
0.80
0.71
0.76
0.86
0.90
0.75
0.37
-0.18
-0.77
-1.25
-1.54
-1.67
-1.79
-2.06
-2.59
-3.40
-4.36
-5.32
-6.12
-6.64
-6.89
-6.88
-6.64
-6.15
-5.38
-4.29
-2.93
-1.45
-0.03
1.15
2.00
2.57
2.96
3.28
3.57
3.78
3.86
3.78
3.55
3.26
3.00
2.85
2.81
2.85
2.93
3.02
3.13
3.28
3.46
3.63
3.70
3.59
3.26
2.76
2.20
1.75
1.52
1.52
1.65
1.74
1.66
1.33
0.81
0.23
-0.24
-0.51
-0.54
-0.42
-0.32
-0.39
-0.71
-1.28
-1.99
-2.69
-3.31
-3.80
-4.19
-4.51
-4.80
-5.05
-5.28
-5.53
-5.81
-6.13
-6.39
-6.43
-6.09
-5.30
-4.12
-2.71
-1.28
-0.02
0.98
1.70
2.17
2.45
2.60
2.69
2.78
2.92
3.11
3.31
3.44
3.42
3.23
2.91
2.53
2.23
2.08
2.12
2.29
2.48
2.59
2.55
2.38
2.13
1.90
1.72
1.64
1.63
1.67
1.74
1.82
1.87
1.83
1.63
1.23
0.69
0.12
-0.34
-0.65
-0.84
-1.06
-1.48
-2.18
-3.12
-4.17
-5.11
-5.75
-5.96
-5.69
-4.95
-3.83
-2.49
-1.12
0.09
1.02
1.64
2.00
2.22
2.42
2.72
3.13
3.59
3.97
4.10
3.88
3.31
2.55
1.81
1.32
1.21
1.47
1.97
2.53
3.01
3.32
3.47
3.46
3.31
3.06
2.72
2.36
2.03
1.72
1.41
1.04
0.58
0.02
-0.57
-1.10
-1.51
-1.82
-2.09
-2.39
-2.78
-3.20
-3.56
-3.81
-3.93
-3.98
-4.08
-4.30
-4.70
-5.25
-5.91
-6.62
-7.28
-7.78
-8.01
-7.83
-7.19
-6.11
-4.72
-3.22
-1.79
-0.58
0.36
1.05
1.57
1.98
2.34
2.65
2.83
2.87
2.78
2.63
2.55
2.62
2.83
3.10
3.30
3.39
3.41
3.45
3.56
3.73
3.87
3.87
3.68
3.36
3.02
2.76
2.62
2.57
2.55
2.49
2.39
2.23
2.00
1.68
1.26
0.74
0.17
-0.37
-0.81
-1.08
-1.15
-1.04
-0.82
-0.65
-0.68
-1.02
-1.66
-2.47
-3.24
-3.78
-4.03
-4.10
-4.19
-4.48
-5.05
-5.83
-6.64
-7.27
-7.59
-7.53
-7.07
-6.27
-5.17
-3.90
-2.56
-1.29
-0.20
0.70
1.44
2.06
2.62
3.11
3.50
3.76
3.87
3.84
3.68
3.45
3.21
3.01
2.91
2.97
3.17
3.47
3.76
3.91
3.83
3.52
3.05
2.57
2.18
1.97
1.90
1.87
1.76
1.51
1.11
0.65
0.25
-0.01
-0.08
-0.01
0.08
0.07
-0.14
-0.57
-1.18
-1.85
-2.49
-3.00
-3.34
-3.51
-3.52
-3.48
-3.52
-3.77
-4.33
-5.16
-6.07
-6.78
-7.01
-6.57
-5.50
-3.98
-2.31
-0.78
0.43
1.26
1.77
2.09
2.36
2.68
3.07
3.48
3.81
3.98
3.95
3.77
3.54
3.33
3.23
3.24
3.37
3.60
3.92
4.26
4.52
4.59
4.40
3.96
3.36
2.72
2.16
1.74
1.46
1.30
1.23
1.21
1.17
1.02
0.68
0.15
-0.51
-1.15
-1.60
-1.77
-1.69
-1.47
-1.29
-1.30
-1.61
-2.22
-3.05
-3.94
-4.74
-5.32
-5.63
-5.70
-5.64
-5.55
-5.53
-5.59
-5.67
-5.67
-5.45
-4.94
-4.13
-3.05
-1.79
-0.44
0.91
2.20
3.37
4.38
5.17
5.70
5.94
5.90
5.64
5.19
4.62
3.94
3.17
2.33
1.46
0.64
-0.04
-0.52
-0.76
-0.79
-0.66
-0.39
-0.04
0.35
0.71
0.95
1.01
0.88
0.62
0.34
0.14
0.08
0.17
0.34
0.51
0.61
0.61
0.52
0.35
0.17
-0.04
-0.29
-0.61
-1.07
-1.69
-2.43
-3.18
-3.84
-4.31
-4.62
-4.86
-5.17
-5.62
-6.20
-6.79
-7.22
-7.29
-6.91
-6.01
-4.67
-3.03
-1.30
0.33
1.67
2.68
3.36
3.82
4.16
4.39
4.46
4.30
3.87
3.22
2.55
2.06
1.92
2.14
2.61
3.14
3.57
3.77
3.71
3.41
2.89
2.20
1.40
0.58
-0.19
-0.82
-1.31
-1.71
-2.11
-2.57
-3.09
-3.60
-4.00
-4.22
-4.26
-4.20
-4.10
-4.00
-3.89
-3.71
-3.46
-3.15
-2.88
-2.72
-2.76
-3.04
-3.54
-4.21
-4.94
-5.60
-6.01
-6.03
-5.59
-4.73
-3.56
-2.23
-0.84
0.57
2.00
3.45
4.90
6.27
7.46
8.39
9.06
9.48
9.72
9.81
9.78
9.64
9.44
9.25
9.16
9.19
9.26
9.24
8.92
8.11
6.69
4.68
2.22
-0.48
-3.13
-5.48
-7.30
-8.46
-8.89
-8.63
-7.80
-6.59
-5.21
-3.85
-2.60
-1.49
-0.52
0.33
1.05
1.58
1.83
1.76
1.41
0.89
0.34
-0.16
-0.57
-0.95
-1.39
-1.94
-2.61
-3.37
-4.19
-5.04
-5.87
-6.59
-7.04
-7.06
-6.56
-5.56
-4.28
-3.04
-2.11
-1.62
-1.49
-1.51
-1.44
-1.16
-0.66
-0.12
0.29
0.49
0.51
0.52
0.73
1.24
2.03
2.95
3.80
4.43
4.80
4.90
4.80
4.58
4.43
4.63
5.56
7.47
10.38
13.89
17.28
19.77
20.78
20.18
18.24
15.48
12.36
9.18
6.04
3.00
0.18
-2.21
-4.02
-5.25
-6.09
-6.85
-7.77
-8.98
-10.40
-11.84
-13.10
-14.03
-14.58
-14.75
-14.58
-14.16
-13.53
-12.70
-11.63
-10.22
-8.36
-6.04
-3.40
-0.68
1.82
3.87
5.34
6.25
6.73
6.91
6.88
6.73
6.48
6.16
5.78
5.35
4.87
4.33
3.70
3.00
2.28
1.61
1.07
0.73
0.61
0.66
0.80
0.93
0.94
0.82
0.62
0.43
0.34
0.41
0.57
0.71
0.70
0.44
-0.08
-0.85
-1.81
-2.90
-4.06
-5.24
-6.41
-7.53
-8.62
-9.72
-10.82
-11.87
-12.73
-13.24
-13.23
-12.59
-11.35
-9.65
-7.69
-5.65
-3.69
-1.85
-0.15
1.43
2.81
3.83
4.35
4.30
3.74
2.92
2.10
1.48
1.09
0.81
0.49
0.01
-0.56
-1.06
-1.26
-1.01
-0.27
0.84
2.13
3.41
4.52
5.36
5.92
6.17
6.12
5.78
5.14
4.26
3.21
2.11
1.08
0.24
-0.32
-0.54
-0.45
-0.10
0.39
0.93
1.45
1.92
2.37
2.80
3.23
3.61
3.89
4.01
3.91
3.56
2.94
2.08
1.08
0.15
-0.48
-0.56
0.01
1.15
2.60
4.03
5.13
5.76
5.90
5.70
5.31
4.87
4.47
4.21
4.13
4.28
4.60
4.99
5.30
5.44
5.36
5.12
4.82
4.55
4.35
4.25
4.25
4.34
4.48
4.58
4.51
4.16
3.53
2.75
2.00
1.48
1.24
1.22
1.29
1.29
1.15
0.88
0.53
0.15
-0.25
-0.70
-1.19
-1.69
-2.14
-2.47
-2.66
-2.75
-2.82
-2.94
-3.19
-3.56
-4.03
-4.55
-5.09
-5.65
-6.25
-6.90
-7.51
-7.92
-7.96
-7.49
-6.54
-5.24
-3.81
-2.44
-1.27
-0.36
0.30
0.73
0.99
1.14
1.29
1.57
2.00
2.58
3.19
3.72
4.12
4.43
4.71
5.01
5.32
5.54
5.58
5.38
4.93
4.28
3.53
2.74
1.98
1.31
0.73
0.25
-0.12
-0.43
-0.70
-0.97
-1.33
-1.87
-2.69
-3.85
-5.34
-7.03
-8.70
-10.14
-11.14
-11.64
-11.67
-11.37
-10.92
-10.47
-10.08
-9.73
-9.30
-8.65
-7.67
-6.33
-4.68
-2.83
-0.95
0.80
2.32
3.54
4.45
5.03
5.34
5.43
5.38
5.29
5.22
5.20
5.19
5.13
4.99
4.76
4.50
4.28
4.10
3.94
3.72
3.43
3.11
2.86
2.78
2.89
3.12
3.35
3.48
3.43
3.20
2.81
2.33
1.81
1.33
0.96
0.71
0.60
0.56
0.55
0.53
0.50
0.45
0.34
0.09
-0.36
-1.03
-1.83
-2.61
-3.19
-3.52
-3.63
-3.65
-3.74
-4.02
-4.53
-5.27
-6.12
-6.90
-7.42
-7.46
-6.93
-5.86
-4.42
-2.85
-1.39
-0.15
0.84
1.61
2.20
2.63
2.86
2.91
2.82
2.68
2.61
2.64
2.78
2.98
3.19
3.41
3.66
3.98
4.39
4.83
5.20
5.37
5.27
4.89
4.29
3.58
2.88
2.32
1.98
1.85
1.89
1.96
1.90
1.62
1.08
0.36
-0.44
-1.20
-1.88
-2.44
-2.90
-3.23
-3.39
-3.39
-3.29
-3.22
-3.33
-3.73
-4.41
-5.29
-6.17
-6.88
-7.25
-7.18
-6.61
-5.57
-4.19
-2.62
-1.08
0.23
1.18
1.73
1.94
1.95
1.88
1.88
2.00
2.26
2.58
2.83
2.90
2.73
2.39
2.05
1.93
2.17
2.74
3.47
4.12
4.47
4.46
4.15
3.72
3.31
2.97
2.67
2.33
1.90
1.38
0.88
0.44
0.08
-0.26
-0.69
-1.27
-1.99
-2.76
-3.45
-3.99
-4.33
-4.50
-4.50
-4.36
-4.14
-3.91
-3.79
-3.89
-4.23
-4.73
-5.21
-5.52
-5.57
-5.42
-5.16
-4.82
-4.35
-3.58
-2.34
-0.58
1.54
3.74
5.64
6.95
7.53
7.35
6.47
4.99
3.06
0.87
-1.34
-3.35
-5.04
-6.36
-7.36
-8.08
-8.48
-8.49
-7.97
-6.86
-5.24
-3.32
-1.37
0.39
1.81
2.86
3.59
4.05
4.29
4.34
4.25
4.06
3.84
3.63
3.43
3.22
2.97
2.64
2.24
1.79
1.31
0.83
0.34
-0.09
-0.40
-0.52
-0.43
-0.24
-0.12
-0.26
-0.77
-1.58
-2.49
-3.21
-3.49
-3.24
-2.50
-1.49
-0.41
0.57
1.34
1.90
2.26
2.47
2.58
2.65
2.74
2.91
3.15
3.40
3.60
3.68
3.64
3.54
3.46
3.46
3.54
3.63
3.63
3.47
3.16
2.78
2.41
2.14
1.98
1.91
1.88
1.84
1.80
1.76
1.76
1.79
1.86
1.95
2.07
2.19
2.28
2.28
2.12
1.81
1.41
1.04
0.79
0.62
0.38
-0.12
-1.01
-2.22
-3.50
-4.51
-5.03
-5.02
-4.67
-4.27
-4.04
-4.01
-4.07
-4.06
-3.89
-3.59
-3.25
-2.99
-2.85
-2.81
-2.79
-2.74
-2.65
-2.54
-2.42
-2.27
-2.07
-1.76
-1.35
-0.89
-0.47
-0.20
-0.17
-0.39
-0.78
-1.18
-1.44
-1.46
-1.34
-1.23
-1.32
-1.71
-2.31
-2.96
-3.46
-3.73
-3.82
-3.89
-4.12
-4.56
-5.19
-5.88
-6.51
-6.93
-7.08
-6.87
-6.28
-5.28
-3.89
-2.19
-0.33
1.51
3.13
4.38
5.19
5.62
5.79
5.85
5.86
5.83
5.66
5.31
4.81
4.32
3.99
3.94
4.11
4.35
4.47
4.35
3.99
3.49
2.96
2.47
2.00
1.51
0.96
0.40
-0.07
-0.35
-0.39
-0.25
-0.09
-0.09
-0.42
-1.11
-2.03
-2.98
-3.76
-4.26
-4.52
-4.65
-4.81
-5.09
-5.48
-5.94
-6.37
-6.67
-6.74
-6.46
-5.74
-4.53
-2.93
-1.19
0.37
1.50
2.08
2.22
2.16
2.14
2.30
2.64
3.02
3.32
3.46
3.49
3.51
3.63
3.90
4.26
4.64
4.97
5.19
5.32
5.37
5.37
5.32
5.18
4.93
4.53
4.02
3.44
2.89
2.45
2.13
1.90
1.69
1.41
1.00
0.47
-0.13
-0.72
-1.22
-1.57
-1.77
-1.88
-1.98
-2.17
-2.54
-3.09
-3.79
-4.51
-5.09
-5.37
-5.20
-4.53
-3.41
-2.00
-0.55
0.70
1.57
2.00
2.07
1.96
1.84
1.80
1.84
1.88
1.86
1.75
1.60
1.48
1.44
1.48
1.55
1.61
1.67
1.73
1.81
1.86
1.75
1.38
0.68
-0.31
-1.49
-2.72
-3.94
-5.12
-6.23
-7.28
-8.20
-8.92
-9.42
-9.70
-9.82
-9.80
-9.68
-9.44
-9.10
-8.72
-8.40
-8.21
-8.16
-8.13
-7.86
-7.09
-5.66
-3.58
-1.08
1.51
3.91
5.90
7.47
8.66
9.56
10.24
10.72
11.01
11.18
11.34
11.58
11.96
12.48
13.06
13.61
14.02
14.21
14.14
13.76
13.12
12.28
11.34
10.37
9.42
8.45
7.40
6.23
4.93
3.58
2.26
1.08
0.08
-0.67
-1.19
-1.48
-1.63
-1.73
-1.89
-2.16
-2.58
-3.07
-3.55
-3.93
-4.19
-4.39
-4.66
-5.17
-6.07
-7.40
-9.11
-11.00
-12.78
-14.13
-14.78
-14.58
-13.56
-11.85
-9.68
-7.26
-4.80
-2.42
-0.25
1.61
3.09
4.13
4.78
5.12
5.28
5.34
5.36
5.30
5.15
4.87
4.49
4.06
3.65
3.33
3.10
2.96
2.89
2.87
2.91
2.98
3.04
3.02
2.84
2.48
1.96
1.38
0.86
0.49
0.31
0.24
0.18
0.03
-0.23
-0.59
-0.94
-1.21
-1.35
-1.38
-1.42
-1.56
-1.87
-2.36
-2.99
-3.65
-4.31
-4.90
-5.38
-5.72
-5.88
-5.85
-5.72
-5.58
-5.52
-5.57
-5.65
-5.60
-5.23
-4.47
-3.35
-2.02
-0.68
0.51
1.50
2.27
2.86
3.27
3.49
3.51
3.30
2.86
2.22
1.43
0.58
-0.19
-0.73
-0.89
-0.60
0.15
1.26
2.59
3.94
5.15
6.07
6.62
6.80
6.68
6.37
5.98
5.57
5.15
4.67
4.12
3.51
2.89
2.30
1.76
1.23
0.71
0.21
-0.18
-0.35
-0.20
0.29
0.99
1.70
2.18
2.29
2.02
1.56
1.21
1.20
1.65
2.47
3.46
4.40
5.13
5.60
5.81
5.76
5.41
4.77
3.88
2.91
2.01
1.32
0.87
0.57
0.29
-0.08
-0.57
-1.13
-1.67
-2.11
-2.42
-2.62
-2.77
-2.91
-3.05
-3.16
-3.20
-3.13
-3.01
-2.92
-2.97
-3.23
-3.67
-4.22
-4.78
-5.30
-5.75
-6.15
-6.46
-6.66
-6.72
-6.67
-6.64
-6.82
-7.33
-8.17
-9.17
-10.00
-10.34
-9.98
-8.95
-7.43
-5.72
-4.08
-2.65
-1.44
-0.42
0.45
1.15
1.59
1.74
1.64
1.47
1.42
1.61
2.04
2.59
3.12
3.50
3.72
3.87
4.02
4.22
4.44
4.65
4.82
4.98
5.17
5.41
5.64
5.77
5.73
5.49
5.11
4.64
4.08
3.34
2.35
1.10
-0.31
-1.66
-2.77
-3.56
-4.04
-4.31
-4.43
-4.40
-4.15
-3.64
-2.93
-2.15
-1.46
-0.88
-0.28
0.58
1.92
3.83
6.19
8.70
11.01
12.86
14.09
14.62
14.43
13.51
11.92
9.77
7.28
4.75
2.43
0.47
-1.13
-2.45
-3.57
-4.58
-5.46
-6.20
-6.78
-7.17
-7.39
-7.42
-7.21
-6.70
-5.87
-4.74
-3.37
-1.87
-0.38
1.02
2.27
3.36
4.28
5.03
5.60
5.98
6.18
6.19
6.08
5.88
5.64
5.41
5.16
4.85
4.42
3.83
3.14
2.48
2.04
2.02
2.51
3.53
4.96
6.64
8.33
9.75
10.64
10.75
9.96
8.29
5.90
3.08
0.11
-2.77
-5.42
-7.74
-9.67
-11.14
-12.09
-12.53
-12.54
-12.29
-11.94
-11.66
-11.50
-11.45
-11.42
-11.35
-11.19
-10.95
-10.70
-10.51
-10.41
-10.36
-10.29
-10.10
-9.75
-9.26
-8.74
-8.30
-8.05
-8.01
-8.19
-8.53
-9.01
-9.59
-10.20
-10.74
-11.02
-10.87
-10.20
-9.03
-7.52
-5.87
-4.28
-2.87
-1.68
-0.71
0.02
0.54
0.88
1.10
1.25
1.39
1.50
1.57
1.61
1.65
1.77
2.00
2.32
2.62
2.80
2.80
2.68
2.54
2.48
2.51
2.53
2.44
2.17
1.78
1.40
1.20
1.26
1.53
1.85
2.04
1.97
1.64
1.13
0.56
0.07
-0.32
-0.64
-0.96
-1.33
-1.77
-2.27
-2.83
-3.45
-4.15
-4.95
-5.78
-6.56
-7.23
-7.80
-8.37
-9.09
-10.02
-11.11
-12.15
-12.89
-13.10
-12.68
-11.62
-10.01
-7.93
-5.51
-2.91
-0.33
2.00
3.93
5.42
6.56
7.48
8.32
9.13
9.92
10.66
11.34
11.92
12.31
12.39
12.00
11.08
9.65
7.87
5.93
3.97
2.02
0.03
-2.05
-4.23
-6.42
-8.46
-10.18
-11.40
-12.03
-12.05
-11.53
-10.61
-9.47
-8.30
-7.21
-6.24
-5.31
-4.32
-3.21
-2.00
-0.85
0.06
0.58
0.65
0.38
-0.04
-0.38
-0.43
-0.06
0.78
2.08
3.75
5.68
7.71
9.67
11.38
12.76
13.76
14.44
14.86
15.10
15.26
15.41
15.59
15.82
16.09
16.40
16.71
17.03
17.31
17.53
17.61
17.49
17.15
16.65
16.06
15.48
14.86
14.10
13.06
11.65
9.94
8.12
6.44
5.05
3.97
3.06
2.13
1.00
-0.37
-1.97
-3.72
-5.52
-7.31
-8.99
-10.40
-11.33
-11.62
-11.21
-10.19
-8.85
-7.51
-6.44
-5.76
-5.43
-5.26
-5.01
-4.53
-3.77
-2.82
-1.85
-1.06
-0.59
-0.49
-0.68
-1.04
-1.42
-1.73
-1.92
-1.98
-1.93
-1.82
-1.72
-1.72
-1.88
-2.20
-2.58
-2.96
-3.29
-3.62
-4.05
-4.64
-5.37
-6.17
-6.94
-7.66
-8.45
-9.44
-10.73
-12.27
-13.89
-15.29
-16.19
-16.39
-15.81
-14.53
-12.77
-10.81
-8.96
-7.45
-6.37
-5.69
-5.31
-5.17
-5.29
-5.74
-6.62
-7.98
-9.81
-11.94
-14.07
-15.74
-16.43
-15.65
-13.17
-9.06
-3.77
2.05
7.68
12.56
16.38
19.04
20.64
21.32
21.22
20.45
19.11
17.33
15.32
13.28
11.37
9.68
8.12
6.54
4.78
2.80
0.78
-1.00
-2.22
-2.70
-2.46
-1.73
-0.82
-0.01
0.52
0.75
0.72
0.49
0.07
-0.51
-1.22
-1.93
-2.51
-2.83
-2.87
-2.74
-2.55
-2.40
-2.30
-2.14
-1.75
-1.04
-0.00
1.24
2.51
3.61
4.39
4.76
4.70
4.29
3.66
2.95
2.32
1.82
1.43
1.07
0.66
0.21
-0.25
-0.57
-0.62
-0.29
0.51
1.76
3.32
4.98
6.45
7.48
7.97
7.97
7.69
7.37
7.21
7.29
7.55
7.86
8.08
8.13
7.98
7.63
7.10
6.41
5.57
4.62
3.62
2.70
1.96
1.46
1.18
1.03
0.89
0.65
0.24
-0.31
-0.96
-1.62
-2.21
-2.70
-3.05
-3.31
-3.52
-3.78
-4.19
-4.79
-5.59
-6.47
-7.28
-7.83
-7.97
-7.64
-6.85
-5.69
-4.27
-2.73
-1.17
0.28
1.55
2.56
3.27
3.71
3.92
4.00
4.02
4.06
4.17
4.37
4.67
5.01
5.34
5.58
5.66
5.56
5.28
4.87
4.37
3.84
3.34
2.89
2.46
2.00
1.43
0.69
-0.21
-1.23
-2.26
-3.21
-4.02
-4.66
-5.21
-5.76
-6.36
-7.03
-7.70
-8.26
-8.58
-8.56
-8.16
-7.37
-6.19
-4.64
-2.73
-0.54
1.78
3.99
5.84
7.15
7.85
7.98
7.72
7.23
6.67
6.12
5.67
5.35
5.21
5.20
5.24
5.16
4.79
4.05
2.99
1.81
0.74
-0.06
-0.56
-0.87
-1.13
-1.41
-1.72
-1.99
-2.18
-2.31
-2.45
-2.68
-3.04
-3.49
-3.96
-4.38
-4.73
-5.04
-5.29
-5.40
-5.24
-4.71
-3.78
-2.54
-1.15
0.21
1.42
2.42
3.19
3.71
3.97
3.94
3.70
3.38
3.15
3.12
3.30
3.57
3.77
3.79
3.64
3.44
3.33
3.42
3.70
4.07
4.38
4.54
4.51
4.28
3.92
3.48
2.99
2.49
2.03
1.60
1.20
0.80
0.33
-0.23
-0.88
-1.59
-2.29
-2.90
-3.40
-3.79
-4.11
-4.43
-4.79
-5.22
-5.72
-6.27
-6.81
-7.25
-7.47
-7.33
-6.76
-5.72
-4.29
-2.60
-0.86
0.72
1.96
2.79
3.18
3.20
2.91
2.40
1.74
0.98
0.21
-0.48
-0.96
-1.15
-1.00
-0.59
-0.05
0.43
0.70
0.69
0.43
0.03
-0.37
-0.66
-0.77
-0.69
-0.46
-0.11
0.28
0.65
0.91
0.94
0.66
0.02
-0.94
-2.08
-3.17
-4.01
-4.45
-4.45
-4.08
-3.49
-2.83
-2.23
-1.73
-1.33
-0.98
-0.65
-0.32
0.04
0.45
0.94
1.54
2.24
2.99
3.68
4.20
4.44
4.35
3.96
3.37
2.70
2.07
1.54
1.15
0.93
0.90
1.05
1.37
1.78
2.21
2.57
2.78
2.81
2.61
2.20
1.62
0.96
0.32
-0.22
-0.65
-1.00
-1.33
-1.71
-2.12
-2.50
-2.82
-3.06
-3.25
-3.46
-3.75
-4.16
-4.70
-5.36
-6.13
-6.92
-7.57
-7.89
-7.67
-6.82
-5.39
-3.60
-1.73
-0.06
1.23
2.11
2.68
3.04
3.30
3.47
3.54
3.47
3.24
2.88
2.50
2.20
2.07
2.16
2.45
2.86
3.28
3.60
3.74
3.67
3.40
3.00
2.50
1.93
1.30
0.63
-0.02
-0.58
-0.95
-1.11
-1.07
-0.93
-0.86
-1.00
-1.41
-2.05
-2.79
-3.45
-3.90
-4.09
-4.10
-4.09
-4.22
-4.60
-5.21
-5.88
-6.41
-6.55
-6.15
-5.21
-3.82
-2.18
-0.51
1.00
2.23
3.10
3.59
3.76
3.68
3.47
3.25
3.11
3.11
3.24
3.44
3.60
3.64
3.54
3.35
3.21
3.28
3.68
4.42
5.39
6.35
7.02
7.13
6.59
5.46
3.94
2.36
1.00
0.03
-0.50
-0.70
-0.77
-0.87
-1.14
-1.68
-2.53
-3.66
-4.95
-6.19
-7.11
-7.48
-7.23
-6.44
-5.30
-4.03
-2.77
-1.56
-0.40
0.64
1.45
1.91
2.01
1.87
1.71
1.73
1.99
2.39
2.69
2.67
2.26
1.57
0.86
0.36
0.18
0.27
0.46
0.59
0.59
0.48
0.33
0.15
-0.10
-0.46
-0.93
-1.41
-1.74
-1.80
-1.62
-1.36
-1.29
-1.56
-2.19
-3.05
-3.90
-4.58
-5.04
-5.38
-5.72
-6.10
-6.43
-6.51
-6.15
-5.25
-3.89
-2.26
-0.64
0.80
1.93
2.78
3.39
3.81
4.04
4.06
3.85
3.45
2.99
2.58
2.34
2.30
2.44
2.64
2.79
2.79
2.60
2.24
1.79
1.38
1.07
0.94
0.95
1.00
0.96
0.76
0.37
-0.15
-0.66
-1.05
-1.23
-1.19
-0.98
-0.76
-0.69
-0.93
-1.53
-2.42
-3.39
-4.20
-4.67
-4.76
-4.61
-4.40
-4.33
-4.44
-4.70
-4.97
-5.12
-5.06
-4.74
-4.14
-3.25
-2.13
-0.85
0.42
1.51
2.30
2.76
2.94
2.93
2.82
2.67
2.50
2.32
2.16
2.05
2.05
2.17
2.38
2.62
2.82
2.97
3.10
3.29
3.55
3.84
4.02
3.94
3.52
2.82
2.01
1.31
0.89
0.79
0.91
1.07
1.12
0.96
0.61
0.15
-0.36
-0.84
-1.28
-1.68
-2.07
-2.45
-2.83
-3.17
-3.43
-3.58
-3.68
-3.81
-4.09
-4.58
-5.22
-5.87
-6.31
-6.31
-5.77
-4.71
-3.24
-1.59
0.03
1.42
2.51
3.28
3.78
4.04
4.07
3.87
3.44
2.87
2.27
1.79
1.53
1.53
1.72
2.02
2.35
2.68
2.96
3.15
3.22
3.11
2.81
2.34
1.75
1.10
0.46
-0.09
-0.49
-0.75
-0.91
-1.03
-1.19
-1.41
-1.69
-2.01
-2.36
-2.75
-3.19
-3.63
-4.01
-4.26
-4.36
-4.34
-4.25
-4.11
-3.88
-3.49
-2.85
-1.96
-0.86
0.31
1.43
2.35
2.96
3.24
3.23
3.06
2.87
2.78
2.82
2.94
3.06
3.11
3.06
2.96
2.85
2.76
2.72
2.75
2.84
2.95
3.02
2.97
2.72
2.25
1.61
0.92
0.33
-0.09
-0.33
-0.45
-0.53
-0.65
-0.85
-1.12
-1.42
-1.68
-1.86
-2.00
-2.17
-2.51
-3.13
-4.02
-5.08
-6.09
-6.81
-7.06
-6.82
-6.15
-5.21
-4.10
-2.90
-1.64
-0.36
0.87
1.94
2.74
3.23
3.42
3.42
3.35
3.28
3.24
3.21
3.15
3.06
2.96
2.89
2.88
2.91
2.92
2.88
2.81
2.75
2.77
2.89
3.03
3.09
2.94
2.55
1.99
1.39
0.90
0.60
0.45
0.33
0.12
-0.26
-0.79
-1.39
-1.98
-2.50
-2.97
-3.40
-3.80
-4.13
-4.39
-4.61
-4.90
-5.32
-5.83
-6.25
-6.32
-5.83
-4.74
-3.22
-1.57
-0.08
1.06
1.79
2.19
2.39
2.50
2.61
2.74
2.90
3.02
3.04
2.93
2.70
2.41
2.12
1.88
1.71
1.60
1.54
1.55
1.62
1.73
1.84
1.87
1.77
1.54
1.20
0.82
0.44
0.10
-0.19
-0.46
-0.76
-1.13
-1.61
-2.18
-2.79
-3.40
-3.96
-4.48
-4.91
-5.24
-5.39
-5.29
-4.88
-4.15
-3.18
-2.11
-1.06
-0.12
0.68
1.40
2.08
2.73
3.27
3.60
3.65
3.41
3.02
2.68
2.55
2.71
3.08
3.51
3.87
4.06
4.11
4.06
3.99
3.88
3.74
3.53
3.25
2.93
2.60
2.30
2.05
1.85
1.69
1.53
1.33
1.07
0.72
0.33
-0.05
-0.37
-0.64
-0.92
-1.27
-1.73
-2.27
-2.82
-3.29
-3.63
-3.85
-4.01
-4.20
-4.47
-4.82
-5.21
-5.62
-6.02
-6.40
-6.68
-6.76
-6.49
-5.76
-4.58
-3.09
-1.59
-0.36
0.48
0.99
1.37
1.87
2.57
3.39
4.12
4.56
4.62
4.42
4.16
4.05
4.17
4.42
4.66
4.74
4.66
4.48
4.31
4.19
4.10
3.96
3.71
3.40
3.11
2.92
2.84
2.82
2.75
2.57
2.27
1.92
1.52
1.09
0.61
0.10
-0.34
-0.62
-0.67
-0.56
-0.42
-0.40
-0.59
-0.97
-1.44
-1.87
-2.19
-2.41
-2.62
-2.91
-3.36
-3.96
-4.64
-5.35
-6.01
-6.59
-7.05
-7.34
-7.36
-7.04
-6.34
-5.31
-4.09
-2.86
-1.76
-0.83
-0.02
0.78
1.64
2.50
3.24
3.69
3.78
3.50
2.98
2.40
1.94
1.68
1.65
1.80
2.08
2.43
2.80
3.11
3.32
3.37
3.27
3.07
2.82
2.53
2.21
1.86
1.49
1.17
0.94
0.82
0.79
0.77
0.66
0.45
0.10
-0.32
-0.78
-1.25
-1.70
-2.11
-2.48
-2.77
-2.96
-3.06
-3.11
-3.16
-3.29
-3.56
-3.99
-4.58
-5.23
-5.82
-6.19
-6.21
-5.77
-4.88
-3.59
-2.06
-0.49
0.95
2.11
2.92
3.38
3.54
3.47
3.26
2.98
2.74
2.63
2.68
2.90
3.22
3.50
3.63
3.55
3.31
3.06
2.92
3.01
3.28
3.62
3.87
3.89
3.64
3.17
2.57
1.95
1.37
0.85
0.41
0.12
0.03
0.14
0.40
0.66
0.74
0.50
-0.05
-0.83
-1.67
-2.42
-3.01
-3.42
-3.65
-3.72
-3.63
-3.44
-3.25
-3.24
-3.56
-4.26
-5.26
-6.32
-7.19
-7.63
-7.54
-6.94
-5.93
-4.66
-3.24
-1.78
-0.34
0.99
2.13
3.01
3.57
3.81
3.82
3.68
3.53
3.45
3.45
3.52
3.60
3.69
3.75
3.78
3.78
3.75
3.72
3.72
3.78
3.92
4.11
4.25
4.21
3.88
3.26
2.45
1.62
0.92
0.44
0.16
-0.01
-0.13
-0.27
-0.44
-0.65
-0.88
-1.16
-1.46
-1.77
-2.02
-2.18
-2.28
-2.37
-2.52
-2.75
-3.01
-3.24
-3.42
-3.59
-3.88
-4.37
-5.05
-5.73
-6.17
-6.18
-5.67
-4.72
-3.54
-2.30
-1.10
0.05
1.18
2.27
3.20
3.85
4.12
4.07
3.84
3.59
3.43
3.38
3.37
3.35
3.30
3.28
3.34
3.52
3.75
3.94
4.01
3.87
3.53
2.99
2.25
1.31
0.26
-0.80
-1.71
-2.34
-2.68
-2.81
-2.87
-2.98
-3.18
-3.43
-3.68
-3.87
-4.03
-4.18
-4.32
-4.45
-4.56
-4.62
-4.67
-4.68
-4.61
-4.35
-3.79
-2.88
-1.68
-0.36
0.90
1.95
2.69
3.14
3.34
3.34
3.21
3.04
2.86
2.73
2.66
2.65
2.65
2.64
2.62
2.60
2.63
2.75
2.92
3.08
3.09
2.87
2.40
1.78
1.19
0.80
0.69
0.80
0.96
0.96
0.67
0.07
-0.75
-1.62
-2.40
-2.99
-3.42
-3.74
-4.07
-4.48
-5.01
-5.65
-6.33
-6.97
-7.55
-8.04
-8.41
-8.66
-8.75
-8.68
-8.45
-8.11
-7.72
-7.27
-6.69
-5.84
-4.58
-2.86
-0.78
1.40
3.36
4.85
5.76
6.18
6.28
6.26
6.24
6.27
6.31
6.34
6.33
6.28
6.18
6.03
5.85
5.64
5.44
5.29
5.16
5.02
4.82
4.59
4.37
4.24
4.25
4.37
4.53
4.60
4.55
4.41
4.24
4.08
3.94
3.71
3.33
2.76
2.07
1.32
0.55
-0.32
-1.46
-3.02
-5.03
-7.34
-9.60
-11.45
-12.59
-12.92
-12.56
-11.75
-10.71
-9.58
-8.37
-7.03
-5.54
-3.96
-2.45
-1.16
-0.19
0.49
1.00
1.48
1.97
2.43
2.73
2.78
2.59
2.28
2.03
2.01
2.25
2.68
3.14
3.49
3.68
3.74
3.76
3.81
3.93
4.03
4.03
3.86
3.50
3.05
2.60
2.24
1.99
1.80
1.59
1.29
0.87
0.37
-0.17
-0.67
-1.10
-1.45
-1.74
-1.96
-2.14
-2.29
-2.50
-2.82
-3.30
-3.93
-4.61
-5.18
-5.50
-5.47
-5.08
-4.40
-3.57
-2.69
-1.86
-1.12
-0.44
0.23
0.93
1.64
2.29
2.81
3.11
3.21
3.17
3.10
3.06
3.06
3.06
3.02
2.95
2.91
2.94
3.03
3.10
3.07
2.90
2.64
2.39
2.22
2.13
2.06
1.96
1.78
1.56
1.38
1.27
1.19
1.04
0.71
0.13
-0.67
-1.58
-2.41
-3.04
-3.37
-3.46
-3.45
-3.57
-3.97
-4.70
-5.61
-6.43
-6.89
-6.80
-6.17
-5.18
-4.06
-3.01
-2.08
-1.24
-0.36
0.59
1.61
2.56
3.29
3.67
3.68
3.38
2.93
2.53
2.31
2.33
2.55
2.87
3.19
3.46
3.65
3.75
3.78
3.75
3.65
3.51
3.35
3.21
3.09
3.00
2.90
2.72
2.44
2.03
1.52
0.96
0.39
-0.17
-0.70
-1.18
-1.59
-1.88
-2.01
-1.99
-1.87
-1.79
-1.88
-2.23
-2.88
-3.73
-4.66
-5.53
-6.23
-6.69
-6.90
-6.84
-6.52
-5.91
-5.01
-3.85
-2.49
-1.09
0.24
1.38
2.28
2.93
3.38
3.65
3.74
3.64
3.37
2.96
2.53
2.18
2.00
2.00
2.08
2.15
2.12
1.97
1.77
1.65
1.72
1.98
2.34
2.64
2.69
2.40
1.79
0.99
0.19
-0.42
-0.76
-0.82
-0.72
-0.61
-0.60
-0.78
-1.10
-1.48
-1.81
-2.06
-2.31
-2.68
-3.27
-4.04
-4.85
-5.55
-6.01
-6.22
-6.24
-6.10
-5.75
-5.06
-3.96
-2.48
-0.86
0.59
1.60
2.11
2.26
2.34
2.55
3.00
3.60
4.17
4.56
4.68
4.56
4.30
4.00
3.75
3.58
3.50
3.49
3.53
3.59
3.64
3.66
3.62
3.52
3.34
3.09
2.76
2.39
2.01
1.64
1.31
0.99
0.69
0.40
0.15
-0.04
-0.13
-0.14
-0.14
-0.19
-0.36
-0.68
-1.12
-1.59
-2.03
-2.41
-2.75
-3.08
-3.43
-3.82
-4.25
-4.69
-5.13
-5.59
-6.04
-6.45
-6.71
-6.68
-6.24
-5.34
-4.07
-2.61
-1.18
0.01
0.86
1.40
1.73
1.99
2.25
2.54
2.84
3.10
3.26
3.34
3.38
3.44
3.55
3.72
3.89
4.01
4.02
3.93
3.81
3.72
3.67
3.63
3.54
3.36
3.13
2.91
2.77
2.70
2.63
2.47
2.19
1.81
1.45
1.20
1.10
1.07
1.03
0.88
0.60
0.22
-0.19
-0.57
-0.91
-1.22
-1.51
-1.81
-2.13
-2.51
-2.96
-3.44
-3.89
-4.25
-4.50
-4.71
-5.00
-5.46
-6.09
-6.78
-7.34
-7.58
-7.42
-6.86
-5.99
-4.91
-3.67
-2.32
-0.91
0.42
1.57
2.43
3.00
3.33
3.52
3.64
3.71
3.71
3.59
3.35
3.02
2.66
2.34
2.10
1.99
2.05
2.29
2.67
3.11
3.48
3.69
3.67
3.44
3.08
2.69
2.35
2.07
1.82
1.57
1.32
1.10
0.95
0.91
0.91
0.82
0.53
-0.06
-0.88
-1.78
-2.60
-3.20
-3.57
-3.78
-3.90
-4.02
-4.14
-4.25
-4.39
-4.61
-4.93
-5.34
-5.72
-5.91
-5.79
-5.28
-4.42
-3.30
-2.02
-0.66
0.74
2.05
3.12
3.78
3.93
3.61
3.00
2.35
1.88
1.70
1.77
1.94
2.07
2.08
1.97
1.79
1.64
1.61
1.76
2.09
2.54
2.99
3.29
3.34
3.13
2.70
2.16
1.59
1.06
0.57
0.09
-0.42
-0.94
-1.43
-1.83
-2.10
-2.26
-2.33
-2.37
-2.41
-2.48
-2.62
-2.89
-3.33
-3.95
-4.70
-5.46
-6.06
-6.37
-6.27
-5.75
-4.86
-3.70
-2.41
-1.15
-0.06
0.81
1.44
1.91
2.29
2.65
2.98
3.27
3.50
3.64
3.69
3.66
3.55
3.40
3.23
3.09
3.04
3.07
3.18
3.33
3.52
3.74
4.00
4.26
4.45
4.48
4.26
3.75
2.98
2.04
1.06
0.22
-0.40
-0.73
-0.82
-0.78
-0.76
-0.87
-1.14
-1.53
-1.97
-2.39
-2.80
-3.19
-3.56
-3.88
-4.09
-4.20
-4.28
-4.44
-4.80
-5.39
-6.08
-6.66
-6.89
-6.60
-5.73
-4.36
-2.66
-0.85
0.84
2.24
3.25
3.90
4.27
4.48
4.61
4.70
4.76
4.75
4.65
4.47
4.23
3.96
3.70
3.50
3.41
3.44
3.60
3.83
4.06
4.22
4.24
4.08
3.73
3.22
2.61
1.95
1.33
0.81
0.45
0.27
0.27
0.37
0.48
0.46
0.23
-0.25
-0.93
-1.69
-2.41
-2.97
-3.35
-3.58
-3.71
-3.82
-3.99
-4.27
-4.71
-5.32
-6.06
-6.88
-7.66
-8.33
-8.77
-8.94
-8.80
-8.35
-7.64
-6.74
-5.77
-4.80
-3.91
-3.14
-2.52
-2.10
-1.89
-1.88
-1.98
-2.01
-1.77
-1.14
-0.09
1.21
2.53
3.60
4.29
4.61
4.69
4.74
4.88
5.15
5.50
5.81
5.99
6.00
5.83
5.53
5.12
4.65
4.14
3.65
3.24
2.98
2.92
3.02
3.19
3.29
3.21
2.89
2.36
1.72
1.07
0.52
0.11
-0.19
-0.47
-0.87
-1.55
-2.56
-3.82
-5.11
-6.08
-6.45
-6.06
-4.96
-3.36
-1.56
0.19
1.72
2.97
3.92
4.56
4.91
4.98
4.84
4.60
4.35
4.18
4.14
4.20
4.29
4.28
4.06
3.57
2.83
1.93
1.00
0.13
-0.61
-1.26
-1.91
-2.65
-3.52
-4.47
-5.33
-5.96
-6.26
-6.27
-6.13
-6.04
-6.14
-6.47
-6.99
-7.58
-8.13
-8.55
-8.79
-8.77
-8.42
-7.64
-6.42
-4.82
-3.02
-1.24
0.28
1.39
2.04
2.34
2.41
2.42
2.43
2.46
2.44
2.33
2.13
1.89
1.71
1.63
1.68
1.84
2.08
2.38
2.70
3.02
3.30
3.49
3.52
3.36
2.97
2.41
1.80
1.33
1.19
1.47
2.12
2.91
3.59
3.94
3.91
3.58
3.11
2.57
1.96
1.25
0.40
-0.52
-1.38
-2.08
-2.60
-2.96
-3.25
-3.44
-3.47
-3.27
-2.81
-2.10
-1.25
-0.36
0.50
1.26
1.86
2.25
2.41
2.36
2.19
1.98
1.80
1.64
1.47
1.26
1.04
0.83
0.70
0.63
0.61
0.62
0.67
0.77
0.91
1.02
1.01
0.77
0.29
-0.37
-1.07
-1.63
-1.97
-2.05
-1.92
-1.67
-1.36
-1.00
-0.59
-0.13
0.34
0.69
0.80
0.54
-0.09
-0.99
-1.94
-2.71
-3.11
-3.10
-2.72
-2.10
-1.39
-0.69
-0.10
0.29
0.48
0.54
0.59
0.78
1.18
1.74
2.30
2.66
2.74
2.59
2.34
2.16
2.12
2.20
2.30
2.33
2.30
2.23
2.21
2.27
2.37
2.46
2.48
2.42
2.31
2.21
2.16
2.17
2.24
2.33
2.40
2.40
2.27
1.94
1.40
0.62
-0.32
-1.33
-2.30
-3.15
-3.87
-4.50
-5.10
-5.75
-6.49
-7.30
-8.10
-8.73
-9.01
-8.83
-8.18
-7.19
-6.08
-5.06
-4.26
-3.66
-3.15
-2.58
-1.90
-1.12
-0.35
0.29
0.75
1.07
1.34
1.66
2.10
2.60
3.09
3.52
3.87
4.16
4.41
4.58
4.63
4.52
4.28
4.01
3.81
3.71
3.65
3.52
3.25
2.86
2.44
2.13
2.02
2.12
2.38
2.72
3.04
3.27
3.35
3.28
3.11
2.90
2.72
2.57
2.37
2.02
1.47
0.82
0.22
-0.18
-0.34
-0.37
-0.49
-0.88
-1.61
-2.56
-3.53
-4.36
-4.94
-5.31
-5.54
-5.62
-5.53
-5.17
-4.50
-3.56
-2.50
-1.48
-0.60
0.09
0.67
1.20
1.75
2.30
2.78
3.12
3.29
3.28
3.14
2.90
2.63
2.36
2.17
2.11
2.23
2.52
2.90
3.24
3.39
3.24
2.78
2.11
1.40
0.82
0.45
0.29
0.26
0.24
0.15
-0.08
-0.44
-0.92
-1.48
-2.06
-2.59
-2.97
-3.16
-3.16
-3.07
-3.08
-3.35
-3.93
-4.73
-5.54
-6.15
-6.41
-6.35
-6.05
-5.61
-5.06
-4.34
-3.40
-2.24
-0.95
0.31
1.41
2.24
2.83
3.22
3.48
3.65
3.76
3.81
3.81
3.76
3.66
3.52
3.35
3.20
3.12
3.12
3.19
3.23
3.15
2.89
2.45
1.92
1.45
1.16
1.09
1.18
1.30
1.34
1.27
1.11
0.93
0.73
0.45
0.02
-0.57
-1.25
-1.89
-2.41
-2.84
-3.31
-3.97
-4.87
-5.85
-6.61
-6.82
-6.29
-5.07
-3.43
-1.75
-0.36
0.62
1.19
1.51
1.70
1.85
1.93
1.87
1.64
1.24
0.75
0.29
-0.02
-0.12
0.03
0.41
0.96
1.66
2.42
3.18
3.86
4.37
4.65
4.71
4.61
4.42
4.22
4.01
3.75
3.35
2.78
2.06
1.28
0.56
-0.01
-0.35
-0.51
-0.55
-0.58
-0.70
-0.96
-1.37
-1.86
-2.37
-2.81
-3.18
-3.52
-3.88
-4.31
-4.80
-5.33
-5.90
-6.53
-7.23
-8.00
-8.75
-9.35
-9.65
-9.55
-9.03
-8.14
-6.98
-5.63
-4.19
-2.73
-1.34
-0.11
0.89
1.62
2.11
2.42
2.61
2.76
2.91
3.05
3.15
3.17
3.06
2.82
2.51
2.20
2.00
1.95
2.08
2.33
2.63
2.95
3.25
3.51
3.73
3.89
3.97
4.01
4.03
4.06
4.12
4.17
4.15
3.99
3.62
3.03
2.23
1.28
0.22
-0.86
-1.91
-2.89
-3.76
-4.49
-5.08
-5.50
-5.75
-5.79
-5.57
-5.02
-4.07
-2.71
-1.00
0.93
2.86
4.57
5.88
6.69
6.98
6.79
6.24
5.50
4.75
4.15
3.77
3.56
3.41
3.21
2.93
2.61
2.35
2.23
2.25
2.32
2.37
2.32
2.14
1.90
1.62
1.32
1.01
0.66
0.25
-0.25
-0.81
-1.44
-2.07
-2.64
-3.08
-3.38
-3.55
-3.66
-3.80
-4.02
-4.36
-4.80
-5.29
-5.75
-6.03
-6.04
-5.68
-4.92
-3.83
-2.55
-1.23
0.00
1.08
1.97
2.65
3.08
3.25
3.18
2.96
2.71
2.51
2.40
2.37
2.33
2.23
2.06
1.86
1.68
1.57
1.55
1.62
1.75
1.91
2.01
2.01
1.85
1.54
1.15
0.76
0.43
0.14
-0.17
-0.56
-1.03
-1.51
-1.91
-2.19
-2.38
-2.56
-2.84
-3.25
-3.76
-4.26
-4.68
-4.97
-5.18
-5.42
-5.81
-6.41
-7.17
-7.91
-8.42
-8.51
-8.04
-7.04
-5.59
-3.85
-1.98
-0.13
1.59
3.07
4.25
5.10
5.65
5.99
6.20
6.31
6.33
6.27
6.12
5.93
5.78
5.70
5.68
5.67
5.59
5.38
5.04
4.59
4.04
3.42
2.76
2.08
1.46
0.94
0.53
0.18
-0.17
-0.55
-0.99
-1.42
-1.80
-2.08
-2.27
-2.41
-2.57
-2.81
-3.18
-3.64
-4.13
-4.54
-4.80
-4.91
-4.93
-4.94
-5.02
-5.23
-5.53
-5.84
-6.02
-5.92
-5.45
-4.58
-3.37
-2.02
-0.70
0.43
1.29
1.90
2.29
2.50
2.53
2.39
2.15
1.90
1.72
1.67
1.73
1.82
1.89
1.93
1.97
2.06
2.19
2.27
2.21
1.97
1.55
1.06
0.60
0.24
-0.02
-0.19
-0.30
-0.34
-0.28
-0.16
-0.02
0.04
-0.03
-0.23
-0.48
-0.68
-0.77
-0.74
-0.66
-0.58
-0.59
-0.74
-1.08
-1.57
-2.13
-2.57
-2.69
-2.38
-1.63
-0.57
0.58
1.63
2.45
2.99
3.26
3.35
3.31
3.24
3.17
3.10
3.04
2.95
2.84
2.76
2.75
2.83
2.97
3.12
3.21
3.20
3.08
2.89
2.66
2.41
2.14
1.84
1.52
1.16
0.78
0.37
-0.04
-0.41
-0.70
-0.92
-1.07
-1.21
-1.36
-1.54
-1.76
-1.99
-2.26
-2.61
-3.06
-3.65
-4.33
-5.02
-5.62
-6.06
-6.30
-6.33
-6.13
-5.68
-4.89
-3.78
-2.39
-0.88
0.53
1.66
2.43
2.84
2.96
2.87
2.61
2.19
1.69
1.21
0.91
0.88
1.13
1.51
1.83
1.92
1.75
1.43
1.13
0.98
0.99
1.10
1.23
1.33
1.44
1.62
1.88
2.12
2.24
2.10
1.69
1.12
0.54
0.07
-0.23
-0.41
-0.55
-0.73
-0.93
-1.12
-1.26
-1.38
-1.51
-1.72
-2.00
-2.33
-2.67
-3.00
-3.36
-3.81
-4.36
-4.95
-5.48
-5.81
-5.84
-5.50
-4.78
-3.72
-2.38
-0.87
0.65
2.01
3.08
3.76
4.11
4.21
4.21
4.18
4.19
4.20
4.16
4.03
3.81
3.54
3.29
3.12
3.02
2.96
2.86
2.72
2.52
2.34
2.19
2.07
1.94
1.75
1.49
1.20
0.97
0.83
0.76
0.70
0.52
0.19
-0.31
-0.91
-1.54
-2.13
-2.63
-3.03
-3.31
-3.46
-3.51
-3.50
-3.49
-3.56
-3.74
-4.03
-4.33
-4.47
-4.31
-3.74
-2.76
-1.49
-0.12
1.12
2.10
2.72
3.00
3.01
2.84
2.57
2.26
1.94
1.63
1.37
1.21
1.20
1.41
1.84
2.41
3.01
3.49
3.71
3.62
3.28
2.75
2.13
1.47
0.83
0.25
-0.21
-0.50
-0.64
-0.73
-0.90
-1.27
-1.87
-2.58
-3.20
-3.55
-3.56
-3.38
-3.26
-3.42
-3.97
-4.79
-5.62
-6.18
-6.22
-5.68
-4.60
-3.17
-1.60
-0.12
1.13
2.02
2.57
2.85
2.98
3.08
3.20
3.34
3.45
3.52
3.56
3.61
3.70
3.81
3.84
3.71
3.38
2.93
2.55
2.40
2.53
2.84
3.11
3.13
2.81
2.25
1.68
1.27
1.08
1.00
0.88
0.60
0.15
-0.40
-0.97
-1.57
-2.20
-2.87
-3.49
-3.96
-4.18
-4.20
-4.14
-4.18
-4.45
-4.96
-5.62
-6.30
-6.89
-7.28
-7.39
-7.16
-6.55
-5.56
-4.26
-2.79
-1.31
0.02
1.06
1.77
2.17
2.38
2.52
2.72
3.01
3.37
3.72
3.99
4.18
4.28
4.34
4.32
4.21
3.97
3.64
3.32
3.12
3.09
3.19
3.33
3.41
3.39
3.30
3.20
3.14
3.10
3.04
2.92
2.76
2.62
2.56
2.59
2.64
2.61
2.40
2.01
1.47
0.91
0.40
0.01
-0.25
-0.41
-0.53
-0.64
-0.82
-1.11
-1.54
-2.08
-2.62
-3.07
-3.33
-3.42
-3.43
-3.53
-3.86
-4.47
-5.32
-6.30
-7.22
-7.92
-8.21
-7.98
-7.16
-5.78
-4.02
-2.13
-0.40
0.95
1.81
2.23
2.34
2.32
2.27
2.25
2.28
2.30
2.32
2.34
2.42
2.61
2.92
3.30
3.65
3.83
3.75
3.42
2.95
2.49
2.15
1.96
1.85
1.75
1.62
1.47
1.38
1.37
1.41
1.41
1.28
0.99
0.62
0.26
0.01
-0.13
-0.24
-0.42
-0.78
-1.33
-1.98
-2.61
-3.09
-3.38
-3.56
-3.76
-4.14
-4.76
-5.53
-6.27
-6.73
-6.78
-6.38
-5.64
-4.71
-3.71
-2.69
-1.62
-0.53
0.51
1.40
2.02
2.34
2.43
2.41
2.40
2.45
2.52
2.56
2.58
2.63
2.77
3.04
3.37
3.62
3.72
3.64
3.47
3.36
3.37
3.46
3.49
3.30
2.85
2.19
1.50
0.95
0.57
0.32
0.06
-0.36
-0.98
-1.77
-2.63
-3.41
-4.02
-4.38
-4.49
-4.38
-4.17
-3.98
-3.94
-4.14
-4.59
-5.18
-5.72
-6.04
-5.98
-5.48
-4.58
-3.40
-2.12
-0.90
0.15
0.97
1.61
2.10
2.55
2.99
3.46
3.96
4.44
4.84
5.07
5.11
4.98
4.76
4.54
4.38
4.30
4.26
4.18
4.02
3.79
3.51
3.25
3.04
2.86
2.65
2.35
1.93
1.41
0.85
0.33
-0.09
-0.40
-0.61
-0.74
-0.85
-0.97
-1.11
-1.30
-1.56
-1.90
-2.29
-2.65
-2.91
-3.04
-3.09
-3.16
-3.36
-3.78
-4.44
-5.24
-6.04
-6.61
-6.73
-6.31
-5.38
-4.12
-2.78
-1.61
-0.78
-0.30
-0.05
0.11
0.32
0.65
1.09
1.58
2.02
2.31
2.37
2.21
1.94
1.74
1.79
2.14
2.71
3.29
3.71
3.91
3.95
3.93
3.93
3.90
3.75
3.40
2.91
2.38
1.95
1.64
1.40
1.10
0.68
0.17
-0.30
-0.65
-0.86
-1.02
-1.28
-1.69
-2.25
-2.86
-3.41
-3.86
-4.20
-4.48
-4.75
-4.99
-5.19
-5.37
-5.55
-5.76
-6.00
-6.22
-6.29
-6.05
-5.43
-4.42
-3.13
-1.74
-0.40
0.76
1.69
2.40
2.91
3.22
3.37
3.36
3.26
3.11
2.98
2.91
2.90
2.90
2.87
2.75
2.55
2.32
2.14
2.11
2.23
2.45
2.62
2.59
2.26
1.65
0.87
0.08
-0.56
-0.99
-1.21
-1.28
-1.30
-1.37
-1.53
-1.81
-2.16
-2.50
-2.76
-2.93
-3.03
-3.15
-3.33
-3.58
-3.79
-3.84
-3.63
-3.16
-2.51
-1.81
-1.13
-0.49
0.16
0.86
1.59
2.26
2.77
3.04
3.09
3.04
3.00
3.03
3.14
3.24
3.23
3.09
2.84
2.59
2.43
2.44
2.61
2.86
3.08
3.18
3.09
2.82
2.44
2.03
1.66
1.31
0.94
0.48
-0.07
-0.66
-1.18
-1.56
-1.79
-1.98
-2.25
-2.73
-3.40
-4.16
-4.84
-5.30
-5.50
-5.46
-5.23
-4.84
-4.24
-3.40
-2.31
-1.04
0.24
1.37
2.22
2.78
3.10
3.25
3.28
3.21
3.08
2.91
2.78
2.75
2.82
2.98
3.16
3.29
3.28
3.10
2.77
2.38
2.01
1.75
1.62
1.59
1.58
1.52
1.42
1.33
1.31
1.34
1.38
1.32
1.07
0.62
0.02
-0.65
-1.32
-1.97
-2.56
-3.08
-3.48
-3.76
-3.97
-4.20
-4.53
-5.00
-5.58
-6.12
-6.46
-6.44
-5.95
-5.02
-3.75
-2.29
-0.81
0.56
1.76
2.72
3.43
3.86
4.04
4.02
3.91
3.79
3.73
3.72
3.76
3.82
3.91
4.02
4.18
4.35
4.45
4.42
4.23
3.92
3.60
3.37
3.26
3.30
3.45
3.66
3.88
4.07
4.18
4.21
4.16
4.09
4.04
4.03
4.07
4.13
4.20
4.29
4.41
4.57
4.72
4.80
4.75
4.61
4.54
4.73
5.33
6.37
7.72
9.15
10.50
11.70
12.77
13.82
14.92
16.07
17.24
18.41
19.64
21.03
22.72
24.78
27.19
29.75
32.14
33.94
34.77
34.37
32.79
30.33
27.55
24.98
22.96
21.45
20.12
18.45
16.01
12.59
8.26
3.32
-1.88
-6.94
-11.53
-15.35
-18.26
-20.27
-21.65
-22.83
-24.25
-26.20
-28.68
-31.47
-34.23
-36.65
-38.48
-39.53
-39.64
-38.69
-36.66
-33.71
-30.20
-26.59
-23.30
-20.57
-18.43
-16.74
-15.32
-14.05
-12.90
-11.89
-11.02
-10.26
-9.51
-8.70
-7.80
-6.83
-5.86
-4.94
-4.09
-3.30
-2.57
-1.93
-1.48
-1.31
-1.45
-1.83
-2.35
-2.88
-3.34
-3.73
-4.09
-4.43
-4.72
-4.91
-4.97
-4.93
-4.87
-4.90
-5.09
-5.42
-5.82
-6.17
-6.40
-6.51
-6.57
-6.73
-7.08
-7.64
-8.28
-8.80
-8.99
-8.69
-7.84
-6.54
-4.95
-3.30
-1.82
-0.70
-0.04
0.18
0.11
-0.05
-0.06
0.21
0.77
1.51
2.27
2.87
3.23
3.34
3.26
3.08
2.88
2.70
2.52
2.32
2.09
1.84
1.60
1.36
1.14
0.90
0.61
0.26
-0.15
-0.59
-1.06
-1.53
-2.02
-2.50
-3.01
-3.56
-4.24
-5.12
-6.32
-7.89
-9.79
-11.88
-13.92
-15.59
-16.62
-16.83
-16.23
-15.00
-13.41
-11.76
-10.28
-9.04
-8.03
-7.13
-6.25
-5.41
-4.70
-4.30
-4.33
-4.81
-5.54
-6.24
-6.60
-6.47
-5.94
-5.24
-4.63
-4.25
-4.02
-3.77
-3.29
-2.55
-1.66
-0.84
-0.29
-0.06
-0.12
-0.35
-0.65
-0.97
-1.26
-1.49
-1.58
-1.41
-0.92
-0.15
0.79
1.68
2.35
2.74
2.92
3.13
3.63
4.61
6.13
8.04
10.11
12.04
13.66
14.89
15.75
16.29
16.49
16.33
15.79
14.94
13.92
12.97
12.26
11.89
11.81
11.90
12.01
12.04
11.91
11.61
11.18
10.67
10.15
9.71
9.35
9.02
8.60
8.00
7.17
6.23
5.30
4.52
3.93
3.50
3.13
2.74
2.33
1.90
1.46
1.01
0.49
-0.12
-0.83
-1.58
-2.28
-2.89
-3.40
-3.86
-4.36
-4.93
-5.51
-5.98
-6.14
-5.84
-5.04
-3.86
-2.52
-1.25
-0.21
0.57
1.11
1.47
1.67
1.70
1.55
1.30
1.05
0.93
0.99
1.22
1.55
1.87
2.13
2.30
2.40
2.49
2.59
2.74
2.94
3.18
3.41
3.54
3.54
3.38
3.09
2.76
2.42
2.14
1.88
1.61
1.27
0.84
0.37
-0.10
-0.51
-0.84
-1.08
-1.28
-1.48
-1.74
-2.10
-2.55
-3.07
-3.61
-4.15
-4.65
-5.13
-5.57
-5.97
-6.37
-6.79
-7.30
-7.92
-8.60
-9.18
-9.43
-9.13
-8.15
-6.54
-4.50
-2.32
-0.27
1.48
2.87
3.92
4.71
5.29
5.73
6.05
6.27
6.39
6.39
6.25
5.92
5.40
4.75
4.09
3.57
3.29
3.29
3.53
3.91
4.37
4.82
5.22
5.50
5.58
5.47
5.23
5.00
4.99
5.29
5.85
6.45
6.79
6.65
5.97
4.90
3.70
2.65
1.92
1.57
1.55
1.71
1.87
1.85
1.50
0.74
-0.38
-1.72
-3.11
-4.42
-5.59
-6.70
-7.88
-9.27
-10.95
-12.90
-15.04
-17.18
-19.12
-20.59
-21.34
-21.13
-19.80
-17.36
-13.97
-10.00
-5.88
-2.05
1.16
3.62
5.37
6.57
7.38
7.97
8.46
8.95
9.50
10.16
10.90
11.67
12.39
13.00
13.49
13.92
14.37
14.86
15.40
15.87
16.16
16.16
15.83
15.21
14.46
13.77
13.30
13.09
13.04
12.95
12.59
11.82
10.62
9.10
7.43
5.74
4.13
2.62
1.22
-0.09
-1.32
-2.52
-3.73
-5.04
-6.51
-8.15
-9.96
-11.89
-13.83
-15.61
-17.02
-17.83
-17.82
-16.88
-15.06
-12.62
-9.99
-7.61
-5.82
-4.74
-4.28
-4.17
-4.17
-4.12
-4.00
-3.86
-3.77
-3.69
-3.52
-3.13
-2.45
-1.50
-0.40
0.66
1.56
2.24
2.75
3.20
3.71
4.33
5.03
5.69
6.17
6.41
6.41
6.27
6.11
6.02
6.00
5.98
5.84
5.51
4.96
4.23
3.40
2.55
1.74
0.97
0.23
-0.53
-1.34
-2.20
-3.10
-4.08
-5.17
-6.42
-7.78
-9.06
-9.96
-10.14
-9.41
-7.79
-5.53
-3.00
-0.58
1.50
3.09
4.17
4.69
4.68
4.19
3.37
2.43
1.56
0.90
0.51
0.36
0.44
0.67
1.01
1.38
1.67
1.76
1.61
1.25
0.78
0.34
0.04
-0.11
-0.21
-0.36
-0.71
-1.31
-2.12
-2.99
-3.70
-4.06
-3.92
-3.28
-2.24
-1.00
0.25
1.33
2.09
2.42
2.22
1.47
0.21
-1.32
-2.80
-3.88
-4.30
-4.02
-3.23
-2.25
-1.42
-0.93
-0.83
-0.98
-1.19
-1.27
-1.14
-0.80
-0.39
-0.02
0.22
0.30
0.27
0.22
0.19
0.22
0.31
0.44
0.56
0.58
0.39
-0.10
-0.90
-1.89
-2.87
-3.62
-4.03
-4.14
-4.12
-4.16
-4.37
-4.70
-5.00
-5.16
-5.15
-5.06
-5.06
-5.31
-5.86
-6.62
-7.44
-8.09
-8.40
-8.23
-7.54
-6.34
-4.73
-2.86
-0.92
0.92
2.53
3.89
5.00
5.92
6.68
7.26
7.59
7.65
7.40
6.91
6.28
5.64
5.11
4.74
4.53
4.45
4.40
4.35
4.25
4.10
3.87
3.58
3.21
2.80
2.35
1.90
1.44
0.92
0.32
-0.36
-1.06
-1.69
-2.19
-2.56
-2.90
-3.32
-3.92
-4.70
-5.55
-6.24
-6.52
-6.19
-5.20
-3.63
-1.73
0.20
1.90
3.22
4.17
4.85
5.36
5.72
5.89
5.80
5.43
4.87
4.31
3.92
3.81
3.94
4.22
4.47
4.57
4.49
4.31
4.12
3.99
3.94
3.89
3.76
3.51
3.13
2.71
2.28
1.88
1.51
1.11
0.64
0.07
-0.62
-1.42
-2.31
-3.24
-4.15
-4.98
-5.72
-6.34
-6.86
-7.19
-7.26
-6.93
-6.13
-4.90
-3.40
-1.81
-0.35
0.86
1.78
2.45
2.90
3.18
3.30
3.26
3.07
2.80
2.54
2.39
2.40
2.57
2.82
3.04
3.17
3.16
3.02
2.80
2.52
2.21
1.87
1.51
1.09
0.61
0.04
-0.61
-1.27
-1.83
-2.19
-2.34
-2.36
-2.44
-2.76
-3.36
-4.18
-5.02
-5.67
-6.03
-6.08
-5.90
-5.54
-5.05
-4.40
-3.53
-2.41
-1.06
0.44
1.97
3.42
4.66
5.57
6.05
6.02
5.47
4.50
3.32
2.19
1.36
1.02
1.21
1.85
2.75
3.70
4.50
5.03
5.22
5.09
4.72
4.20
3.64
3.14
2.77
2.57
2.54
2.64
2.79
2.87
2.81
2.60
2.27
1.93
1.64
1.41
1.17
0.80
0.15
-0.89
-2.33
-4.13
-6.15
-8.21
-10.08
-11.56
-12.44
-12.58
-11.94
-10.57
-8.67
-6.46
-4.17
-1.97
0.04
1.80
3.22
4.24
4.74
4.72
4.22
3.42
2.55
1.78
1.21
0.83
0.58
0.36
0.17
0.01
-0.06
-0.04
0.10
0.27
0.38
0.33
0.07
-0.38
-0.91
-1.38
-1.66
-1.71
-1.58
-1.41
-1.37
-1.50
-1.78
-2.13
-2.45
-2.73
-3.00
-3.31
-3.70
-4.15
-4.67
-5.25
-5.88
-6.50
-6.98
-7.11
-6.70
-5.66
-4.09
-2.22
-0.35
1.26
2.50
3.37
4.00
4.55
5.13
5.79
6.47
7.07
7.48
7.65
7.61
7.43
7.21
6.98
6.77
6.58
6.43
6.35
6.37
6.48
6.61
6.65
6.54
6.26
5.87
5.46
5.10
4.80
4.51
4.19
3.82
3.41
3.06
2.83
2.76
2.79
2.82
2.71
2.39
1.87
1.20
0.44
-0.45
-1.55
-2.92
-4.52
-6.19
-7.63
-8.55
-8.80
-8.38
-7.47
-6.33
-5.19
-4.21
-3.47
-2.95
-2.66
-2.59
-2.69
-2.90
-3.14
-3.30
-3.27
-3.02
-2.62
-2.16
-1.78
-1.51
-1.35
-1.23
-1.10
-1.00
-0.98
-1.10
-1.36
-1.67
-1.93
-2.09
-2.21
-2.44
-2.92
-3.76
-4.89
-6.10
-7.10
-7.63
-7.53
-6.82
-5.63
-4.18
-2.70
-1.38
-0.37
0.30
0.67
0.92
1.27
1.96
3.14
4.77
6.65
8.47
9.93
10.81
11.05
10.69
9.88
8.78
7.53
6.28
5.10
4.04
3.11
2.29
1.59
1.01
0.54
0.20
0.01
0.01
0.26
0.77
1.50
2.32
3.05
3.51
3.59
3.31
2.81
2.23
1.71
1.34
1.11
0.98
0.88
0.73
0.45
0.02
-0.54
-1.16
-1.74
-2.18
-2.47
-2.61
-2.65
-2.57
-2.38
-2.12
-1.87
-1.79
-2.01
-2.58
-3.44
-4.42
-5.28
-5.85
-6.04
-5.85
-5.37
-4.74
-4.04
-3.37
-2.78
-2.31
-1.99
-1.85
-1.89
-2.10
-2.40
-2.69
-2.85
-2.81
-2.61
-2.30
-1.97
-1.65
-1.36
-1.08
-0.79
-0.49
-0.22
0.03
0.25
0.51
0.90
1.44
2.12
2.78
3.25
3.36
3.10
2.61
2.12
1.86
1.92
2.19
2.47
2.55
2.34
1.93
1.48
1.14
0.93
0.75
0.47
-0.00
-0.61
-1.20
-1.60
-1.75
-1.77
-1.87
-2.32
-3.25
-4.58
-6.10
-7.52
-8.58
-9.13
-9.12
-8.60
-7.62
-6.30
-4.77
-3.24
-1.90
-0.87
-0.20
0.17
0.35
0.45
0.55
0.65
0.75
0.85
0.97
1.16
1.47
1.88
2.37
2.89
3.41
3.88
4.30
4.65
4.92
5.06
5.04
4.88
4.59
4.27
3.96
3.67
3.36
2.97
2.47
1.91
1.41
1.08
0.96
0.97
0.95
0.77
0.36
-0.23
-0.86
-1.44
-1.93
-2.36
-2.82
-3.33
-3.90
-4.47
-4.98
-5.40
-5.67
-5.74
-5.48
-4.81
-3.71
-2.30
-0.74
0.73
1.95
2.85
3.46
3.83
4.04
4.13
4.10
3.94
3.64
3.24
2.78
2.35
2.04
1.93
2.06
2.38
2.77
3.10
3.22
3.08
2.73
2.30
1.97
1.85
1.98
2.29
2.62
2.83
2.85
2.70
2.44
2.16
1.89
1.62
1.30
0.96
0.64
0.39
0.26
0.23
0.27
0.33
0.38
0.39
0.32
0.11
-0.28
-0.88
-1.59
-2.24
-2.62
-2.53
-1.90
-0.76
0.72
2.34
3.89
5.20
6.17
6.81
7.16
7.29
7.24
7.02
6.65
6.20
5.72
5.32
5.05
4.93
4.88
4.76
4.45
3.85
2.92
1.70
0.24
-1.36
-2.99
-4.51
-5.76
-6.63
-7.10
-7.31
-7.50
-7.94
-8.77
-9.93
-11.15
-12.05
-12.33
-11.81
-10.55
-8.71
-6.52
-4.23
-2.11
-0.42
0.62
0.91
0.52
-0.28
-1.18
-1.93
-2.41
-2.70
-2.90
-3.10
-3.30
-3.45
-3.48
-3.40
-3.27
-3.16
-3.10
-3.09
-3.03
-2.84
-2.46
-1.91
-1.27
-0.66
-0.17
0.19
0.44
0.67
0.92
1.21
1.47
1.61
1.59
1.45
1.23
1.01
0.82
0.64
0.43
0.16
-0.19
-0.58
-0.97
-1.29
-1.50
-1.53
-1.36
-0.98
-0.39
0.31
1.01
1.57
1.89
1.94
1.78
1.50
1.27
1.19
1.30
1.55
1.83
1.99
1.93
1.65
1.19
0.67
0.17
-0.29
-0.71
-1.09
-1.40
-1.53
-1.37
-0.91
-0.19
0.59
1.25
1.68
1.88
1.99
2.15
2.43
2.75
2.94
2.86
2.46
1.85
1.20
0.67
0.34
0.13
-0.08
-0.40
-0.89
-1.48
-2.11
-2.70
-3.21
-3.62
-3.92
-4.12
-4.27
-4.45
-4.78
-5.33
-6.06
-6.84
-7.42
-7.58
-7.19
-6.26
-4.94
-3.42
-1.90
-0.52
0.67
1.66
2.43
3.01
3.40
3.63
3.72
3.70
3.57
3.35
3.07
2.76
2.48
2.31
2.26
2.35
2.52
2.72
2.84
2.82
2.58
2.15
1.57
0.91
0.28
-0.29
-0.76
-1.15
-1.50
-1.83
-2.18
-2.58
-3.07
-3.64
-4.26
-4.86
-5.39
-5.85
-6.25
-6.64
-6.99
-7.21
-7.14
-6.67
-5.75
-4.46
-2.94
-1.39
0.06
1.34
2.39
3.21
3.74
3.96
3.88
3.59
3.24
2.98
2.95
3.12
3.41
3.63
3.68
3.55
3.32
3.13
3.05
3.08
3.18
3.30
3.43
3.56
3.65
3.64
3.43
3.01
2.43
1.80
1.23
0.72
0.15
-0.57
-1.45
-2.41
-3.25
-3.81
-4.08
-4.20
-4.39
-4.83
-5.57
-6.48
-7.36
-7.99
-8.21
-7.98
-7.31
-6.24
-4.85
-3.24
-1.59
-0.10
1.06
1.79
2.11
2.17
2.11
2.09
2.21
2.52
3.00
3.61
4.22
4.69
4.88
4.75
4.37
3.93
3.64
3.60
3.76
3.99
4.10
4.01
3.71
3.27
2.75
2.19
1.62
1.05
0.51
0.02
-0.45
-0.96
-1.53
-2.13
-2.64
-2.93
-2.92
-2.65
-2.29
-2.01
-1.95
-2.10
-2.36
-2.56
-2.53
-2.17
-1.47
-0.51
0.60
1.73
2.81
3.81
4.72
5.51
6.10
6.37
6.28
5.86
5.28
4.77
4.46
4.40
4.48
4.53
4.44
4.17
3.78
3.37
3.03
2.77
2.52
2.20
1.75
1.14
0.47
-0.16
-0.65
-0.99
-1.21
-1.41
-1.63
-1.89
-2.13
-2.27
-2.25
-2.10
-1.93
-1.88
-2.11
-2.69
-3.55
-4.53
-5.35
-5.72
-5.43
-4.39
-2.67
-0.46
1.97
4.35
6.46
8.11
9.18
9.55
9.17
8.07
6.41
4.44
2.51
0.96
0.01
-0.28
-0.05
0.44
0.96
1.34
1.63
1.94
2.44
3.15
3.99
4.76
5.27
5.41
5.22
4.81
4.32
3.85
3.49
3.31
3.38
3.71
4.18
4.45
4.13
2.82
0.42
-2.86
-6.53
-9.93
-12.55
-14.06
-14.42
-13.76
-12.33
-10.41
-8.33
-6.41
-4.96
-4.17
-4.11
-4.63
-5.46
-6.19
-6.42
-5.83
-4.31
-2.05
0.46
2.55
3.56
3.13
1.36
-1.18
-3.68
-5.44
-6.07
-5.60
-4.37
-2.80
-1.20
0.25
1.49
2.52
3.32
3.87
4.18
4.37
4.54
4.82
5.22
5.67
6.05
6.23
6.10
5.69
5.06
4.36
3.73
3.28
3.03
2.92
2.87
2.81
2.65
2.38
1.93
1.28
0.36
-0.82
-2.24
-3.80
-5.37
-6.82
-8.05
-9.02
-9.75
-10.29
-10.64
-10.73
-10.44
-9.63
-8.25
-6.43
-4.38
-2.42
-0.79
0.40
1.21
1.76
2.19
2.58
2.94
3.29
3.70
4.26
5.04
5.98
6.86
7.39
7.34
6.65
5.48
4.18
3.10
2.48
2.35
2.54
2.83
3.01
3.01
2.89
2.75
2.65
2.57
2.41
2.10
1.63
1.09
0.60
0.23
-0.04
-0.35
-0.81
-1.50
-2.33
-3.15
-3.80
-4.16
-4.27
-4.17
-3.93
-3.55
-2.99
-2.19
-1.13
0.15
1.52
2.81
3.85
4.55
4.88
4.91
4.73
4.44
4.09
3.72
3.36
3.06
2.88
2.83
2.88
2.95
2.99
3.00
3.03
3.10
3.22
3.30
3.26
3.05
2.72
2.36
2.08
1.89
1.75
1.62
1.47
1.33
1.25
1.21
1.11
0.82
0.27
-0.51
-1.36
-2.15
-2.77
-3.23
-3.62
-4.01
-4.47
-5.00
-5.61
-6.30
-7.05
-7.80
-8.42
-8.71
-8.53
-7.82
-6.64
-5.16
-3.61
-2.15
-0.88
0.20
1.15
2.02
2.81
3.43
3.80
3.85
3.65
3.32
3.07
3.02
3.20
3.52
3.86
4.12
4.27
4.29
4.22
4.03
3.69
3.19
2.58
1.96
1.43
1.05
0.83
0.72
0.67
0.65
0.66
0.71
0.78
0.82
0.77
0.64
0.45
0.30
0.22
0.21
0.16
-0.07
-0.61
-1.46
-2.46
-3.41
-4.08
-4.45
-4.63
-4.85
-5.34
-6.13
-7.14
-8.11
-8.78
-8.97
-8.60
-7.72
-6.42
-4.84
-3.11
-1.39
0.17
1.45
2.39
2.98
3.29
3.39
3.33
3.17
2.94
2.69
2.49
2.35
2.30
2.29
2.29
2.24
2.12
1.94
1.73
1.52
1.34
1.21
1.13
1.09
1.03
0.91
0.69
0.36
-0.05
-0.50
-0.98
-1.48
-2.01
-2.58
-3.15
-3.67
-4.06
-4.29
-4.36
-4.35
-4.37
-4.53
-4.91
-5.47
-6.10
-6.57
-6.67
-6.23
-5.23
-3.75
-2.02
-0.26
1.31
2.53
3.36
3.80
3.90
3.75
3.44
3.06
2.70
2.43
2.29
2.31
2.45
2.65
2.83
2.93
2.93
2.84
2.71
2.54
2.29
1.96
1.53
1.05
0.60
0.25
0.05
-0.06
-0.16
-0.33
-0.60
-0.92
-1.22
-1.45
-1.62
-1.78
-2.02
-2.37
-2.82
-3.31
-3.75
-4.11
-4.38
-4.65
-5.01
-5.52
-6.16
-6.76
-7.08
-6.89
-6.08
-4.70
-2.98
-1.19
0.43
1.74
2.70
3.30
3.58
3.60
3.48
3.36
3.36
3.52
3.78
4.02
4.14
4.13
4.07
4.08
4.26
4.59
4.99
5.35
5.62
5.79
5.93
6.11
6.34
6.57
6.74
6.80
6.73
6.61
6.53
6.56
6.72
6.95
7.18
7.31
7.30
7.11
6.70
6.02
5.01
3.63
1.88
-0.16
-2.40
-4.75
-7.15
-9.53
-11.80
-13.83
-15.42
-16.35
-16.45
-15.72
-14.32
-12.58
-10.85
-9.42
-8.39
-7.70
-7.14
-6.57
-5.91
-5.25
-4.71
-4.40
-4.30
-4.30
-4.25
-4.02
-3.57
-2.96
-2.26
-1.57
-0.95
-0.40
0.03
0.33
0.46
0.41
0.18
-0.17
-0.55
-0.85
-0.98
-0.94
-0.79
-0.65
-0.63
-0.81
-1.15
-1.58
-2.02
-2.48
-2.97
-3.53
-4.15
-4.75
-5.25
-5.61
-5.83
-5.92
-5.88
-5.65
-5.13
-4.21
-2.91
-1.32
0.35
1.89
3.14
4.00
4.47
4.61
4.52
4.31
4.10
3.95
3.88
3.87
3.89
3.91
3.92
3.98
4.13
4.36
4.64
4.87
4.94
4.81
4.48
4.03
3.55
3.13
2.80
2.55
2.31
2.02
1.65
1.21
0.71
0.21
-0.28
-0.72
-1.08
-1.33
-1.45
-1.50
-1.58
-1.82
-2.35
-3.17
-4.12
-4.95
-5.35
-5.14
-4.25
-2.82
-1.09
0.66
2.19
3.39
4.24
4.79
5.12
5.28
5.28
5.18
5.04
4.96
5.03
5.25
5.55
5.78
5.80
5.56
5.11
4.59
4.14
3.86
3.73
3.70
3.69
3.65
3.55
3.38
3.12
2.79
2.42
2.07
1.79
1.61
1.51
1.40
1.20
0.85
0.34
-0.27
-0.86
-1.34
-1.66
-1.82
-1.86
-1.87
-1.91
-2.02
-2.24
-2.56
-2.96
-3.39
-3.73
-3.81
-3.46
-2.54
-1.09
0.72
2.61
4.29
5.60
6.55
7.30
8.00
8.77
9.64
10.56
11.45
12.29
13.06
13.79
14.45
15.03
15.51
15.90
16.23
16.55
16.88
17.17
17.30
17.13
16.55
15.48
13.92
11.93
9.64
7.25
4.95
2.92
1.24
-0.10
-1.24
-2.39
-3.74
-5.34
-7.10
-8.83
-10.29
-11.36
-12.03
-12.43
-12.72
-13.01
-13.29
-13.48
-13.46
-13.15
-12.54
-11.71
-10.72
-9.62
-8.46
-7.29
-6.25
-5.49
-5.13
-5.18
-5.45
-5.68
-5.58
-4.99
-3.93
-2.58
-1.15
0.21
1.46
2.62
3.69
4.59
5.21
5.43
5.26
4.81
4.27
3.80
3.46
3.21
2.91
2.48
1.88
1.14
0.33
-0.52
-1.46
-2.56
-3.86
-5.34
-6.89
-8.35
-9.62
-10.60
-11.28
-11.69
-11.82
-11.67
-11.21
-10.45
-9.41
-8.18
-6.82
-5.42
-4.07
-2.87
-1.97
-1.49
-1.46
-1.82
-2.41
-2.99
-3.35
-3.34
-2.92
-2.11
-1.04
0.20
1.48
2.72
3.84
4.78
5.52
6.11
6.59
7.04
7.46
7.82
8.00
7.93
7.59
7.06
6.50
6.06
5.86
5.90
6.09
6.27
6.31
6.14
5.78
5.27
4.69
4.09
3.53
3.05
2.67
2.43
2.35
2.42
2.55
2.68
2.73
2.68
2.56
2.43
2.34
2.28
2.18
1.96
1.52
0.85
0.01
-0.90
-1.78
-2.56
-3.19
-3.61
-3.76
-3.57
-3.03
-2.21
-1.21
-0.20
0.68
1.31
1.62
1.56
1.06
0.15
-1.11
-2.55
-3.95
-5.13
-5.98
-6.51
-6.75
-6.73
-6.51
-6.12
-5.62
-5.06
-4.49
-3.92
-3.39
-2.94
-2.63
-2.54
-2.73
-3.16
-3.74
-4.36
-4.90
-5.36
-5.79
-6.28
-6.90
-7.64
-8.45
-9.19
-9.79
-10.24
-10.63
-11.06
-11.60
-12.20
-12.71
-12.89
-12.53
-11.59
-10.13
-8.36
-6.47
-4.59
-2.78
-1.05
0.59
2.05
3.22
3.96
4.19
3.95
3.34
2.56
1.78
1.14
0.66
0.33
0.09
-0.15
-0.42
-0.72
-1.02
-1.25
-1.34
-1.26
-1.05
-0.78
-0.59
-0.60
-0.85
-1.35
-2.02
-2.80
-3.62
-4.47
-5.33
-6.20
-7.08
-7.93
-8.77
-9.64
-10.63
-11.76
-13.01
-14.22
-15.17
-15.62
-15.45
-14.72
-13.64
-12.53
-11.68
-11.22
-11.08
-11.10
-11.00
-10.58
-9.66
-8.12
-5.93
-3.10
0.23
3.85
7.42
10.59
13.10
14.79
15.70
15.99
15.87
15.52
15.03
14.46
13.81
13.05
12.17
11.16
10.03
8.79
7.52
6.31
5.22
4.28
3.41
2.48
1.37
0.05
-1.38
-2.73
-3.79
-4.43
-4.55
-4.17
-3.28
-1.92
-0.10
2.06
4.37
6.59
8.46
9.78
10.49
10.69
10.52
10.19
9.81
9.45
9.10
8.76
8.46
8.24
8.15
8.17
8.21
8.19
8.02
7.68
7.21
6.64
5.99
5.22
4.28
3.12
1.77
0.31
-1.18
-2.63
-4.01
-5.30
-6.40
-7.17
-7.42
-6.96
-5.70
-3.69
-1.07
1.92
5.08
8.23
11.26
14.12
16.75
19.09
21.05
22.57
23.62
24.20
24.32
24.02
23.30
22.12
20.44
18.24
15.55
12.50
9.30
6.18
3.35
0.95
-1.05
-2.77
-4.39
-6.04
-7.78
-9.53
-11.14
-12.49
-13.48
-14.10
-14.34
-14.23
-13.83
-13.22
-12.57
-12.06
-11.87
-12.11
-12.75
-13.68
-14.70
-15.60
-16.18
-16.26
-15.73
-14.55
-12.77
-10.56
-8.20
-5.96
-4.05
-2.53
-1.31
-0.26
0.72
1.63
2.35
2.73
2.72
2.41
1.99
1.72
1.74
2.04
2.51
2.98
3.30
3.43
3.41
3.31
3.16
2.96
2.65
2.22
1.68
1.14
0.73
0.50
0.42
0.32
0.03
-0.58
-1.45
-2.42
-3.23
-3.72
-3.84
-3.72
-3.54
-3.42
-3.44
-3.57
-3.74
-3.95
-4.24
-4.66
-5.26
-5.98
-6.67
-7.16
-7.26
-6.83
-5.87
-4.44
-2.72
-0.96
0.61
1.79
2.50
2.79
2.79
2.69
2.62
2.66
2.77
2.87
2.88
2.76
2.51
2.22
1.96
1.77
1.66
1.59
1.49
1.27
0.88
0.25
-0.63
-1.76
-3.03
-4.28
-5.28
-5.85
-5.91
-5.53
-4.88
-4.15
-3.45
-2.80
-2.11
-1.29
-0.35
0.64
1.50
2.06
2.17
1.78
0.92
-0.27
-1.58
-2.73
-3.50
-3.74
-3.41
-2.59
-1.39
0.07
1.73
3.52
5.35
7.09
8.61
9.81
10.67
11.26
11.62
11.80
11.80
11.61
11.23
10.74
10.19
9.62
9.00
8.36
7.70
7.09
6.60
6.22
5.88
5.47
4.88
4.09
3.13
2.11
1.08
0.10
-0.80
-1.53
-1.96
-2.00
-1.61
-0.90
-0.09
0.53
0.75
0.45
-0.34
-1.51
-2.87
-4.19
-5.29
-6.06
-6.45
-6.52
-6.36
-6.07
-5.76
-5.48
-5.28
-5.25
-5.47
-6.00
-6.82
-7.79
-8.63
-9.02
-8.68
-7.49
-5.54
-3.12
-0.60
1.66
3.43
4.68
5.53
6.15
6.71
7.27
7.83
8.36
8.80
9.12
9.24
9.08
8.53
7.54
6.17
4.59
3.10
1.97
1.33
1.15
1.24
1.38
1.41
1.32
1.20
1.16
1.23
1.35
1.37
1.20
0.83
0.35
-0.09
-0.37
-0.46
-0.44
-0.40
-0.43
-0.55
-0.78
-1.08
-1.40
-1.67
-1.84
-1.88
-1.82
-1.75
-1.78
-2.05
-2.63
-3.53
-4.64
-5.79
-6.75
-7.29
-7.22
-6.45
-5.07
-3.30
-1.46
0.15
1.35
2.09
2.46
2.55
2.46
2.18
1.72
1.10
0.42
-0.16
-0.50
-0.53
-0.29
0.06
0.36
0.49
0.45
0.31
0.25
0.39
0.78
1.32
1.84
2.15
2.17
1.92
1.49
0.99
0.47
-0.09
-0.72
-1.43
-2.17
-2.87
-3.45
-3.88
-4.17
-4.35
-4.41
-4.34
-4.13
-3.85
-3.61
-3.54
-3.70
-4.03
-4.34
-4.42
-4.12
-3.43
-2.49
-1.51
-0.67
-0.02
0.45
0.82
1.12
1.34
1.42
1.35
1.18
1.01
0.96
1.09
1.38
1.78
2.23
2.66
3.03
3.29
3.40
3.37
3.22
3.04
2.91
2.87
2.93
3.03
3.10
3.09
3.00
2.81
2.51
2.06
1.44
0.65
-0.25
-1.19
-2.07
-2.81
-3.40
-3.86
-4.27
-4.72
-5.27
-5.93
-6.64
-7.32
-7.88
-8.24
-8.35
-8.18
-7.68
-6.82
-5.58
-4.01
-2.24
-0.46
1.13
2.35
3.16
3.59
3.75
3.77
3.73
3.68
3.60
3.48
3.35
3.29
3.37
3.58
3.87
4.12
4.26
4.30
4.29
4.29
4.30
4.26
4.05
3.62
3.02
2.39
1.89
1.56
1.31
0.93
0.21
-0.93
-2.42
-4.06
-5.57
-6.76
-7.53
-7.93
-8.09
-8.17
-8.30
-8.51
-8.74
-8.86
-8.70
-8.14
-7.10
-5.62
-3.76
-1.63
0.68
3.07
5.47
7.76
9.85
11.62
12.98
13.91
14.38
14.43
14.10
13.46
12.57
11.50
10.31
9.05
7.76
6.49
5.29
4.18
3.21
2.38
1.67
1.02
0.37
-0.29
-0.89
-1.32
-1.46
-1.27
-0.87
-0.49
-0.39
-0.73
-1.46
-2.39
-3.25
-3.84
-4.12
-4.20
-4.28
-4.54
-5.09
-5.92
-6.92
-7.90
-8.67
-9.02
-8.83
-8.05
-6.77
-5.14
-3.36
-1.63
-0.09
1.16
2.07
2.59
2.70
2.46
1.98
1.40
0.90
0.53
0.29
0.07
-0.24
-0.69
-1.22
-1.71
-2.01
-2.01
-1.74
-1.30
-0.85
-0.51
-0.35
-0.38
-0.51
-0.66
-0.74
-0.69
-0.52
-0.28
-0.05
0.10
0.11
-0.05
-0.34
-0.71
-1.09
-1.45
-1.82
-2.27
-2.87
-3.69
-4.69
-5.80
-6.85
-7.68
-8.13
-8.09
-7.55
-6.60
-5.42
-4.20
-3.12
-2.28
-1.71
-1.33
-1.09
-0.92
-0.79
-0.70
-0.62
-0.51
-0.32
0.01
0.53
1.28
2.27
3.47
4.79
6.12
7.32
8.26
8.90
9.24
9.32
9.21
8.93
8.50
7.94
7.30
6.65
6.04
5.49
4.98
4.48
3.97
3.43
2.89
2.37
1.87
1.36
0.84
0.27
-0.31
-0.88
-1.39
-1.82
-2.20
-2.55
-2.94
-3.43
-4.10
-4.96
-5.90
-6.75
-7.23
-7.11
-6.29
-4.89
-3.16
-1.44
0.03
1.14
1.92
2.47
2.87
3.14
3.26
3.26
3.19
3.12
3.12
3.21
3.36
3.51
3.62
3.69
3.74
3.79
3.86
3.95
4.04
4.11
4.11
4.05
3.89
3.64
3.30
2.90
2.49
2.13
1.86
1.68
1.54
1.36
1.09
0.69
0.22
-0.26
-0.70
-1.08
-1.45
-1.86
-2.37
-2.97
-3.62
-4.26
-4.83
-5.31
-5.70
-6.01
-6.18
-6.17
-5.88
-5.29
-4.41
-3.36
-2.28
-1.33
-0.55
0.06
0.54
0.92
1.16
1.21
1.01
0.63
0.19
-0.15
-0.28
-0.17
0.09
0.41
0.67
0.80
0.78
0.61
0.35
0.07
-0.18
-0.36
-0.47
-0.58
-0.76
-1.04
-1.38
-1.70
-1.91
-2.06
-2.22
-2.52
-2.97
-3.49
-3.93
-4.16
-4.18
-4.07
-4.01
-4.13
-4.45
-4.92
-5.37
-5.65
-5.59
-5.06
-4.01
-2.48
-0.64
1.27
2.97
4.23
4.99
5.32
5.33
5.15
4.85
4.46
4.01
3.59
3.29
3.20
3.38
3.80
4.36
4.94
5.43
5.76
5.94
5.97
5.91
5.81
5.69
5.53
5.30
4.94
4.45
3.86
3.24
2.67
2.21
1.86
1.61
1.39
1.11
0.73
0.21
-0.39
-1.01
-1.57
-2.02
-2.40
-2.78
-3.24
-3.84
-4.53
-5.28
-6.05
-6.79
-7.46
-7.96
-8.10
-7.68
-6.55
-4.76
-2.56
-0.32
1.59
2.96
3.81
4.33
4.69
5.03
5.29
5.38
5.17
4.63
3.82
2.90
2.05
1.38
0.99
0.85
0.89
1.03
1.17
1.25
1.27
1.21
1.09
0.85
0.45
-0.15
-0.88
-1.62
-2.20
-2.51
-2.53
-2.40
-2.29
-2.36
-2.64
-3.07
-3.51
-3.87
-4.11
-4.28
-4.42
-4.58
-4.74
-4.88
-5.02
-5.21
-5.52
-5.97
-6.51
-6.95
-7.07
-6.68
-5.70
-4.21
-2.46
-0.71
0.78
1.90
2.66
3.16
3.55
3.88
4.17
4.37
4.46
4.47
4.50
4.65
4.97
5.44
5.96
6.45
6.86
7.20
7.51
7.79
7.97
7.93
7.53
6.72
5.56
4.20
2.87
1.75
0.93
0.37
-0.04
-0.48
-1.04
-1.76
-2.56
-3.28
-3.80
-4.08
-4.22
-4.38
-4.74
-5.38
-6.26
-7.19
-7.93
-8.28
-8.15
-7.57
-6.64
-5.53
-4.33
-3.15
-2.02
-0.95
0.01
0.85
1.54
2.05
2.38
2.52
2.48
2.28
1.95
1.55
1.19
0.93
0.85
0.97
1.22
1.52
1.76
1.87
1.85
1.71
1.49
1.20
0.82
0.32
-0.28
-0.88
-1.39
-1.71
-1.84
-1.86
-1.94
-2.22
-2.76
-3.50
-4.24
-4.80
-5.03
-4.93
-4.69
-4.53
-4.66
-5.14
-5.86
-6.58
-7.04
-7.06
-6.59
-5.73
-4.61
-3.36
-2.11
-0.91
0.18
1.13
1.91
2.52
3.01
3.43
3.84
4.29
4.79
5.31
5.81
6.20
6.43
6.48
6.37
6.16
5.92
5.71
5.55
5.46
5.42
5.40
5.33
5.15
4.75
4.12
3.28
2.35
1.52
0.93
0.65
0.62
0.67
0.65
0.46
0.13
-0.23
-0.50
-0.66
-0.78
-0.98
-1.34
-1.84
-2.38
-2.84
-3.13
-3.23
-3.13
-2.84
-2.29
-1.45
-0.33
0.97
2.27
3.40
4.25
4.77
4.99
4.94
4.71
4.35
3.96
3.59
3.28
2.98
2.63
2.13
1.48
0.73
0.01
-0.51
-0.73
-0.63
-0.32
-0.01
0.06
-0.27
-1.00
-1.99
-2.98
-3.74
-4.16
-4.32
-4.43
-4.67
-5.16
-5.88
-6.69
-7.44
-8.05
-8.50
-8.88
-9.26
-9.73
-10.37
-11.19
-12.17
-13.19
-14.05
-14.44
-14.04
-12.57
-9.94
-6.29
-2.00
2.41
6.38
9.52
11.61
12.68
12.93
12.59
11.93
11.16
10.40
9.71
9.09
8.43
7.60
6.48
5.04
3.37
1.69
0.20
-0.89
-1.49
-1.62
-1.39
-0.93
-0.41
0.02
0.28
0.36
0.32
0.30
0.44
0.80
1.36
2.00
2.56
2.91
3.02
2.94
2.76
2.56
2.34
2.04
1.57
0.90
0.10
-0.63
-1.06
-1.02
-0.44
0.58
1.80
2.97
3.90
4.47
4.71
4.69
4.50
4.20
3.78
3.22
2.47
1.54
0.54
-0.37
-1.03
-1.32
-1.28
-1.06
-0.90
-0.98
-1.37
-1.99
-2.67
-3.27
-3.77
-4.25
-4.85
-5.65
-6.57
-7.41
-7.94
-7.96
-7.41
-6.33
-4.88
-3.22
-1.51
0.08
1.38
2.25
2.63
2.58
2.25
1.83
1.46
1.19
0.95
0.67
0.29
-0.16
-0.57
-0.84
-0.87
-0.64
-0.13
0.69
1.85
3.32
4.94
6.45
7.53
7.98
7.78
7.08
6.12
5.09
4.05
3.01
1.95
0.94
0.07
-0.52
-0.82
-0.92
-0.99
-1.13
-1.36
-1.57
-1.65
-1.55
-1.36
-1.23
-1.36
-1.83
-2.60
-3.51
-4.34
-4.95
-5.29
-5.38
-5.33
-5.23
-5.15
-5.11
-5.14
-5.24
-5.46
-5.79
-6.24
-6.74
-7.21
-7.59
-7.87
-8.14
-8.54
-9.19
-10.09
-11.11
-11.95
-12.29
-11.87
-10.57
-8.46
-5.72
-2.59
0.69
3.92
6.91
9.47
11.43
12.74
13.45
13.70
13.71
13.60
13.39
13.02
12.44
11.67
10.80
9.97
9.30
8.78
8.34
7.91
7.42
6.89
6.35
5.80
5.17
4.42
3.49
2.42
1.31
0.30
-0.50
-1.07
-1.44
-1.69
-1.89
-2.09
-2.31
-2.56
-2.87
-3.32
-3.96
-4.81
-5.76
-6.60
-7.10
-7.08
-6.49
-5.47
-4.23
-3.00
-1.92
-1.04
-0.34
0.23
0.69
1.04
1.27
1.42
1.53
1.66
1.81
1.94
1.98
1.89
1.69
1.46
1.30
1.31
1.47
1.70
1.91
2.00
1.96
1.79
1.56
1.29
0.98
0.63
0.22
-0.20
-0.60
-0.96
-1.29
-1.66
-2.10
-2.61
-3.16
-3.68
-4.14
-4.53
-4.91
-5.34
-5.89
-6.56
-7.28
-7.93
-8.33
-8.35
-7.92
-7.10
-6.01
-4.78
-3.53
-2.32
-1.19
-0.21
0.54
0.97
1.03
0.77
0.35
-0.00
-0.03
0.41
1.35
2.61
3.90
4.86
5.23
4.94
4.18
3.29
2.63
2.44
2.68
3.13
3.51
3.63
3.48
3.21
2.97
2.80
2.58
2.08
1.14
-0.29
-2.05
-3.87
-5.55
-6.95
-8.02
-8.71
-8.88
-8.33
-6.90
-4.67
-2.01
0.52
2.38
3.25
3.22
2.70
2.21
2.20
2.84
3.99
5.36
6.59
7.40
7.68
7.47
6.87
6.00
4.91
3.67
2.28
0.84
-0.52
-1.59
-2.21
-2.29
-1.86
-1.08
-0.12
0.91
1.95
3.03
4.16
5.23
6.08
6.46
6.20
5.21
3.61
1.64
-0.34
-2.04
-3.26
-3.98
-4.32
-4.49
-4.71
-5.14
-5.85
-6.80
-7.88
-8.93
-9.74
-10.12
-9.95
-9.21
-8.02
-6.56
-5.04
-3.63
-2.44
-1.49
-0.74
-0.06
0.72
1.74
3.06
4.61
6.11
7.25
7.74
7.50
6.71
5.72
4.92
4.59
4.74
5.20
5.65
5.84
5.64
5.15
4.53
3.95
3.46
2.99
2.36
1.47
0.35
-0.84
-1.85
-2.51
-2.80
-2.93
-3.19
-3.91
-5.29
-7.33
-9.82
-12.36
-14.45
-15.58
-15.37
-13.64
-10.55
-6.48
-2.01
2.27
5.90
8.61
10.36
11.25
11.45
11.17
10.57
9.84
9.17
8.78
8.82
9.33
10.20
11.18
11.94
12.19
11.78
10.74
9.19
7.34
5.38
3.41
1.50
-0.34
-2.10
-3.71
-5.07
-6.08
-6.66
-6.85
-6.83
-6.83
-7.07
-7.64
-8.46
-9.37
-10.23
-11.00
-11.81
-12.80
-14.07
-15.54
-16.99
-18.14
-18.76
-18.73
-18.11
-17.02
-15.57
-13.87
-12.01
-10.12
-8.36
-6.89
-5.82
-5.11
-4.62
-4.18
-3.60
-2.77
-1.69
-0.37
1.11
2.69
4.33
5.95
7.50
8.90
10.11
11.10
11.90
12.55
13.09
13.54
13.86
14.02
13.98
13.74
13.35
12.91
12.48
12.09
11.73
11.33
10.85
10.28
9.64
8.96
8.27
7.55
6.77
5.88
4.86
3.67
2.31
0.79
-0.84
-2.46
-3.90
-5.00
-5.64
-5.82
-5.62
-5.18
-4.62
-4.02
-3.44
-2.90
-2.44
-2.08
-1.82
-1.63
-1.47
-1.34
-1.25
-1.26
-1.35
-1.46
-1.47
-1.27
-0.84
-0.23
0.44
1.06
1.56
1.94
2.18
2.24
2.09
1.79
1.41
1.09
0.93
0.93
0.98
0.97
0.78
0.44
0.01
-0.42
-0.81
-1.20
-1.63
-2.15
-2.74
-3.38
-4.03
-4.68
-5.28
-5.74
-5.89
-5.61
-4.80
-3.54
-1.98
-0.37
1.03
2.08
2.74
3.07
3.20
3.27
3.36
3.48
3.61
3.68
3.68
3.63
3.57
3.55
3.60
3.70
3.80
3.86
3.85
3.77
3.64
3.51
3.40
3.33
3.29
3.20
3.01
2.67
2.22
1.77
1.42
1.21
1.08
0.89
0.52
-0.06
-0.77
-1.46
-2.01
-2.35
-2.52
-2.61
-2.73
-2.93
-3.20
-3.52
-3.84
-4.16
-4.51
-4.94
-5.45
-5.98
-6.40
-6.51
-6.14
-5.26
-3.97
-2.53
-1.17
-0.06
0.81
1.52
2.17
2.77
3.25
3.51
3.51
3.32
3.11
3.03
3.13
3.33
3.47
3.43
3.20
2.89
2.63
2.52
2.54
2.65
2.77
2.88
2.97
3.07
3.15
3.14
2.99
2.64
2.08
1.38
0.61
-0.09
-0.64
-0.95
-1.01
-0.90
-0.72
-0.62
-0.71
-1.01
-1.50
-2.09
-2.70
-3.25
-3.70
-4.05
-4.36
-4.70
-5.11
-5.57
-5.93
-6.02
-5.65
-4.79
-3.52
-2.07
-0.68
0.45
1.27
1.83
2.19
2.39
2.41
2.24
1.90
1.53
1.29
1.32
1.63
2.11
2.55
2.78
2.76
2.55
2.32
2.21
2.26
2.40
2.53
2.53
2.36
2.03
1.59
1.12
0.68
0.31
0.05
-0.17
-0.39
-0.70
-1.11
-1.59
-2.05
-2.39
-2.58
-2.66
-2.72
-2.86
-3.13
-3.52
-3.99
-4.47
-4.88
-5.15
-5.21
-4.99
-4.44
-3.54
-2.38
-1.07
0.17
1.18
1.84
2.17
2.28
2.32
2.38
2.46
2.52
2.50
2.39
2.26
2.21
2.33
2.63
3.04
3.44
3.71
3.74
3.52
3.09
2.54
1.99
1.57
1.32
1.22
1.21
1.19
1.14
1.07
1.01
0.97
0.89
0.69
0.29
-0.29
-0.97
-1.58
-2.01
-2.24
-2.37
-2.50
-2.73
-3.07
-3.47
-3.90
-4.31
-4.73
-5.17
-5.62
-6.08
-6.46
-6.69
-6.67
-6.33
-5.59
-4.45
-3.02
-1.49
-0.10
0.98
1.68
2.08
2.31
2.52
2.78
3.03
3.20
3.24
3.18
3.07
3.00
3.00
3.08
3.21
3.38
3.57
3.76
3.86
3.81
3.58
3.25
2.92
2.72
2.68
2.71
2.62
2.26
1.60
0.77
-0.03
-0.60
-0.88
-0.95
-0.98
-1.11
-1.38
-1.73
-2.05
-2.24
-2.32
-2.37
-2.49
-2.74
-3.11
-3.52
-3.92
-4.28
-4.66
-5.11
-5.66
-6.23
-6.72
-6.95
-6.82
-6.27
-5.34
-4.12
-2.76
-1.39
-0.13
0.95
1.84
2.59
3.22
3.74
4.09
4.23
4.12
3.78
3.33
2.86
2.47
2.15
1.90
1.69
1.55
1.54
1.69
1.98
2.34
2.67
2.87
2.89
2.69
2.31
1.80
1.25
0.75
0.37
0.07
-0.22
-0.58
-1.05
-1.56
-2.01
-2.32
-2.50
-2.60
-2.71
-2.85
-2.97
-3.02
-2.98
-2.95
-3.11
-3.56
-4.28
-5.09
-5.69
-5.79
-5.25
-4.12
-2.58
-0.92
0.62
1.86
2.74
3.27
3.48
3.42
3.14
2.73
2.27
1.89
1.65
1.58
1.63
1.74
1.82
1.84
1.82
1.77
1.74
1.75
1.80
1.86
1.86
1.76
1.50
1.07
0.52
-0.06
-0.60
-1.07
-1.50
-1.97
-2.50
-3.02
-3.43
-3.62
-3.61
-3.53
-3.60
-4.02
-4.86
-6.02
-7.29
-8.36
-8.96
-8.90
-8.09
-6.57
-4.53
-2.24
-0.06
1.72
2.94
3.61
3.91
4.06
4.24
4.53
4.87
5.17
5.29
5.19
4.88
4.38
3.75
3.02
2.26
1.56
1.03
0.76
0.79
1.05
1.46
1.88
2.23
2.48
2.60
2.59
2.47
2.23
1.94
1.64
1.41
1.24
1.11
0.94
0.63
0.16
-0.45
-1.12
-1.76
-2.27
-2.62
-2.81
-2.92
-3.04
-3.27
-3.68
-4.24
-4.91
-5.53
-5.95
-6.01
-5.61
-4.73
-3.46
-1.98
-0.51
0.73
1.59
2.05
2.20
2.24
2.32
2.57
2.99
3.50
4.00
4.41
4.69
4.88
5.04
5.20
5.34
5.41
5.31
4.97
4.37
3.57
2.68
1.82
1.09
0.55
0.21
0.07
0.12
0.35
0.76
1.28
1.84
2.32
2.58
2.52
2.05
1.17
-0.02
-1.36
-2.61
-3.57
-4.09
-4.19
-4.00
-3.82
-3.94
-4.61
-5.86
-7.47
-9.00
-9.94
-9.86
-8.59
-6.24
-3.20
0.05
3.10
5.63
7.48
8.59
8.98
8.68
7.82
6.56
5.10
3.62
2.27
1.15
0.29
-0.32
-0.69
-0.91
-1.02
-1.07
-1.08
-1.05
-0.98
-0.90
-0.88
-1.01
-1.36
-1.87
-2.41
-2.83
-3.00
-2.91
-2.63
-2.33
-2.15
-2.21
-2.56
-3.17
-3.94
-4.72
-5.34
-5.63
-5.50
-4.95
-4.08
-3.06
-2.03
-1.07
-0.16
0.74
1.65
2.52
3.24
3.68
3.78
3.64
3.44
3.38
3.58
4.00
4.50
4.88
5.06
5.03
4.87
4.68
4.49
4.30
4.05
3.74
3.38
3.04
2.77
2.60
2.52
2.48
2.40
2.20
1.86
1.42
0.97
0.59
0.36
0.24
0.16
0.02
-0.22
-0.54
-0.85
-1.08
-1.20
-1.27
-1.38
-1.58
-1.86
-2.13
-2.26
-2.13
-1.71
-1.02
-0.15
0.82
1.83
2.83
3.76
4.54
5.03
5.15
4.83
4.09
3.04
1.88
0.84
0.10
-0.22
-0.15
0.17
0.54
0.76
0.72
0.42
-0.03
-0.51
-0.93
-1.27
-1.55
-1.81
-2.06
-2.32
-2.56
-2.77
-2.94
-3.07
-3.12
-3.06
-2.89
-2.61
-2.30
-2.07
-1.97
-2.02
-2.13
-2.20
-2.17
-2.07
-2.01
-2.11
-2.42
-2.92
-3.50
-4.03
-4.42
-4.62
-4.61
-4.41
-4.00
-3.34
-2.42
-1.24
0.14
1.58
2.92
4.02
4.75
5.11
5.17
5.06
4.87
4.66
4.39
3.99
3.46
2.84
2.25
1.80
1.52
1.40
1.35
1.30
1.23
1.16
1.12
1.10
1.06
0.94
0.73
0.47
0.21
0.02
-0.09
-0.20
-0.39
-0.71
-1.16
-1.66
-2.17
-2.62
-3.02
-3.36
-3.63
-3.83
-3.93
-3.97
-4.03
-4.17
-4.42
-4.67
-4.75
-4.52
-3.91
-2.99
-1.92
-0.80
0.28
1.31
2.27
3.11
3.72
4.05
4.13
4.07
4.00
4.01
4.12
4.28
4.40
4.43
4.34
4.12
3.77
3.28
2.70
2.10
1.59
1.26
1.16
1.23
1.36
1.40
1.24
0.86
0.34
-0.14
-0.43
-0.47
-0.32
-0.16
-0.14
-0.31
-0.61
-0.90
-1.06
-1.08
-1.03
-1.06
-1.28
-1.70
-2.26
-2.89
-3.56
-4.29
-5.08
-5.88
-6.50
-6.72
-6.38
-5.45
-4.07
-2.46
-0.86
0.57
1.77
2.71
3.39
3.79
3.89
3.72
3.36
2.96
2.67
2.58
2.70
2.96
3.25
3.46
3.54
3.50
3.39
3.25
3.11
2.97
2.81
2.61
2.35
2.02
1.61
1.11
0.57
0.06
-0.33
-0.50
-0.46
-0.26
-0.07
-0.02
-0.20
-0.61
-1.16
-1.73
-2.20
-2.54
-2.76
-2.89
-2.97
-3.03
-3.13
-3.34
-3.76
-4.42
-5.28
-6.14
-6.75
-6.88
-6.41
-5.41
-4.07
-2.64
-1.29
-0.13
0.82
1.51
1.90
1.98
1.76
1.34
0.86
0.44
0.17
0.05
0.05
0.15
0.31
0.52
0.74
0.89
0.88
0.68
0.34
-0.02
-0.26
-0.30
-0.15
0.09
0.26
0.22
-0.14
-0.83
-1.78
-2.80
-3.62
-3.96
-3.62
-2.58
-1.07
0.52
1.78
2.40
2.32
1.68
0.74
-0.28
-1.19
-1.86
-2.18
-2.02
-1.29
-0.04
1.52
3.08
4.29
4.93
4.91
4.34
3.36
2.16
0.88
-0.33
-1.37
-2.14
-2.62
-2.83
-2.84
-2.70
-2.41
-1.96
-1.32
-0.53
0.31
1.06
1.58
1.82
1.81
1.63
1.40
1.22
1.16
1.20
1.30
1.34
1.24
0.92
0.40
-0.24
-0.86
-1.37
-1.75
-2.05
-2.38
-2.86
-3.53
-4.35
-5.18
-5.83
-6.10
-5.89
-5.21
-4.18
-3.01
-1.91
-0.99
-0.29
0.23
0.67
1.08
1.48
1.90
2.32
2.74
3.15
3.49
3.69
3.69
3.50
3.17
2.86
2.70
2.74
2.95
3.19
3.31
3.21
2.88
2.43
2.00
1.69
1.51
1.38
1.18
0.83
0.39
-0.02
-0.24
-0.25
-0.14
-0.06
-0.19
-0.55
-1.08
-1.64
-2.14
-2.58
-3.04
-3.64
-4.42
-5.29
-6.05
-6.46
-6.35
-5.67
-4.53
-3.15
-1.77
-0.58
0.37
1.13
1.81
2.50
3.20
3.83
4.24
4.35
4.16
3.75
3.27
2.88
2.72
2.85
3.26
3.90
4.66
5.42
6.08
6.54
6.77
6.72
6.37
5.73
4.84
3.75
2.56
1.32
0.11
-1.07
-2.22
-3.36
-4.50
-5.64
-6.78
-7.90
-9.00
-10.08
-11.08
-11.93
-12.54
-12.84
-12.82
-12.51
-11.95
-11.11
-9.92
-8.32
-6.32
-4.03
-1.67
0.50
2.31
3.69
4.66
5.32
5.75
6.00
6.09
6.04
5.88
5.68
5.52
5.44
5.49
5.68
5.98
6.37
6.80
7.21
7.58
7.84
7.97
7.93
7.70
7.29
6.74
6.11
5.48
4.91
4.42
3.97
3.49
2.95
2.34
1.74
1.23
0.85
0.59
0.31
-0.14
-0.86
-1.82
-2.88
-3.79
-4.34
-4.40
-3.99
-3.19
-2.15
-1.01
0.12
1.12
1.91
2.40
2.57
2.44
2.12
1.69
1.25
0.86
0.52
0.23
0.03
-0.05
-0.00
0.16
0.36
0.51
0.55
0.47
0.36
0.30
0.34
0.43
0.48
0.41
0.16
-0.23
-0.67
-1.07
-1.39
-1.66
-1.91
-2.21
-2.54
-2.86
-3.16
-3.39
-3.57
-3.78
-4.06
-4.48
-5.03
-5.68
-6.30
-6.69
-6.70
-6.25
-5.37
-4.20
-2.90
-1.60
-0.37
0.78
1.82
2.71
3.37
3.73
3.76
3.54
3.20
2.90
2.73
2.71
2.82
2.98
3.17
3.34
3.49
3.60
3.63
3.56
3.37
3.10
2.82
2.59
2.44
2.33
2.20
1.93
1.44
0.72
-0.18
-1.13
-2.00
-2.73
-3.35
-3.94
-4.65
-5.53
-6.57
-7.65
-8.62
-9.33
-9.69
-9.65
-9.21
-8.37
-7.18
-5.74
-4.23
-2.80
-1.63
-0.80
-0.35
-0.26
-0.44
-0.77
-1.06
-1.11
-0.79
-0.07
0.91
1.99
3.00
3.90
4.73
5.57
6.46
7.31
7.98
8.33
8.30
7.93
7.31
6.53
5.64
4.70
3.74
2.85
2.11
1.55
1.11
0.69
0.18
-0.48
-1.26
-2.11
-2.98
-3.83
-4.68
-5.46
-6.08
-6.37
-6.20
-5.55
-4.57
-3.45
-2.37
-1.38
-0.46
0.50
1.49
2.42
3.17
3.65
3.91
4.09
4.36
4.80
5.38
5.95
6.39
6.68
6.90
7.16
7.48
7.81
7.95
7.74
7.09
6.13
5.11
4.33
3.95
3.91
3.88
3.45
2.27
0.28
-2.29
-5.00
-7.38
-9.14
-10.23
-10.76
-10.94
-10.93
-10.82
-10.63
-10.39
-10.14
-9.90
-9.63
-9.22
-8.51
-7.36
-5.78
-3.88
-1.88
-0.04
1.51
2.72
3.66
4.43
5.09
5.60
5.90
5.89
5.57
4.99
4.28
3.56
2.90
2.37
1.95
1.64
1.43
1.30
1.20
1.12
1.02
0.85
0.60
0.25
-0.20
-0.74
-1.29
-1.75
-2.03
-2.03
-1.76
-1.32
-0.84
-0.47
-0.30
-0.30
-0.43
-0.57
-0.68
-0.73
-0.75
-0.76
-0.79
-0.85
-0.96
-1.10
-1.25
-1.33
-1.21
-0.80
-0.08
0.84
1.75
2.38
2.62
2.47
2.13
1.82
1.66
1.64
1.62
1.46
1.08
0.60
0.19
0.05
0.27
0.77
1.39
1.94
2.30
2.43
2.33
2.07
1.71
1.31
0.94
0.63
0.38
0.17
-0.06
-0.32
-0.59
-0.84
-1.04
-1.23
-1.51
-1.97
-2.63
-3.42
-4.20
-4.86
-5.34
-5.72
-6.07
-6.46
-6.82
-7.05
-7.02
-6.63
-5.87
-4.82
-3.56
-2.21
-0.87
0.35
1.36
2.08
2.53
2.77
2.89
2.95
2.96
2.85
2.60
2.22
1.81
1.48
1.32
1.34
1.46
1.56
1.55
1.43
1.21
0.94
0.61
0.18
-0.34
-0.92
-1.44
-1.79
-1.92
-1.88
-1.79
-1.76
-1.82
-1.90
-1.90
-1.75
-1.50
-1.29
-1.24
-1.44
-1.83
-2.31
-2.75
-3.09
-3.29
-3.37
-3.32
-3.12
-2.70
-2.03
-1.09
0.08
1.38
2.66
3.80
4.70
5.31
5.63
5.73
5.68
5.56
5.42
5.26
5.07
4.85
4.62
4.41
4.32
4.42
4.74
5.26
5.87
6.41
6.73
6.75
6.51
6.14
5.80
5.60
5.56
5.58
5.53
5.29
4.77
3.89
2.64
0.99
-0.99
-3.18
-5.36
-7.30
-8.83
-9.90
-10.60
-11.10
-11.53
-11.99
-12.48
-12.97
-13.45
-13.89
-14.21
-14.29
-13.99
-13.19
-11.87
-10.10
-8.00
-5.71
-3.33
-0.95
1.34
3.42
5.14
6.35
7.03
7.24
7.19
7.11
7.21
7.57
8.15
8.79
9.29
9.48
9.26
8.68
7.86
6.99
6.27
5.82
5.66
5.66
5.67
5.50
5.04
4.30
3.39
2.48
1.70
1.10
0.67
0.30
-0.06
-0.44
-0.78
-1.03
-1.13
-1.13
-1.10
-1.16
-1.39
-1.75
-2.15
-2.48
-2.66
-2.74
-2.82
-3.02
-3.34
-3.64
-3.66
-3.21
-2.21
-0.79
0.77
2.16
3.14
3.61
3.65
3.40
2.99
2.52
2.03
1.57
1.19
0.95
0.94
1.17
1.61
2.15
2.65
2.95
2.93
2.59
2.00
1.32
0.70
0.21
-0.12
-0.35
-0.52
-0.69
-0.84
-0.98
-1.11
-1.26
-1.44
-1.67
-1.90
-2.08
-2.16
-2.14
-2.08
-2.06
-2.18
-2.54
-3.17
-4.07
-5.13
-6.18
-7.03
-7.48
-7.40
-6.81
-5.80
-4.56
-3.26
-2.03
-0.94
0.03
0.88
1.59
2.07
2.24
2.10
1.71
1.21
0.74
0.36
0.09
-0.10
-0.22
-0.22
-0.03
0.34
0.86
1.41
1.88
2.18
2.28
2.17
1.85
1.33
0.66
-0.06
-0.72
-1.21
-1.55
-1.81
-2.13
-2.59
-3.16
-3.77
-4.31
-4.75
-5.15
-5.58
-6.09
-6.64
-7.12
-7.39
-7.39
-7.13
-6.68
-6.13
-5.50
-4.80
-4.00
-3.04
-1.93
-0.67
0.69
2.08
3.40
4.50
5.26
5.59
5.50
5.11
4.61
4.20
4.02
4.07
4.29
4.56
4.81
5.00
5.13
5.28
5.49
5.76
6.03
6.16
6.01
5.48
4.64
3.67
2.79
2.21
1.96
1.93
1.91
1.72
1.30
0.72
0.16
-0.22
-0.37
-0.37
-0.40
-0.61
-1.08
-1.76
-2.54
-3.30
-3.98
-4.59
-5.14
-5.62
-5.92
-5.90
-5.45
-4.56
-3.31
-1.91
-0.52
0.74
1.84
2.81
3.69
4.45
5.06
5.46
5.62
5.59
5.48
5.38
5.36
5.44
5.54
5.58
5.49
5.21
4.73
4.07
3.27
2.43
1.66
1.09
0.77
0.65
0.61
0.46
0.13
-0.35
-0.86
-1.20
-1.27
-1.09
-0.77
-0.47
-0.30
-0.29
-0.37
-0.46
-0.49
-0.44
-0.39
-0.41
-0.58
-0.95
-1.47
-2.09
-2.73
-3.32
-3.85
-4.32
-4.73
-5.05
-5.30
-5.50
-5.73
-6.06
-6.51
-7.00
-7.33
-7.27
-6.63
-5.41
-3.77
-1.98
-0.35
0.93
1.79
2.30
2.55
2.64
2.63
2.55
2.48
2.50
2.68
3.01
3.45
3.85
4.09
4.10
3.88
3.52
3.15
2.89
2.79
2.85
3.01
3.15
3.17
3.00
2.66
2.24
1.86
1.60
1.44
1.29
1.06
0.71
0.27
-0.15
-0.46
-0.66
-0.85
-1.14
-1.58
-2.12
-2.60
-2.90
-3.01
-3.03
-3.10
-3.33
-3.73
-4.19
-4.63
-4.98
-5.26
-5.51
-5.72
-5.77
-5.54
-4.90
-3.86
-2.56
-1.24
-0.15
0.56
0.88
0.93
0.91
0.97
1.17
1.45
1.69
1.77
1.62
1.24
0.72
0.14
-0.43
-0.94
-1.38
-1.80
-2.26
-2.86
-3.69
-4.77
-6.05
-7.42
-8.70
-9.78
-10.57
-11.06
-11.27
-11.22
-10.90
-10.30
-9.42
-8.23
-6.74
-4.95
-2.92
-0.73
1.50
3.65
5.62
7.45
9.20
10.95
12.67
14.23
15.41
16.05
16.16
15.96
15.78
15.99
16.79
18.19
20.02
22.03
23.98
25.70
27.03
27.86
28.08
27.62
26.48
24.72
22.46
19.80
16.83
13.60
10.18
6.68
3.22
-0.04
-2.98
-5.53
-7.63
-9.26
-10.35
-10.92
-11.09
-11.10
-11.24
-11.70
-12.50
-13.48
-14.34
-14.82
-14.77
-14.22
-13.29
-12.13
-10.86
-9.58
-8.35
-7.24
-6.32
-5.62
-5.14
-4.83
-4.67
-4.65
-4.82
-5.23
-5.91
-6.79
-7.72
-8.48
-8.88
-8.83
-8.39
-7.77
-7.17
-6.77
-6.62
-6.67
-6.83
-7.06
-7.40
-7.95
-8.80
-9.99
-11.49
-13.18
-14.87
-16.35
-17.40
-17.83
-17.48
-16.33
-14.42
-11.95
-9.16
-6.31
-3.61
-1.21
0.80
2.40
3.64
4.63
5.50
6.38
7.35
8.37
9.35
10.10
10.50
10.44
9.86
8.74
7.07
4.87
2.18
-0.87
-4.05
-7.07
-9.65
-11.58
-12.77
-13.32
-13.44
-13.36
-13.22
-12.96
-12.41
-11.36
-9.77
-7.82
-5.92
-4.48
-3.72
-3.56
-3.63
-3.38
-2.30
-0.09
3.33
7.76
12.81
17.89
22.33
25.49
26.91
26.45
24.38
21.29
17.89
14.75
12.20
10.28
8.84
7.69
6.69
5.72
4.69
3.52
2.14
0.65
-0.66
-1.44
-1.42
-0.58
0.79
2.23
3.34
3.95
4.15
4.17
4.19
4.23
4.12
3.70
2.87
1.71
0.43
-0.78
-1.80
-2.65
-3.44
-4.26
-5.15
-6.03
-6.75
-7.16
-7.16
-6.75
-6.06
-5.21
-4.32
-3.46
-2.62
-1.80
-0.99
-0.25
0.31
0.62
0.59
0.18
-0.60
-1.73
-3.12
-4.60
-5.92
-6.85
-7.27
-7.19
-6.78
-6.31
-5.97
-5.85
-5.88
-5.85
-5.46
-4.49
-2.81
-0.48
2.27
5.09
7.68
9.89
11.80
13.59
15.45
17.42
19.31
20.80
21.56
21.42
20.40
18.67
16.43
13.86
11.05
8.05
4.89
1.72
-1.31
-3.99
-6.12
-7.54
-8.20
-8.15
-7.55
-6.66
-5.76
-5.05
-4.63
-4.43
-4.29
-4.01
-3.43
-2.47
-1.16
0.37
1.97
3.51
4.86
5.97
6.82
7.37
7.56
7.30
6.53
5.28
3.71
2.08
0.70
-0.13
-0.28
0.26
1.31
2.58
3.71
4.38
4.39
3.72
2.55
1.15
-0.16
-1.15
-1.72
-1.92
-1.84
-1.62
-1.41
-1.32
-1.46
-1.86
-2.46
-3.14
-3.68
-3.95
-3.84
-3.42
-2.81
-2.22
-1.84
-1.85
-2.36
-3.36
-4.77
-6.40
-7.99
-9.26
-9.97
-10.01
-9.45
-8.58
-7.79
-7.52
-8.06
-9.49
-11.58
-13.92
-15.96
-17.23
-17.44
-16.53
-14.62
-11.96
-8.83
-5.51
-2.19
1.03
4.13
7.19
10.28
13.44
16.62
19.64
22.23
24.03
24.72
24.11
22.25
19.43
16.16
12.96
10.27
8.29
7.03
6.41
6.31
6.62
7.21
7.88
8.34
8.36
7.84
6.87
5.66
4.39
3.13
1.77
0.18
-1.73
-3.91
-6.26
-8.63
-10.92
-13.05
-14.95
-16.48
-17.46
-17.77
-17.39
-16.51
-15.44
-14.54
-14.03
-13.90
-13.94
-13.83
-13.25
-12.03
-10.18
-7.91
-5.51
-3.24
-1.28
0.33
1.66
2.79
3.77
4.55
5.09
5.34
5.37
5.31
5.34
5.55
5.88
6.15
6.12
5.68
4.86
3.88
3.08
2.73
2.97
3.71
4.70
5.62
6.23
6.40
6.16
5.59
4.84
4.07
3.47
3.27
3.61
4.53
5.87
7.29
8.36
8.72
8.17
6.75
4.64
2.19
-0.22
-2.23
-3.52
-3.94
-3.44
-2.13
-0.24
1.98
4.24
6.32
8.04
9.29
10.02
10.21
9.85
8.97
7.60
5.82
3.72
1.45
-0.79
-2.81
-4.40
-5.44
-5.92
-5.99
-5.90
-5.97
-6.40
-7.28
-8.49
-9.78
-10.87
-11.51
-11.61
-11.18
-10.33
-9.20
-7.95
-6.73
-5.65
-4.79
-4.15
-3.63
-3.10
-2.44
-1.64
-0.82
-0.16
0.18
0.18
-0.08
-0.42
-0.67
-0.77
-0.76
-0.72
-0.68
-0.61
-0.44
-0.14
0.21
0.46
0.46
0.16
-0.35
-0.89
-1.31
-1.54
-1.67
-1.85
-2.25
-2.98
-4.08
-5.52
-7.23
-9.12
-11.01
-12.70
-13.94
-14.50
-14.20
-12.99
-10.97
-8.43
-5.76
-3.36
-1.51
-0.27
0.53
1.22
2.04
3.11
4.28
5.32
6.01
6.24
6.11
5.78
5.40
5.06
4.75
4.41
4.03
3.59
3.15
2.72
2.25
1.67
0.87
-0.23
-1.60
-3.13
-4.60
-5.81
-6.60
-6.93
-6.87
-6.60
-6.27
-6.00
-5.83
-5.74
-5.70
-5.67
-5.61
-5.43
-5.02
-4.24
-3.02
-1.36
0.58
2.57
4.36
5.77
6.70
7.17
7.30
7.26
7.15
7.06
6.97
6.81
6.51
6.06
5.47
4.84
4.23
3.68
3.18
2.71
2.25
1.84
1.54
1.40
1.37
1.40
1.39
1.29
1.12
0.91
0.71
0.54
0.36
0.10
-0.26
-0.74
-1.27
-1.79
-2.25
-2.62
-2.91
-3.16
-3.39
-3.63
-3.82
-3.88
-3.69
-3.14
-2.22
-1.00
0.34
1.58
2.55
3.13
3.30
3.15
2.77
2.29
1.80
1.40
1.11
0.96
0.93
0.97
1.06
1.16
1.24
1.32
1.43
1.56
1.72
1.87
1.95
1.91
1.74
1.45
1.08
0.71
0.38
0.12
-0.06
-0.18
-0.29
-0.45
-0.72
-1.10
-1.57
-2.08
-2.57
-3.00
-3.36
-3.63
-3.79
-3.76
-3.47
-2.84
-1.89
-0.72
0.51
1.61
2.49
3.12
3.53
3.78
3.92
3.92
3.76
3.41
2.89
2.27
1.66
1.15
0.80
0.64
0.69
0.90
1.22
1.53
1.74
1.77
1.61
1.29
0.87
0.40
-0.12
-0.66
-1.22
-1.76
-2.22
-2.56
-2.78
-2.93
-3.08
-3.32
-3.69
-4.17
-4.63
-4.91
-4.85
-4.38
-3.53
-2.44
-1.27
-0.16
0.82
1.61
2.20
2.57
2.71
2.65
2.44
2.17
1.90
1.64
1.39
1.14
0.94
0.90
1.06
1.42
1.84
2.14
2.17
1.89
1.40
0.86
0.43
0.19
0.11
0.08
-0.04
-0.33
-0.83
-1.53
-2.36
-3.26
-4.14
-4.89
-5.41
-5.65
-5.54
-5.11
-4.40
-3.47
-2.41
-1.31
-0.23
0.77
1.64
2.35
2.85
3.16
3.30
3.31
3.25
3.14
2.95
2.67
2.28
1.78
1.27
0.87
0.66
0.68
0.87
1.12
1.30
1.35
1.24
1.00
0.66
0.23
-0.25
-0.75
-1.26
-1.74
-2.20
-2.69
-3.25
-3.89
-4.54
-5.06
-5.27
-5.03
-4.28
-3.10
-1.65
-0.18
1.09
2.04
2.68
3.11
3.45
3.79
4.13
4.43
4.64
4.70
4.60
4.37
4.05
3.70
3.36
3.06
2.81
2.62
2.48
2.38
2.35
2.44
2.65
2.94
3.15
3.11
2.67
1.82
0.72
-0.38
-1.22
-1.65
-1.71
-1.58
-1.47
-1.54
-1.84
-2.32
-2.92
-3.60
-4.33
-5.02
-5.52
-5.62
-5.16
-4.08
-2.53
-0.80
0.78
1.98
2.70
3.02
3.14
3.24
3.41
3.67
3.90
3.96
3.77
3.35
2.84
2.48
2.44
2.73
3.21
3.62
3.72
3.46
2.98
2.51
2.26
2.27
2.43
2.58
2.54
2.26
1.80
1.24
0.67
0.13
-0.37
-0.82
-1.21
-1.54
-1.79
-1.96
-2.03
-2.03
-2.01
-2.05
-2.24
-2.64
-3.28
-4.09
-4.92
-5.59
-5.90
-5.73
-5.08
-4.03
-2.74
-1.39
-0.08
1.13
2.21
3.14
3.87
4.32
4.43
4.19
3.68
3.05
2.46
2.05
1.89
1.98
2.22
2.50
2.71
2.80
2.80
2.79
2.86
3.00
3.18
3.28
3.24
3.03
2.71
2.35
2.03
1.75
1.48
1.15
0.74
0.33
0.02
-0.09
-0.00
0.19
0.31
0.20
-0.19
-0.81
-1.49
-2.08
-2.45
-2.58
-2.56
-2.51
-2.56
-2.76
-3.12
-3.53
-3.84
-3.89
-3.59
-2.95
-2.06
-1.03
0.03
1.07
2.02
2.82
3.39
3.64
3.58
3.28
2.91
2.62
2.50
2.54
2.66
2.77
2.82
2.82
2.79
2.73
2.61
2.39
2.08
1.72
1.41
1.26
1.30
1.49
1.68
1.73
1.56
1.18
0.71
0.29
0.01
-0.16
-0.35
-0.65
-1.08
-1.55
-1.91
-2.10
-2.18
-2.28
-2.57
-3.10
-3.78
-4.47
-4.99
-5.25
-5.22
-4.94
-4.44
-3.73
-2.84
-1.79
-0.63
0.53
1.61
2.51
3.16
3.54
3.68
3.63
3.45
3.18
2.85
2.44
2.00
1.58
1.24
1.04
1.02
1.16
1.39
1.60
1.64
1.41
0.87
0.11
-0.68
-1.28
-1.59
-1.65
-1.59
-1.60
-1.78
-2.07
-2.36
-2.53
-2.56
-2.54
-2.60
-2.81
-3.20
-3.65
-4.05
-4.30
-4.35
-4.22
-3.97
-3.63
-3.18
-2.59
-1.83
-0.89
0.18
1.25
2.17
2.80
3.06
2.97
2.62
2.15
1.66
1.19
0.78
0.44
0.24
0.24
0.51
0.98
1.53
1.94
2.08
1.89
1.48
0.99
0.57
0.30
0.14
0.04
-0.05
-0.14
-0.24
-0.36
-0.49
-0.69
-0.96
-1.33
-1.78
-2.26
-2.71
-3.08
-3.34
-3.51
-3.65
-3.77
-3.81
-3.65
-3.12
-2.18
-0.91
0.43
1.53
2.18
2.33
2.11
1.76
1.52
1.48
1.62
1.78
1.85
1.76
1.60
1.47
1.48
1.60
1.74
1.79
1.72
1.57
1.48
1.53
1.71
1.89
1.92
1.72
1.32
0.86
0.47
0.24
0.14
0.09
-0.00
-0.19
-0.47
-0.83
-1.24
-1.66
-2.04
-2.29
-2.38
-2.33
-2.23
-2.25
-2.53
-3.10
-3.80
-4.43
-4.73
-4.57
-3.94
-2.94
-1.73
-0.46
0.74
1.76
2.49
2.84
2.79
2.39
1.82
1.32
1.07
1.14
1.47
1.89
2.21
2.33
2.24
2.05
1.89
1.91
2.15
2.53
2.92
3.15
3.13
2.86
2.46
2.09
1.87
1.81
1.85
1.85
1.74
1.52
1.24
0.99
0.79
0.65
0.53
0.43
0.37
0.39
0.50
0.65
0.76
0.77
0.66
0.47
0.24
0.00
-0.26
-0.55
-0.88
-1.15
-1.29
-1.25
-1.05
-0.83
-0.76
-0.92
-1.29
-1.75
-2.14
-2.37
-2.43
-2.40
-2.40
-2.49
-2.66
-2.88
-3.08
-3.25
-3.38
-3.51
-3.64
-3.78
-3.96
-4.20
-4.49
-4.79
-5.01
-5.02
-4.72
-4.09
-3.17
-2.09
-0.99
0.00
0.81
1.42
1.87
2.19
2.44
2.66
2.88
3.11
3.32
3.49
3.60
3.67
3.70
3.71
3.72
3.74
3.78
3.84
3.92
3.97
3.97
3.85
3.59
3.19
2.70
2.18
1.66
1.15
0.66
0.21
-0.15
-0.32
-0.27
0.00
0.40
0.76
0.92
0.81
0.44
-0.09
-0.62
-1.04
-1.29
-1.37
-1.37
-1.36
-1.41
-1.56
-1.85
-2.25
-2.73
-3.21
-3.57
-3.75
-3.73
-3.56
-3.41
-3.43
-3.74
-4.31
-5.01
-5.61
-5.89
-5.69
-5.03
-4.01
-2.82
-1.63
-0.55
0.41
1.29
2.13
2.89
3.49
3.80
3.76
3.41
2.92
2.48
2.27
2.35
2.64
2.98
3.20
3.21
3.02
2.74
2.51
2.43
2.53
2.74
2.91
2.92
2.72
2.34
1.87
1.42
1.04
0.73
0.46
0.21
-0.01
-0.17
-0.28
-0.39
-0.56
-0.81
-1.11
-1.34
-1.47
-1.50
-1.55
-1.75
-2.18
-2.79
-3.43
-3.92
-4.17
-4.23
-4.24
-4.41
-4.86
-5.59
-6.40
-7.00
-7.08
-6.47
-5.20
-3.54
-1.77
-0.20
1.05
1.97
2.63
3.07
3.30
3.27
2.99
2.54
2.05
1.67
1.49
1.52
1.68
1.86
1.99
2.04
2.04
2.06
2.17
2.42
2.75
3.05
3.18
3.08
2.73
2.24
1.75
1.39
1.20
1.13
1.09
1.00
0.82
0.59
0.38
0.24
0.19
0.18
0.15
0.02
-0.27
-0.72
-1.30
-1.92
-2.49
-2.96
-3.28
-3.47
-3.59
-3.67
-3.79
-4.00
-4.33
-4.84
-5.53
-6.32
-7.08
-7.57
-7.57
-6.94
-5.70
-4.04
-2.27
-0.68
0.51
1.27
1.67
1.85
1.94
2.01
2.06
2.11
2.17
2.30
2.51
2.80
3.12
3.38
3.52
3.52
3.42
3.31
3.28
3.37
3.54
3.70
3.75
3.61
3.27
2.85
2.47
2.21
2.06
1.96
1.80
1.59
1.36
1.21
1.17
1.19
1.12
0.84
0.33
-0.30
-0.85
-1.18
-1.25
-1.16
-1.07
-1.11
-1.30
-1.57
-1.80
-1.96
-2.07
-2.25
-2.57
-3.02
-3.50
-3.90
-4.17
-4.34
-4.50
-4.67
-4.80
-4.74
-4.34
-3.55
-2.44
-1.19
-0.01
0.96
1.67
2.16
2.50
2.76
2.98
3.17
3.30
3.34
3.27
3.14
3.00
2.90
2.85
2.84
2.84
2.87
2.98
3.17
3.41
3.60
3.61
3.38
2.94
2.42
1.97
1.68
1.53
1.42
1.27
1.01
0.69
0.37
0.13
-0.05
-0.18
-0.34
-0.53
-0.76
-0.99
-1.18
-1.31
-1.40
-1.49
-1.64
-1.88
-2.17
-2.47
-2.73
-2.91
-3.01
-3.11
-3.27
-3.56
-3.97
-4.43
-4.79
-4.86
-4.49
-3.65
-2.45
-1.10
0.14
1.12
1.80
2.25
2.58
2.84
2.96
2.87
2.53
2.05
1.62
1.43
1.54
1.88
2.25
2.47
2.46
2.26
2.00
1.82
1.81
1.94
2.12
2.24
2.20
1.94
1.51
0.97
0.45
0.03
-0.23
-0.37
-0.44
-0.52
-0.68
-0.93
-1.28
-1.66
-2.03
-2.33
-2.53
-2.63
-2.66
-2.68
-2.74
-2.91
-3.20
-3.60
-4.03
-4.37
-4.49
-4.31
-3.80
-3.02
-2.09
-1.14
-0.30
0.37
0.88
1.25
1.52
1.72
1.89
2.01
2.09
2.14
2.15
2.13
2.10
2.07
2.06
2.10
2.22
2.43
2.71
2.98
3.15
3.17
3.01
2.72
2.36
2.04
1.80
1.66
1.61
1.59
1.52
1.37
1.13
0.83
0.53
0.28
0.10
-0.06
-0.25
-0.51
-0.86
-1.25
-1.63
-1.95
-2.23
-2.49
-2.76
-3.07
-3.39
-3.70
-3.98
-4.20
-4.35
-4.41
-4.34
-4.11
-3.66
-2.98
-2.10
-1.07
-0.03
0.88
1.54
1.93
2.09
2.13
2.13
2.14
2.12
2.04
1.90
1.79
1.81
2.01
2.35
2.70
2.94
3.01
2.97
2.92
2.93
2.99
3.01
2.90
2.63
2.22
1.78
1.39
1.11
0.95
0.89
0.91
0.97
1.05
1.11
1.11
1.04
0.94
0.83
0.69
0.51
0.25
-0.10
-0.48
-0.77
-0.87
-0.73
-0.37
0.09
0.48
0.67
0.56
0.19
-0.36
-0.94
-1.42
-1.71
-1.80
-1.75
-1.65
-1.61
-1.69
-1.88
-2.14
-2.40
-2.65
-2.87
-3.11
-3.41
-3.77
-4.14
-4.48
-4.71
-4.82
-4.81
-4.71
-4.53
-4.25
-3.86
-3.33
-2.68
-1.92
-1.12
-0.31
0.45
1.14
1.72
2.21
2.63
3.00
3.34
3.62
3.81
3.86
3.76
3.51
3.19
2.88
2.69
2.66
2.76
2.92
3.04
3.04
2.91
2.67
2.40
2.16
1.94
1.73
1.48
1.21
0.99
0.92
1.03
1.27
1.49
1.57
1.48
1.31
1.18
1.18
1.27
1.31
1.18
0.85
0.43
0.09
-0.02
0.09
0.28
0.39
0.31
0.04
-0.35
-0.73
-1.03
-1.22
-1.29
-1.26
-1.21
-1.20
-1.35
-1.69
-2.20
-2.76
-3.24
-3.53
-3.65
-3.68
-3.73
-3.87
-4.10
-4.41
-4.75
-5.10
-5.39
-5.51
-5.33
-4.72
-3.69
-2.38
-1.03
0.15
1.04
1.65
2.03
2.29
2.45
2.52
2.47
2.34
2.16
1.99
1.82
1.66
1.48
1.31
1.19
1.20
1.39
1.74
2.18
2.59
2.86
2.94
2.80
2.50
2.08
1.64
1.23
0.92
0.74
0.68
0.74
0.83
0.90
0.86
0.71
0.44
0.13
-0.17
-0.41
-0.62
-0.82
-1.08
-1.40
-1.75
-2.09
-2.40
-2.67
-2.93
-3.19
-3.46
-3.72
-3.93
-4.11
-4.32
-4.63
-5.10
-5.69
-6.26
-6.59
-6.47
-5.80
-4.62
-3.13
-1.60
-0.28
0.68
1.24
1.45
1.44
1.35
1.31
1.42
1.72
2.18
2.68
3.12
3.42
3.54
3.48
3.26
2.90
2.45
2.02
1.73
1.69
1.93
2.36
2.83
3.18
3.32
3.24
2.99
2.64
2.26
1.91
1.62
1.41
1.28
1.18
1.07
0.88
0.60
0.27
-0.05
-0.26
-0.29
-0.17
0.01
0.15
0.16
0.02
-0.22
-0.46
-0.66
-0.83
-1.01
-1.24
-1.48
-1.69
-1.80
-1.77
-1.65
-1.50
-1.35
-1.23
-1.09
-0.87
-0.56
-0.16
0.30
0.80
1.33
1.88
2.40
2.84
3.15
3.28
3.27
3.13
2.85
2.42
1.76
0.89
-0.07
-0.86
-1.19
-0.82
0.32
2.01
3.88
5.51
6.58
7.03
7.02
6.82
6.66
6.65
6.73
6.78
6.69
6.48
6.22
5.99
5.79
5.52
5.04
4.29
3.33
2.35
1.55
1.11
1.00
1.08
1.10
0.86
0.27
-0.61
-1.61
-2.53
-3.19
-3.54
-3.64
-3.62
-3.66
-3.88
-4.35
-5.01
-5.72
-6.31
-6.60
-6.53
-6.10
-5.39
-4.48
-3.48
-2.43
-1.39
-0.41
0.41
0.95
1.15
