1565007307.00
64.000000
-0.00
-0.00
-0.00
-0.00
-0.00
-0.00
-0.00
-0.00
-0.00
-0.00
0.00
0.01
0.01
-0.00
-0.03
-0.05
-0.05
0.00
0.13
0.36
0.66
1.01
1.37
1.72
2.06
2.40
2.79
3.24
3.80
4.42
5.06
5.66
6.20
6.68
7.15
7.68
8.31
9.14
10.09
11.04
11.88
12.56
13.14
13.76
14.65
15.96
17.91
20.32
22.90
25.38
27.58
29.57
31.68
34.32
37.81
42.54
48.15
54.10
59.83
64.97
69.58
74.14
79.34
85.72
93.79
103.05
112.71
121.87
129.98
137.05
143.70
151.27
158.44
167.47
178.96
193.00
208.39
222.21
230.12
227.48
210.91
179.53
135.71
83.31
26.66
-31.00
-88.10
-144.38
-199.94
-254.50
-307.24
-356.72
-402.05
-442.52
-477.54
-506.15
-526.90
-537.95
-537.51
-524.53
-498.81
-461.63
-415.13
-361.96
-304.68
-245.45
-185.90
-127.26
-70.63
-16.99
32.53
76.98
115.72
148.65
176.21
199.15
218.29
234.17
247.00
256.74
263.40
267.18
268.71
268.83
268.27
267.17
264.98
260.58
252.69
240.48
223.76
203.33
180.58
156.88
132.91
108.41
82.33
53.44
21.89
-11.47
-44.60
-75.13
-101.01
-121.51
-137.49
-151.04
-164.75
-181.01
-201.59
-226.91
-255.49
-283.58
-305.50
-315.19
-308.53
-285.48
-250.52
-211.35
-175.76
-148.84
-131.76
-122.92
-119.70
-120.54
-125.36
-133.85
-144.16
-151.66
-150.20
-134.35
-101.60
-53.21
6.54
71.60
135.68
192.79
238.11
268.78
285.13
291.39
294.20
299.16
306.92
311.72
303.96
276.34
229.71
174.36
126.08
98.35
96.03
113.73
139.44
160.39
167.55
156.84
127.77
82.40
24.82
-38.30
-97.92
-145.15
-174.51
-186.26
-185.60
-179.90
-174.98
-173.36
-174.50
-176.83
-179.14
-180.62
-180.17
-175.66
-164.52
-144.53
-115.35
-78.73
-37.76
4.31
45.34
84.57
121.86
156.45
186.37
208.56
220.10
219.58
207.94
188.17
164.16
139.34
115.92
94.96
76.97
62.47
51.89
45.06
40.84
37.22
32.12
24.40
14.47
4.22
-4.00
-8.48
-9.25
-8.01
-7.27
-9.06
-13.80
-20.20
-25.96
-29.05
-28.72
-25.89
-22.47
-20.22
-19.77
-20.29
-20.14
-17.90
-13.44
-8.12
-4.15
-3.14
-5.09
-8.28
-10.05
-8.47
-3.66
2.06
5.57
4.77
0.26
-4.92
-7.01
-3.89
3.15
10.06
12.36
7.93
-1.57
-11.32
-16.00
-13.13
-4.45
4.88
9.09
4.98
-6.12
-19.29
-28.76
-31.07
-26.71
-19.51
-14.26
-13.62
-16.65
-19.38
-17.50
-9.29
3.00
14.00
18.28
13.53
2.20
-9.91
-16.72
-15.28
-7.48
1.15
4.67
0.43
-9.54
-19.57
-23.89
-20.08
-10.63
-1.20
2.61
-1.48
-11.07
-20.81
-25.56
-23.43
-16.57
-9.60
-6.66
-8.84
-13.90
-17.72
-17.08
-11.63
-3.94
2.14
3.73
0.57
-4.95
-9.24
-9.43
-5.10
1.62
7.28
8.94
5.82
-0.46
-6.60
-9.44
-7.68
-2.50
3.16
6.15
4.88
0.23
-4.93
-7.42
-5.63
-0.36
5.51
8.75
7.75
3.36
-1.67
-4.43
-3.46
0.35
4.37
5.99
4.24
0.30
-3.23
-3.91
-0.94
4.30
8.93
10.26
7.28
1.24
-4.99
-8.46
-7.70
-3.54
1.50
4.63
4.42
1.55
-1.74
-3.04
-1.27
2.65
6.39
7.70
5.81
1.90
-1.53
-2.27
0.25
4.56
7.96
8.08
4.40
-1.42
-6.47
-8.29
-6.24
-1.85
2.06
3.19
1.07
-2.71
-5.52
-5.27
-1.76
3.20
6.85
7.13
3.92
-0.91
-4.55
-4.93
-1.92
2.60
5.89
5.96
2.65
-2.33
-6.41
-7.68
-5.92
-2.58
0.15
0.63
-1.27
-4.11
-5.78
-4.80
-1.28
3.14
6.09
5.93
2.77
-1.58
-4.55
-4.28
-0.79
4.07
7.71
8.26
5.75
1.95
-0.65
-0.39
2.59
6.41
8.59
7.49
3.37
-1.78
-5.40
-5.79
-3.10
0.81
3.38
2.90
-0.54
-5.10
-8.28
-8.40
-5.53
-1.45
1.36
1.33
-1.38
-4.99
-7.11
-6.19
-2.50
2.06
5.15
5.24
2.53
-1.18
-3.60
-3.30
-0.51
3.06
5.23
4.57
1.39
-2.44
-4.55
-3.42
0.67
5.72
9.07
8.93
5.42
0.47
-3.27
-3.96
-1.56
2.15
4.66
4.31
1.21
-2.89
-5.58
-5.27
-2.18
1.87
4.49
4.07
0.75
-3.66
-6.71
-6.73
-3.80
0.35
3.31
3.44
0.85
-2.75
-5.05
-4.56
-1.48
2.37
4.71
4.11
0.90
-3.04
-5.36
-4.65
-1.33
2.68
5.11
4.69
1.87
-1.42
-2.92
-1.47
2.29
6.28
8.22
6.88
2.98
-1.30
-3.57
-2.63
0.84
4.71
6.56
5.11
1.03
-3.53
-6.17
-5.57
-2.27
1.66
3.87
3.10
-0.15
-3.97
-6.16
-5.51
-2.49
1.05
3.03
2.43
-0.22
-3.14
-4.41
-3.19
-0.26
2.49
3.29
1.47
-1.96
-4.90
-5.38
-2.79
1.71
5.81
7.34
5.38
0.88
-3.89
-6.59
-6.07
-2.96
0.76
2.95
2.54
0.19
-2.17
-2.59
-0.34
3.59
7.02
7.83
5.36
0.87
-3.20
-4.61
-2.64
1.48
5.22
6.28
3.91
-0.66
-4.97
-6.70
-5.02
-1.07
2.70
4.01
2.03
-2.13
-6.11
-7.62
-5.80
-1.71
2.31
3.97
2.38
-1.47
-5.23
-6.54
-4.45
0.07
4.62
6.76
5.40
1.58
-2.22
-3.55
-1.53
2.65
6.44
7.45
5.05
0.75
-2.79
-3.38
-0.75
3.34
6.12
5.58
1.68
-3.57
-7.37
-7.81
-4.89
-0.46
2.93
3.50
1.23
-2.21
-4.56
-4.26
-1.42
2.39
4.93
4.75
1.93
-1.92
-4.65
-4.74
-2.24
1.35
4.00
4.25
2.15
-0.94
-3.10
-3.05
-0.86
2.03
3.79
3.28
0.66
-2.53
-4.32
-3.46
-0.22
3.78
6.41
6.15
3.09
-1.18
-4.45
-5.21
-3.43
-0.54
1.44
1.09
-1.42
-4.49
-6.10
-4.92
-1.16
3.50
6.88
7.43
5.15
1.44
-1.70
-2.86
-1.87
0.09
1.25
0.46
-2.16
-5.19
-6.73
-5.51
-1.75
2.88
6.14
6.45
3.81
-0.21
-3.22
-3.47
-0.83
3.06
5.81
5.57
2.16
-2.77
-6.66
-7.50
-5.03
-0.88
2.39
2.71
-0.16
-4.48
-7.46
-7.02
-3.02
2.62
6.98
7.86
5.13
0.83
-2.20
-1.95
1.47
5.95
8.66
7.76
3.65
-1.35
-4.38
-3.72
0.19
5.03
7.96
7.28
3.40
-1.46
-4.65
-4.64
-1.86
1.62
3.30
1.85
-2.16
-6.59
-9.06
-8.30
-4.88
-0.75
1.87
1.86
-0.28
-2.75
-3.66
-2.16
1.04
4.11
5.16
3.46
-0.16
-3.63
-4.85
-2.86
1.55
6.18
8.58
7.44
3.31
-1.64
-4.86
-4.90
-2.13
1.47
3.50
2.58
-0.84
-4.79
-6.93
-5.98
-2.42
1.75
4.22
3.63
0.41
-3.46
-5.62
-4.69
-1.04
3.38
6.14
5.75
2.54
-1.53
-4.08
-3.78
-1.08
2.09
3.53
2.19
-1.11
-4.27
-5.17
-3.10
0.80
4.14
4.78
2.10
-2.57
-6.66
-7.82
-5.25
-0.20
4.68
6.88
5.40
1.28
-2.97
-4.82
-3.20
0.87
4.80
6.02
3.50
-1.61
-6.58
-8.63
-6.63
-1.64
3.58
6.26
5.25
1.56
-2.27
-3.83
-2.16
1.61
5.04
5.89
3.51
-0.81
-4.56
-5.56
-3.22
1.17
5.11
6.36
4.21
-0.08
-4.12
-5.69
-3.94
0.05
4.00
5.71
4.41
1.14
-1.91
-2.66
-0.52
3.30
6.38
6.55
3.31
-1.85
-6.28
-7.61
-5.16
-0.36
3.97
5.33
2.95
-1.81
-6.25
-7.83
-5.70
-1.13
3.15
4.68
2.64
-1.61
-5.43
-6.48
-4.05
0.42
4.38
5.67
3.86
0.44
-2.18
-2.14
0.67
4.57
7.15
6.66
3.17
-1.51
-4.77
-4.82
-1.68
2.84
6.09
6.12
2.82
-1.99
-5.65
-6.21
-3.64
0.26
2.89
2.46
-0.82
-4.87
-7.04
-5.71
-1.27
4.03
7.37
7.05
3.46
-1.27
-4.46
-4.45
-1.57
2.14
4.24
3.32
-0.07
-3.94
-5.88
-4.54
-0.48
4.21
7.05
6.61
3.19
-1.32
-4.51
-4.84
-2.49
0.83
2.93
2.43
-0.41
-3.71
-5.13
-3.39
1.05
6.08
9.06
8.35
4.34
-0.86
-4.55
-4.94
-2.19
1.72
4.19
3.54
0.10
-4.12
-6.53
-5.55
-1.56
3.26
6.23
5.69
1.95
-2.80
-5.81
-5.35
-1.72
2.89
5.72
4.93
0.76
-4.57
-8.16
-8.10
-4.57
0.39
4.01
4.44
1.94
-1.44
-3.17
-1.78
2.18
6.49
8.54
6.91
2.24
-3.19
-6.82
-7.17
-4.63
-1.18
0.90
0.31
-2.61
-6.07
-7.90
-6.84
-3.38
0.54
2.60
1.53
-2.19
-6.43
-8.64
-7.33
-3.02
2.03
5.19
4.91
1.77
-1.90
-3.45
-1.54
2.97
7.60
9.67
7.76
2.63
-3.32
-7.43
-8.28
-6.24
-3.23
-1.53
-2.46
-5.57
-9.04
-10.65
-9.06
-4.57
0.87
4.68
5.21
2.52
-1.50
-4.31
-4.10
-1.00
3.00
5.37
4.69
1.51
-1.85
-2.56
0.78
7.15
13.55
16.76
15.10
9.57
3.53
0.70
2.96
9.00
15.17
17.54
14.33
7.27
0.71
-1.12
3.22
11.34
18.22
19.11
12.57
1.51
-8.51
-12.61
-9.33
-1.64
4.88
5.37
-1.11
-11.07
-18.65
-18.98
-11.15
1.03
11.02
13.61
7.71
-3.21
-12.98
-16.38
-12.00
-3.08
4.76
6.67
1.34
-8.41
-17.16
-20.10
-15.73
-6.52
2.77
7.51
5.92
0.12
-5.34
-6.18
-0.85
8.22
15.88
17.18
10.31
-2.09
-14.23
-20.32
-17.66
-8.23
2.35
8.33
7.20
0.93
-5.13
-5.74
0.83
11.45
20.05
21.18
13.38
0.29
-11.22
-15.08
-9.64
1.46
11.42
14.04
7.40
-4.88
-16.05
-20.04
-14.91
-3.94
6.22
9.67
4.59
-5.81
-15.26
-18.14
-12.93
-2.96
5.66
7.81
2.44
-6.78
-13.73
-13.61
-5.89
5.25
13.48
14.16
7.26
-2.64
-9.10
-7.66
1.39
13.13
20.97
20.52
12.17
0.88
-6.79
-6.50
1.38
12.04
19.16
18.64
11.03
1.15
-4.82
-3.07
5.32
14.99
19.30
14.32
1.38
-13.30
-22.10
-20.37
-9.00
5.86
16.26
16.74
7.53
-5.83
-15.84
-17.32
-10.30
0.24
7.34
6.39
-2.06
-12.92
-19.37
-16.99
-6.49
6.46
14.57
13.21
3.00
-10.43
-19.58
-19.36
-10.07
2.75
11.77
11.87
3.06
-9.76
-19.70
-21.95
-16.28
-6.76
0.92
2.79
-1.18
-7.50
-11.42
-10.01
-3.96
3.12
6.86
4.97
-1.05
-6.66
-6.93
0.31
12.86
24.88
29.87
24.60
11.28
-3.34
-11.69
-9.51
1.66
15.07
22.73
20.00
8.09
-6.92
-17.53
-19.22
-12.88
-3.94
1.21
-0.88
-8.89
-17.63
-21.18
-16.64
-5.93
5.38
11.39
9.09
0.18
-9.61
-14.03
-9.92
0.81
12.25
17.85
14.24
3.47
-8.10
-13.56
-9.61
1.41
12.86
17.72
12.95
1.38
-9.92
-13.73
-6.96
7.25
21.34
27.72
23.00
9.76
-4.96
-13.75
-13.18
-5.46
3.24
6.85
3.01
-5.55
-12.60
-12.44
-3.49
10.35
21.86
24.66
16.91
2.53
-10.78
-15.69
-9.54
4.25
17.85
23.46
17.82
3.88
-10.87
-18.73
-16.13
-5.68
5.68
11.11
7.87
-1.26
-9.81
-11.76
-5.29
6.00
15.29
16.81
9.30
-3.13
-13.50
-15.87
-8.76
3.94
15.26
19.03
13.65
2.80
-6.71
-8.88
-2.01
10.26
20.96
23.82
16.87
3.62
-9.16
-15.35
-12.78
-4.31
3.98
6.53
1.62
-7.78
-15.97
-18.00
-12.47
-2.46
6.25
8.50
2.79
-7.80
-17.57
-21.39
-17.65
-9.33
-2.03
-0.73
-6.62
-16.17
-23.03
-21.85
-11.46
3.97
17.19
21.94
16.27
3.78
-8.54
-14.18
-10.69
-0.76
9.55
14.49
11.98
4.50
-2.51
-4.11
1.16
10.49
18.41
20.19
14.60
4.67
-4.35
-7.95
-4.92
1.92
7.40
7.18
0.45
-9.61
-17.68
-19.35
-13.67
-3.74
4.94
7.82
3.88
-3.81
-10.04
-10.53
-4.58
4.38
10.59
9.49
0.81
-11.27
-20.23
-20.92
-12.53
0.90
12.79
17.81
15.00
8.13
3.19
4.45
11.74
20.58
24.77
20.33
8.07
-6.55
-16.67
-17.94
-11.03
-1.05
5.51
4.71
-2.79
-12.10
-17.00
-13.93
-4.06
7.35
13.83
11.29
0.60
-12.83
-21.92
-21.94
-13.21
-0.91
7.96
8.57
1.03
-9.71
-16.75
-15.48
-6.38
5.22
12.58
11.70
3.64
-6.01
-10.62
-6.59
4.48
16.73
23.59
21.77
12.81
1.84
-5.32
-5.51
0.06
6.99
10.57
8.43
1.75
-5.78
-10.10
-9.13
-3.78
2.45
5.44
3.03
-3.82
-11.49
-15.58
-13.36
-5.54
4.04
10.64
11.36
6.68
0.09
-4.17
-3.82
0.11
3.83
3.56
-1.87
-10.02
-16.36
-17.00
-10.90
-1.04
7.33
9.77
5.15
-3.52
-10.91
-12.38
-6.87
2.41
9.75
10.35
3.26
-7.94
-17.03
-18.84
-12.20
-0.84
8.90
11.73
6.67
-2.44
-9.24
-8.92
-1.19
9.71
17.41
17.47
10.09
0.12
-5.76
-3.14
7.66
21.36
30.69
30.61
21.12
7.19
-4.13
-7.59
-2.67
6.38
13.06
12.70
4.98
-6.09
-14.77
-17.22
-13.54
-7.56
-4.19
-6.15
-12.25
-18.06
-18.55
-11.23
1.99
15.55
22.99
20.56
9.41
-4.51
-13.45
-12.10
-0.66
15.01
26.32
26.75
15.78
-0.72
-13.72
-16.34
-7.83
6.05
16.32
16.30
5.62
-9.57
-20.61
-21.49
-12.36
0.97
10.77
12.25
6.05
-2.56
-7.27
-4.71
3.54
12.15
15.53
11.36
2.07
-6.69
-9.37
-3.66
7.74
18.66
22.96
17.75
5.10
-9.10
-18.44
-19.35
-13.06
-4.52
0.53
-0.96
-7.87
-15.72
-19.59
-16.99
-9.37
-1.20
2.64
-0.33
-8.78
-18.22
-23.42
-21.30
-12.49
-1.01
8.10
11.53
9.36
4.60
1.15
1.65
5.70
10.25
11.69
8.04
0.38
-7.67
-11.96
-10.04
-2.78
6.17
12.24
12.55
7.39
0.13
-4.52
-3.46
3.03
11.10
15.61
12.94
3.26
-9.43
-19.42
-22.49
-18.11
-9.56
-1.84
1.49
0.28
-2.19
-1.66
4.19
13.85
22.66
25.37
19.56
7.38
-5.53
-13.05
-11.97
-4.04
4.88
8.48
3.74
-7.27
-18.62
-23.90
-20.21
-9.96
0.56
5.02
0.80
-9.49
-19.36
-22.32
-15.77
-2.79
9.70
15.11
10.75
-0.77
-12.99
-19.60
-17.87
-10.03
-1.45
2.68
0.42
-5.65
-10.09
-8.21
0.91
13.78
24.18
26.89
20.70
9.44
-0.16
-2.25
4.65
16.63
26.51
27.98
19.42
4.82
-8.32
-13.36
-8.18
3.69
14.98
19.08
13.68
2.07
-8.86
-12.84
-7.88
2.59
11.77
13.89
7.84
-2.11
-8.88
-7.35
2.30
14.38
21.07
17.36
4.48
-10.64
-19.26
-15.91
-1.85
15.59
27.01
26.13
13.12
-5.87
-22.04
-28.87
-25.51
-16.51
-8.71
-7.08
-12.06
-19.60
-23.76
-20.68
-11.00
0.71
8.45
8.40
1.03
-8.86
-14.87
-12.72
-2.62
11.03
21.92
25.31
20.96
12.94
7.06
7.38
13.58
21.22
24.44
19.83
8.62
-3.99
-11.75
-10.89
-2.46
8.23
14.65
12.61
2.39
-11.35
-22.09
-25.19
-20.25
-11.34
-4.72
-4.93
-12.05
-21.31
-25.89
-21.01
-7.35
9.27
20.82
21.84
12.88
0.04
-8.77
-8.46
0.28
11.49
17.83
15.17
5.03
-6.49
-12.45
-9.24
1.28
12.56
17.44
12.39
-0.58
-14.77
-22.56
-19.88
-8.31
5.77
14.82
14.18
4.67
-7.90
-16.31
-16.01
-7.65
3.69
11.40
11.23
3.98
-5.18
-10.06
-7.19
2.05
12.28
17.33
14.17
4.72
-5.33
-10.07
-6.95
2.00
11.10
14.44
9.58
-1.27
-12.52
-18.31
-15.70
-6.36
4.57
11.39
10.97
4.33
-3.97
-8.38
-5.81
2.38
11.26
15.12
10.88
0.08
-11.56
-17.51
-14.19
-3.48
8.31
13.87
9.36
-3.16
-16.44
-22.32
-16.64
-1.69
14.92
24.63
22.81
11.43
-2.36
-10.50
-8.73
1.03
12.16
17.42
13.34
2.27
-9.27
-14.45
-10.25
0.63
11.36
15.10
9.14
-3.42
-15.30
-19.40
-12.85
1.14
15.12
21.51
17.08
4.56
-8.99
-16.22
-13.64
-3.65
7.01
11.50
6.73
-4.89
-16.97
-23.01
-20.26
-11.37
-2.55
0.20
-5.20
-15.74
-25.07
-27.35
-20.83
-8.76
2.55
7.68
4.92
-2.67
-9.16
-9.59
-2.89
7.56
16.06
17.91
12.49
3.68
-2.53
-1.65
6.49
17.64
25.14
23.89
13.65
-0.64
-11.64
-13.82
-6.58
5.28
14.36
15.22
7.63
-3.45
-10.90
-9.85
-0.75
10.84
17.64
15.29
4.69
-8.36
-16.52
-15.34
-5.87
6.14
13.60
12.22
2.99
-8.20
-14.13
-10.61
0.98
14.47
22.22
19.56
7.79
-6.42
-15.01
-13.10
-1.79
12.34
21.16
19.73
9.05
-4.82
-14.37
-15.01
-7.58
2.26
7.66
4.66
-5.71
-18.03
-25.61
-24.32
-14.83
-2.05
7.71
10.21
5.54
-2.05
-6.89
-5.41
1.82
10.55
15.23
12.66
4.13
-5.19
-9.37
-5.28
5.50
17.22
23.45
20.77
10.80
-0.77
-7.48
-5.80
2.65
11.95
15.45
9.81
-3.10
-16.88
-24.14
-20.95
-9.18
4.46
12.19
9.45
-2.24
-16.05
-23.76
-20.48
-7.78
7.58
17.31
16.37
5.92
-7.43
-15.63
-14.08
-4.00
8.12
14.60
11.29
0.11
-12.07
-17.72
-13.15
-0.72
12.50
18.90
15.08
3.60
-8.61
-14.47
-10.78
-0.15
10.79
15.51
11.32
0.81
-9.89
-14.80
-11.48
-2.37
6.71
10.31
6.38
-2.66
-11.47
-15.07
-11.78
-4.13
2.81
4.53
-0.14
-8.25
-14.44
-14.07
-6.16
5.75
15.37
17.05
9.23
-4.61
-17.63
-23.47
-19.71
-9.18
1.84
7.27
4.83
-2.82
-9.90
-11.15
-5.19
4.79
12.90
14.09
7.20
-3.99
-12.83
-13.79
-5.41
8.47
20.67
24.73
18.71
6.56
-4.25
-6.99
0.33
13.74
25.30
27.93
19.88
5.63
-6.65
-9.70
-1.74
12.56
24.73
27.42
18.48
2.05
-13.96
-22.37
-20.61
-12.08
-3.43
-0.47
-4.77
-12.98
-19.11
-18.46
-10.46
0.85
9.17
9.66
1.77
-10.20
-19.51
-20.76
-12.90
0.21
11.93
16.75
13.29
4.74
-3.19
-5.61
-1.49
6.09
11.82
11.35
3.89
-7.25
-16.67
-19.85
-15.48
-6.17
3.06
7.58
5.65
-0.45
-6.00
-6.66
-1.12
7.85
14.95
15.74
9.71
0.84
-4.76
-2.77
6.60
18.39
25.61
23.47
12.61
-1.37
-10.99
-11.18
-2.33
9.95
18.10
16.97
6.62
-7.81
-19.14
-22.19
-16.59
-6.75
1.25
3.14
-1.30
-8.23
-12.25
-10.08
-2.26
6.93
12.19
10.17
1.48
-9.31
-16.40
-15.92
-8.18
2.70
10.98
12.26
6.24
-3.41
-11.17
-12.96
-8.38
-0.79
4.68
4.48
-1.09
-8.09
-11.36
-7.73
1.94
12.94
19.44
17.97
9.42
-1.53
-9.02
-9.50
-3.49
4.56
9.20
7.12
-1.03
-10.90
-17.07
-15.79
-7.45
3.73
12.06
13.42
7.65
-1.35
-7.79
-7.44
-0.44
8.79
14.03
10.91
-0.08
-13.53
-22.12
-20.80
-10.09
4.30
14.47
15.00
5.98
-7.02
-16.22
-16.32
-7.34
5.49
14.90
15.80
8.23
-2.86
-10.86
-11.28
-4.43
4.98
10.89
9.58
1.87
-7.17
-11.43
-7.44
3.52
15.80
22.62
20.11
9.60
-3.03
-10.92
-9.91
-1.22
9.44
15.20
12.41
2.62
-8.63
-15.02
-13.52
-6.23
1.14
2.90
-3.01
-13.72
-23.21
-25.96
-20.20
-9.12
0.99
4.45
-0.41
-10.43
-19.27
-21.05
-13.65
0.12
14.25
22.84
23.29
17.41
10.07
6.19
7.85
13.27
18.13
18.23
12.16
2.27
-6.49
-9.26
-4.39
5.65
15.45
19.53
15.51
5.57
-4.86
-10.32
-8.46
-1.29
6.17
9.03
5.58
-1.52
-7.06
-6.68
0.49
10.99
18.95
19.40
11.36
-1.55
-13.09
-17.69
-13.53
-3.60
5.97
9.57
5.29
-4.22
-13.22
-16.22
-11.37
-1.52
7.63
10.93
6.78
-1.81
-9.05
-9.99
-3.60
6.53
14.48
15.50
8.76
-2.04
-11.04
-13.72
-9.46
-1.77
3.93
3.51
-3.34
-13.09
-20.42
-21.34
-15.32
-5.51
3.06
6.40
3.63
-2.84
-8.79
-10.67
-7.64
-1.84
3.11
4.27
1.15
-4.15
-8.14
-8.13
-3.70
3.05
8.79
10.87
8.82
4.60
1.36
1.56
5.42
10.83
14.54
14.15
9.57
3.06
-2.09
-3.52
-1.06
3.17
6.06
5.44
1.34
-4.23
-8.52
-9.64
-7.73
-4.71
-3.05
-4.25
-7.98
-12.31
-14.77
-13.80
-9.57
-3.90
0.76
2.63
1.55
-1.04
-2.97
-2.60
0.26
4.26
7.28
7.70
5.42
1.93
-0.56
-0.40
2.48
6.44
9.11
8.71
5.22
0.32
-3.50
-4.33
-1.93
2.16
5.55
6.35
4.24
0.60
-2.37
-3.00
-1.11
1.87
3.82
3.22
0.13
-3.82
-6.36
-5.90
-2.45
2.36
6.18
7.26
5.43
2.12
-0.55
-1.00
0.94
3.96
6.07
5.82
3.15
-0.55
-3.34
-3.78
-1.82
1.15
3.16
2.84
0.28
-3.05
-5.13
-4.59
-1.60
2.16
4.51
4.07
0.96
-3.18
-6.19
-6.65
-4.66
-1.68
0.33
0.05
-2.39
-5.52
-7.46
-7.04
-4.51
-1.31
0.60
-0.07
-3.16
-7.16
-10.03
-10.27
-7.70
-3.54
0.29
2.26
2.04
0.53
-0.70
-0.38
1.83
5.00
7.58
8.41
7.34
5.44
4.38
5.39
8.22
11.28
12.34
9.92
4.31
-2.36
-7.21
-8.19
-5.36
-0.72
2.94
3.62
1.30
-2.20
-4.40
-3.80
-0.71
2.95
4.80
3.43
-0.70
-5.49
-8.38
-7.88
-4.30
0.30
3.25
2.84
-0.68
-5.22
-8.03
-7.24
-3.06
2.32
5.90
5.66
1.82
-3.25
-6.39
-5.50
-0.79
5.20
9.21
9.12
5.28
0.15
-3.14
-2.61
1.29
5.99
8.47
7.01
2.21
-3.28
-6.32
-5.20
-0.65
4.53
7.05
5.10
-0.52
-6.87
-10.52
-9.59
-4.74
1.13
4.69
4.14
0.24
-4.14
-5.81
-3.28
2.31
7.79
9.76
6.73
0.11
-6.46
-9.05
-5.68
2.37
11.03
15.73
13.96
6.70
-2.02
-7.43
-6.84
-1.06
6.22
10.63
9.81
4.57
-1.85
-5.86
-5.73
-2.52
0.70
0.90
-2.83
-8.79
-13.55
-13.96
-9.00
-0.49
7.68
11.66
9.66
2.87
-5.11
-10.22
-9.98
-4.88
1.91
6.44
6.33
2.02
-3.55
-6.68
-5.23
0.12
6.11
8.96
6.66
0.27
-6.77
-10.57
-9.16
-3.56
2.82
6.27
5.04
0.15
-5.24
-7.83
-6.18
-1.42
3.47
5.50
3.54
-1.14
-5.58
-6.93
-4.13
1.44
6.70
8.62
6.07
0.44
-5.11
-7.40
-5.11
0.51
6.30
9.07
7.46
2.63
-2.48
-4.73
-2.66
2.66
8.18
10.70
8.57
2.62
-4.31
-8.96
-9.43
-6.24
-1.95
0.37
-1.01
-5.46
-10.23
-12.04
-9.13
-2.36
5.06
9.42
8.54
3.11
-3.74
-8.20
-7.92
-3.30
2.78
6.70
6.31
2.13
-2.93
-5.42
-3.41
2.24
8.35
11.30
9.27
3.42
-2.79
-5.62
-3.29
2.90
9.35
12.37
10.47
5.14
-0.01
-1.55
1.67
7.72
12.71
13.19
8.21
-0.03
-7.37
-10.08
-6.93
0.01
6.62
9.14
6.29
-0.09
-6.09
-8.01
-4.61
2.19
8.52
10.70
7.46
0.67
-5.62
-7.64
-4.07
3.06
9.54
11.23
6.45
-2.88
-12.29
-17.29
-15.83
-9.37
-2.01
1.93
0.45
-5.06
-10.78
-12.90
-9.82
-3.02
3.74
6.76
4.60
-1.10
-6.74
-8.92
-6.46
-1.06
3.84
5.21
2.27
-3.12
-7.62
-8.44
-4.94
0.91
5.81
7.03
3.91
-1.71
-6.70
-8.40
-6.11
-1.40
2.86
4.11
1.54
-3.53
-8.37
-10.38
-8.55
-3.92
1.04
3.76
3.13
0.01
-3.25
-4.28
-1.98
2.71
7.40
9.55
8.04
3.81
-0.65
-2.74
-1.29
2.77
6.91
8.53
6.54
2.02
-2.43
-4.20
-2.30
2.05
6.08
7.17
4.46
-0.55
-4.91
-5.99
-3.08
2.13
6.56
7.54
4.42
-1.11
-5.99
-7.52
-4.91
0.29
5.14
6.88
4.47
-0.82
-6.12
-8.58
-6.88
-2.01
3.39
6.52
6.02
2.71
-0.92
-2.39
-0.66
3.13
6.34
6.48
2.74
-3.37
-8.85
-10.88
-8.42
-2.77
3.04
5.94
4.58
0.06
-4.72
-6.75
-4.65
0.47
5.69
8.03
6.31
1.81
-2.47
-3.66
-0.74
4.75
9.68
11.16
8.28
2.65
-2.51
-4.41
-2.19
2.59
6.87
7.88
4.67
-1.32
-7.17
-10.04
-8.74
-4.36
0.39
2.72
1.37
-2.70
-6.81
-8.12
-5.34
0.42
6.21
8.88
6.98
1.61
-3.97
-6.31
-3.84
2.15
8.28
10.93
8.37
1.98
-4.53
-7.27
-4.50
2.27
9.00
11.45
7.65
-0.69
-9.17
-13.20
-10.62
-3.02
5.11
8.98
6.34
-1.30
-9.59
-13.80
-11.71
-4.78
2.86
6.96
5.67
0.45
-4.84
-6.39
-2.70
4.34
10.77
12.94
9.64
2.92
-3.10
-4.64
-0.46
7.35
14.44
16.70
12.44
3.36
-6.30
-12.09
-11.73
-6.36
0.05
3.05
0.30
-6.97
-14.65
-18.11
-15.05
-6.90
1.96
6.71
5.07
-1.39
-8.27
-11.07
-7.85
-0.35
7.12
10.35
7.62
0.69
-6.48
-10.05
-8.47
-3.22
2.19
4.28
1.64
-4.31
-10.17
-12.50
-9.88
-3.67
2.83
6.19
4.84
0.00
-5.14
-7.21
-4.68
1.31
7.64
11.10
10.29
6.30
2.04
0.37
2.50
7.21
11.54
12.61
9.23
2.75
-3.52
-6.12
-3.44
3.22
10.20
13.49
11.03
3.90
-4.12
-8.74
-7.69
-1.98
4.56
7.69
5.34
-1.22
-8.12
-11.33
-9.09
-2.85
3.60
6.53
4.44
-1.07
-6.34
-7.86
-4.34
2.53
9.00
11.63
9.18
3.30
-2.46
-4.78
-2.50
2.64
7.02
7.38
2.81
-4.68
-11.15
-12.93
-8.70
-0.35
7.90
11.84
9.56
2.37
-5.95
-11.20
-11.11
-6.49
-0.69
2.53
1.33
-3.18
-7.72
-8.85
-5.16
1.78
8.24
10.56
7.47
0.81
-5.47
-7.58
-3.95
3.76
11.52
15.21
12.92
5.92
-2.15
-7.33
-7.50
-3.45
1.64
4.21
2.48
-2.62
-8.13
-10.87
-9.30
-4.49
0.58
2.74
0.58
-4.79
-10.36
-12.89
-10.70
-4.64
2.27
6.47
5.91
1.30
-4.28
-7.19
-5.27
0.81
7.83
11.96
11.06
6.10
0.44
-2.20
-0.05
5.60
11.18
12.98
9.53
2.52
-4.24
-7.11
-4.73
1.20
6.96
8.99
5.82
-1.07
-8.18
-11.99
-10.91
-5.95
-0.09
3.49
3.10
-0.65
-5.21
-7.66
-6.39
-1.95
3.14
5.93
4.85
0.73
-3.55
-4.86
-1.76
4.52
10.64
13.19
10.69
4.51
-1.81
-4.68
-2.56
3.07
8.68
10.79
7.89
1.24
-5.86
-9.93
-9.28
-4.85
0.30
2.78
0.89
-4.41
-9.97
-12.34
-9.87
-3.59
3.23
7.00
5.86
0.69
-5.46
-9.24
-8.89
-5.16
-0.75
1.44
0.08
-3.87
-7.69
-8.73
-5.94
-0.61
4.44
6.49
4.55
0.01
-4.15
-5.06
-1.73
4.43
10.32
12.98
11.17
6.06
0.46
-2.66
-1.94
1.73
5.82
7.59
5.72
0.97
-4.19
-7.06
-6.26
-2.49
1.83
4.01
2.68
-1.42
-5.80
-7.71
-5.84
-1.08
4.01
6.66
5.63
1.90
-1.91
-3.15
-0.72
4.19
8.89
10.73
8.72
4.11
-0.34
-2.01
0.03
4.49
8.60
9.69
6.78
1.08
-4.60
-7.46
-6.36
-2.41
1.69
3.19
0.92
-4.17
-9.39
-11.78
-9.87
-4.48
1.61
5.19
4.38
-0.35
-6.22
-9.78
-8.76
-3.48
3.29
7.99
8.24
4.11
-1.92
-6.33
-6.58
-2.66
3.07
7.31
7.67
3.99
-1.61
-5.96
-6.66
-3.57
1.22
4.56
4.14
-0.13
-5.88
-9.68
-9.06
-4.08
2.56
7.01
6.55
1.19
-6.22
-11.66
-12.16
-7.50
-0.34
5.32
6.54
3.00
-2.80
-7.16
-7.35
-3.31
2.43
6.32
5.94
1.55
-4.14
-7.54
-6.31
-0.92
5.68
9.83
9.23
4.28
-2.11
-6.24
-5.87
-1.46
4.23
7.82
7.33
3.28
-1.65
-4.32
-3.03
1.43
6.30
8.53
6.53
1.09
-4.98
-8.51
-7.82
-3.54
1.74
5.03
4.58
0.95
-3.45
-5.76
-4.35
0.12
5.13
7.67
6.11
1.12
-4.59
-7.72
-6.39
-1.16
5.18
9.13
8.48
3.58
-2.77
-7.07
-7.10
-3.17
2.20
5.86
5.75
2.13
-2.70
-5.92
-5.88
-2.95
0.78
2.76
1.58
-2.28
-6.72
-9.21
-8.21
-4.07
1.17
4.76
4.89
1.60
-3.06
-6.20
-5.84
-2.02
3.16
6.88
7.30
4.63
1.12
-0.32
2.01
7.45
13.25
16.14
14.22
8.12
0.87
-3.85
-3.83
0.48
6.23
9.84
9.08
4.40
-1.34
-4.61
-3.37
1.80
8.00
11.64
10.61
5.30
-1.59
-6.67
-7.81
-5.31
-1.57
0.47
-0.93
-5.19
-9.74
-11.60
-9.25
-3.62
2.26
5.13
3.38
-2.04
-7.97
-10.84
-8.83
-2.89
3.77
7.59
6.65
1.71
-4.31
-8.00
-7.50
-3.37
1.91
5.54
6.11
4.25
2.17
2.17
5.08
9.69
13.34
13.52
9.34
2.10
-5.24
-9.56
-9.20
-4.81
0.89
4.67
4.43
0.33
-5.38
-9.51
-9.85
-6.39
-1.37
2.05
1.70
-2.39
-7.90
-11.49
-10.80
-5.91
0.75
5.81
6.87
3.87
-1.04
-4.79
-5.27
-2.52
1.42
3.83
3.03
-0.73
-5.32
-8.07
-7.33
-3.40
1.59
4.89
4.69
1.15
-3.73
-7.18
-7.27
-4.09
0.41
3.42
2.97
-0.87
-6.09
-9.83
-10.10
-7.03
-2.64
0.21
-0.30
-3.87
-8.24
-10.31
-8.10
-1.79
6.01
11.61
12.36
7.96
0.93
-4.93
-6.63
-3.53
2.39
7.79
9.90
8.01
3.75
0.01
-0.84
1.71
6.11
9.72
10.35
7.52
2.57
-1.95
-3.87
-2.51
0.98
4.13
4.70
2.11
-2.09
-5.04
-4.53
-0.34
5.43
9.47
9.35
4.92
-1.29
-5.61
-5.42
-0.73
5.83
10.52
10.57
5.78
-1.42
-7.36
-9.27
-6.72
-1.80
2.22
2.77
-0.54
-5.67
-9.36
-9.16
-4.85
1.24
5.67
5.83
1.66
-4.36
-8.56
-8.17
-3.09
4.01
9.16
9.36
4.36
-3.17
-9.06
-10.01
-5.49
1.89
7.82
8.81
4.25
-3.36
-9.72
-11.39
-7.64
-0.95
4.56
5.67
2.02
-3.85
-8.14
-8.17
-4.02
1.64
5.21
4.28
-0.63
-6.49
-9.53
-7.56
-1.25
6.02
10.07
8.47
2.11
-5.28
-9.23
-7.10
0.29
9.16
14.92
14.68
8.90
0.92
-4.90
-5.67
-1.52
4.57
8.65
8.09
3.23
-2.80
-5.96
-3.60
3.75
12.49
17.88
16.76
9.37
-0.58
-7.86
-8.67
-2.81
6.10
12.64
12.70
5.71
-5.02
-14.07
-17.03
-12.97
-4.89
2.12
3.94
-0.21
-7.40
-12.78
-12.57
-6.45
2.38
9.06
10.03
5.04
-2.65
-8.33
-8.52
-2.96
5.18
11.10
11.17
4.83
-4.98
-13.50
-16.70
-13.47
-6.12
1.07
4.39
2.83
-1.50
-4.72
-3.75
1.86
9.55
15.37
16.44
12.53
6.23
1.38
0.80
4.45
9.58
12.24
9.65
1.80
-8.30
-16.15
-18.17
-13.58
-4.93
3.32
7.19
5.15
-1.17
-7.99
-11.59
-10.36
-5.61
-0.62
1.43
-0.73
-5.71
-10.22
-11.09
-7.12
0.07
6.94
10.01
7.82
1.77
-4.82
-8.57
-7.94
-4.01
0.30
2.30
1.11
-1.88
-3.91
-2.74
2.01
8.46
13.40
14.12
10.08
3.23
-2.98
-5.43
-2.99
2.74
8.34
10.49
7.89
1.96
-4.01
-6.82
-5.22
-0.58
4.04
5.85
4.06
0.18
-3.01
-3.36
-0.61
3.40
5.92
4.96
0.53
-5.30
-9.53
-9.88
-6.07
0.02
5.29
7.04
4.57
-0.59
-5.43
-7.10
-4.50
0.94
5.97
7.37
3.84
-3.19
-10.25
-13.77
-12.06
-6.28
0.08
3.34
1.93
-2.64
-6.72
-6.85
-1.79
6.22
12.86
14.15
9.11
0.49
-6.73
-8.16
-2.54
7.46
16.56
19.87
15.66
6.08
-4.23
-10.64
-11.01
-6.59
-1.12
1.49
-0.39
-5.30
-9.48
-9.21
-3.32
6.11
14.49
17.23
12.64
3.10
-6.29
-10.71
-8.17
-0.90
6.11
8.17
3.99
-3.60
-9.32
-8.88
-1.61
8.88
16.64
16.82
8.90
-3.08
-12.60
-14.29
-7.10
5.11
15.46
17.95
10.63
-3.21
-16.88
-23.88
-21.62
-12.47
-2.26
3.06
0.79
-7.16
-15.49
-18.90
-15.15
-6.33
2.40
5.93
2.40
-5.63
-12.52
-13.07
-5.60
6.80
18.19
22.86
18.89
9.34
0.37
-2.37
2.76
12.52
20.67
21.93
15.09
3.84
-5.64
-8.24
-2.85
7.12
15.74
18.01
12.64
2.63
-6.44
-9.74
-5.79
2.82
10.75
13.04
7.75
-3.05
-14.35
-20.82
-19.73
-12.48
-3.54
1.97
1.14
-5.02
-12.38
-16.25
-14.16
-7.20
0.70
5.12
3.78
-2.07
-8.48
-11.17
-8.10
-0.57
7.52
11.94
10.47
4.25
-3.07
-7.46
-6.85
-2.05
3.71
6.77
5.23
0.08
-5.38
-7.54
-4.67
2.06
9.17
12.85
11.17
5.15
-1.96
-6.49
-6.48
-2.59
2.30
4.87
3.28
-1.81
-7.63
-10.88
-9.64
-4.45
2.00
6.35
6.45
2.52
-3.12
-7.35
-8.08
-5.36
-1.24
1.63
1.61
-0.93
-3.87
-4.71
-2.15
3.05
8.39
11.09
9.70
4.98
-0.42
-3.43
-2.28
2.41
7.92
10.95
9.46
3.87
-3.16
-8.18
-8.89
-5.36
0.04
4.04
4.37
0.91
-4.32
-8.39
-9.10
-6.26
-1.67
2.04
2.97
1.08
-1.87
-3.39
-1.86
2.44
7.39
10.38
9.78
5.99
1.29
-1.53
-0.83
2.83
7.05
9.05
7.32
2.58
-2.61
-5.36
-4.20
0.10
4.89
7.15
5.16
-0.46
-7.02
-11.30
-11.27
-7.18
-1.38
3.15
4.48
2.87
0.43
-0.21
2.33
7.33
12.19
14.00
11.27
4.90
-2.11
-6.47
-6.32
-2.27
2.81
5.57
3.97
-1.57
-8.38
-13.01
-13.14
-8.92
-2.89
1.56
2.04
-1.45
-6.54
-9.87
-9.05
-4.21
2.13
6.57
6.71
2.77
-2.59
-5.71
-4.25
1.29
7.80
11.32
9.29
2.10
-6.95
-13.52
-14.48
-9.64
-1.93
4.33
5.77
1.80
-5.18
-11.14
-12.72
-9.15
-2.69
2.70
3.81
0.20
-5.62
-9.64
-8.74
-2.69
5.57
11.77
12.75
8.39
1.51
-3.88
-4.84
-1.23
4.37
8.31
8.21
4.42
-0.17
-1.98
1.03
8.00
15.38
18.91
16.01
7.48
-2.96
-10.61
-12.37
-8.33
-1.52
3.88
4.87
1.16
-4.83
-9.63
-10.79
-8.14
-3.77
-0.57
-0.55
-3.60
-7.55
-9.42
-7.36
-1.73
4.96
9.41
9.41
5.07
-1.13
-5.68
-6.00
-1.95
4.08
8.60
8.91
4.56
-2.43
-8.76
-11.59
-10.13
-5.88
-1.65
0.10
-1.54
-5.51
-9.53
-11.42
-10.33
-7.08
-3.58
-1.61
-1.88
-3.49
-4.42
-2.85
1.72
7.92
13.04
14.59
11.84
6.67
2.61
2.90
8.39
16.81
23.85
25.58
20.82
12.03
3.96
0.76
3.56
9.74
14.45
13.57
6.32
-4.34
-13.56
-17.54
-15.65
-10.64
-6.83
-7.18
-11.64
-17.05
-19.14
-15.24
-6.03
4.55
11.50
11.60
5.23
-3.83
-10.23
-9.94
-2.58
8.27
16.95
18.71
12.20
0.55
-10.28
-14.76
-10.77
-0.76
9.54
14.28
10.88
1.68
-7.50
-10.84
-6.03
4.33
13.94
16.97
11.48
0.82
-8.55
-10.83
-4.47
6.87
16.47
18.82
12.87
2.44
-5.93
-6.91
0.27
11.41
19.65
19.41
9.53
-5.78
-19.32
-24.75
-20.17
-8.84
2.69
8.22
5.45
-2.90
-10.87
-12.97
-7.38
3.05
12.25
14.62
8.29
-3.65
-15.00
-19.85
-15.79
-5.36
5.39
10.43
7.13
-2.33
-12.41
-17.52
-15.31
-7.77
0.00
3.07
-0.42
-8.16
-15.19
-16.89
-11.79
-2.34
6.48
9.97
6.54
-1.22
-8.26
-10.07
-5.38
3.07
10.01
10.76
4.39
-5.54
-12.87
-12.39
-2.81
12.18
25.75
31.56
27.10
14.91
0.90
-8.85
-11.22
-7.24
-1.10
2.56
1.45
-3.37
-8.34
-9.80
-6.29
0.56
6.85
8.91
5.48
-1.27
-6.85
-7.13
-0.87
9.34
18.33
21.12
15.83
4.89
-6.21
-12.09
-10.31
-2.65
6.02
10.64
8.71
1.67
-6.21
-10.53
-9.18
-3.52
2.61
5.22
2.66
-3.45
-9.25
-11.04
-7.33
0.20
7.55
10.69
7.72
-0.12
-9.13
-15.23
-15.99
-11.73
-5.30
-0.26
1.04
-1.28
-4.85
-6.56
-4.44
1.03
7.13
10.59
9.57
5.01
0.09
-1.69
1.27
7.67
13.98
16.50
13.64
6.95
0.18
-3.00
-1.15
4.15
9.25
10.67
6.97
-0.42
-8.14
-12.85
-13.13
-9.96
-6.08
-4.31
-5.95
-10.15
-14.47
-16.31
-14.48
-9.73
-4.30
-0.68
-0.25
-2.47
-5.22
-6.09
-3.73
1.27
6.74
10.13
9.85
6.26
1.43
-2.03
-2.42
0.10
3.75
6.21
5.93
3.12
-0.42
-2.38
-1.32
2.47
7.16
10.37
10.51
7.70
3.62
0.54
-0.03
1.88
4.80
6.77
6.60
4.53
2.08
1.00
2.18
5.07
7.95
9.01
7.39
3.70
-0.23
-2.41
-1.77
1.15
4.39
5.49
2.77
-3.85
-12.67
-21.02
-26.44
-27.73
-25.40
-21.15
-16.87
-13.63
-11.26
-8.74
-5.09
-0.23
4.76
8.24
8.93
6.81
3.21
0.18
-0.55
1.40
4.86
7.74
8.31
6.19
2.59
-0.34
-0.87
1.33
4.91
7.68
7.88
5.26
1.15
-2.30
-3.47
-2.19
0.17
1.65
0.95
-1.74
-4.75
-5.96
-4.03
0.71
6.30
10.13
10.38
7.07
2.14
-1.66
-2.23
0.62
5.07
8.30
8.21
4.63
-0.53
-4.48
-5.16
-2.46
1.71
4.54
4.06
0.28
-4.89
-8.73
-9.29
-6.43
-1.88
1.88
3.02
1.32
-1.82
-4.27
-4.43
-2.09
1.45
4.30
5.04
3.46
0.61
-1.83
-2.51
-1.19
1.24
3.22
3.42
1.44
-1.87
-4.88
-6.08
-4.96
-2.31
0.19
0.91
-0.71
-3.71
-6.10
-5.96
-2.67
2.53
7.16
8.86
6.73
1.97
-2.78
-4.99
-3.62
0.20
3.81
4.65
1.74
-3.62
-8.50
-10.17
-7.65
-2.36
2.79
5.08
3.61
-0.15
-3.31
-3.34
0.37
6.10
10.82
11.91
8.75
3.16
-1.83
-3.65
-1.62
2.64
6.23
6.69
3.50
-1.70
-5.84
-6.23
-2.09
4.75
10.68
12.32
8.44
0.72
-6.94
-10.51
-8.18
-1.44
5.86
9.78
8.64
4.01
-0.24
-0.49
4.29
11.61
16.96
16.49
9.36
-1.57
-11.22
-15.07
-11.74
-3.75
3.87
6.37
1.96
-7.16
-16.04
-19.83
-16.58
-8.46
-0.45
2.56
-1.33
-9.92
-18.08
-20.87
-16.44
-7.18
1.80
5.69
2.99
-3.70
-9.29
-9.37
-2.78
7.57
16.41
19.21
14.73
5.80
-2.41
-5.21
-1.16
7.24
15.10
17.93
14.24
6.29
-1.37
-4.50
-1.68
4.99
11.12
12.71
8.50
0.57
-6.92
-10.37
-8.64
-3.80
0.27
0.35
-4.15
-10.63
-14.88
-13.49
-5.99
4.58
13.15
15.54
10.62
0.99
-8.24
-12.36
-9.59
-2.00
5.90
9.67
7.30
0.43
-6.83
-10.28
-8.19
-2.05
4.29
6.86
3.95
-2.74
-9.16
-11.52
-8.26
-1.09
6.03
9.27
7.24
1.89
-2.88
-3.47
1.20
9.08
15.86
17.55
12.86
3.81
-5.22
-9.73
-7.58
-0.27
8.06
12.81
11.40
4.60
-3.87
-9.42
-9.29
-4.10
2.58
6.42
4.68
-1.98
-9.88
-14.40
-12.72
-5.49
3.40
8.95
7.90
0.64
-8.84
-15.30
-15.18
-8.67
0.41
6.92
7.40
1.97
-5.84
-11.20
-10.81
-4.98
2.74
7.62
6.56
-0.03
-8.48
-13.99
-13.40
-7.01
1.57
7.71
8.42
4.07
-1.79
-4.68
-2.00
5.27
13.14
17.00
14.46
6.70
-2.20
-7.60
-6.96
-1.20
5.85
9.77
8.12
1.79
-5.61
-9.89
-8.57
-2.47
4.87
9.09
7.46
0.48
-8.41
-14.66
-15.20
-10.01
-2.26
3.58
4.31
-0.18
-6.61
-10.31
-7.96
0.15
10.22
17.07
17.14
10.70
1.74
-4.42
-4.39
1.35
8.88
13.30
11.75
5.01
-3.06
-8.02
-7.51
-2.56
3.28
6.04
3.66
-2.71
-9.43
-12.37
-9.40
-1.56
7.34
12.83
12.19
5.94
-2.35
-7.97
-7.64
-1.54
6.84
12.76
12.96
7.47
-0.38
-5.91
-5.90
-0.52
6.78
11.43
10.61
4.89
-2.08
-5.83
-3.78
3.00
10.45
13.82
10.43
1.34
-9.24
-16.27
-16.69
-11.03
-3.01
2.65
2.94
-1.89
-8.67
-13.15
-12.43
-6.66
1.02
6.17
5.70
-0.49
-9.36
-16.40
-18.07
-13.82
-6.31
0.13
2.06
-1.08
-6.65
-10.45
-9.20
-2.63
6.32
13.14
14.36
9.63
1.89
-4.37
-5.72
-1.68
5.09
10.39
11.08
6.92
0.71
-3.45
-2.71
2.79
9.96
14.64
14.09
8.59
1.24
-3.97
-4.47
-0.60
4.63
7.34
5.07
-1.63
-9.39
-13.82
-11.82
-3.53
7.62
16.57
19.19
14.49
4.96
-4.64
-9.95
-9.38
-4.74
0.01
1.24
-2.09
-7.82
-12.02
-11.45
-5.72
2.28
7.97
7.79
1.33
-8.21
-15.69
-17.06
-11.57
-2.31
5.55
7.76
3.49
-4.31
-10.64
-11.16
-4.89
5.36
14.39
17.64
13.68
4.92
-3.77
-7.86
-5.71
0.53
6.49
8.07
4.11
-3.01
-8.71
-9.17
-3.74
4.67
11.00
11.22
4.85
-4.62
-11.69
-12.16
-5.60
4.29
11.92
13.01
7.17
-2.01
-9.08
-9.95
-4.33
4.18
10.30
10.33
4.38
-3.75
-8.83
-7.37
0.21
9.67
15.39
13.58
4.55
-7.53
-16.66
-18.56
-13.04
-3.89
3.30
4.56
-0.25
-7.32
-11.26
-8.35
1.12
12.73
20.68
21.11
14.37
4.54
-2.83
-3.94
1.24
9.03
14.23
13.20
5.75
-4.91
-14.03
-17.70
-14.77
-7.41
0.11
3.69
1.68
-4.33
-10.32
-12.27
-8.60
-1.40
4.69
5.31
-0.90
-11.06
-19.53
-21.11
-14.09
-1.66
9.72
13.92
8.68
-3.07
-14.74
-19.64
-14.62
-1.92
11.92
19.64
17.35
6.76
-5.90
-13.49
-11.99
-2.87
8.06
14.27
12.46
4.55
-3.54
-5.86
-0.10
10.62
19.61
20.61
11.53
-3.97
-18.30
-24.22
-18.83
-5.27
9.16
17.08
15.38
6.75
-2.11
-4.61
1.66
13.59
24.24
26.86
18.90
3.56
-12.26
-21.81
-22.15
-15.39
-7.17
-3.19
-5.83
-12.77
-18.28
-17.00
-7.40
7.08
19.45
23.42
17.04
4.09
-7.97
-12.35
-6.71
5.42
16.95
21.28
16.23
5.24
-4.76
-7.53
-1.43
9.49
17.86
17.15
5.78
-11.51
-25.94
-29.48
-19.70
-1.31
16.19
23.90
18.39
3.59
-11.46
-18.06
-12.95
0.17
12.89
17.30
10.58
-3.58
-17.39
-23.47
-18.94
-6.98
5.36
11.24
7.87
-2.16
-12.43
-16.74
-12.53
-2.41
7.58
11.63
7.86
-0.69
-7.63
-7.20
2.36
17.46
31.08
36.72
31.91
19.39
5.44
-3.50
-4.15
2.10
10.07
13.72
9.55
-1.50
-14.37
-22.78
-22.45
-13.80
-1.70
7.22
8.39
1.99
-7.34
-13.22
-11.56
-3.09
6.85
11.50
6.94
-5.70
-20.61
-30.71
-31.51
-23.79
-12.89
-5.48
-5.34
-11.03
-16.92
-16.72
-7.93
6.41
18.97
22.52
14.67
-0.32
-13.58
-17.06
-7.98
9.35
26.04
33.62
28.73
14.97
0.21
-7.98
-6.61
1.46
9.64
11.71
5.62
-5.36
-14.49
-15.90
-7.98
5.38
17.10
20.86
14.58
1.79
-10.40
-15.14
-9.87
2.47
15.13
21.11
17.11
5.23
-8.11
-15.87
-14.09
-4.35
7.45
14.41
12.39
2.51
-9.75
-17.60
-16.94
-8.87
1.03
6.09
2.46
-8.51
-20.85
-27.34
-23.46
-10.31
5.66
16.27
16.03
5.40
-9.34
-19.52
-19.16
-8.51
6.10
15.93
15.11
4.24
-10.12
-19.55
-18.59
-7.95
6.13
15.83
16.40
8.87
-0.80
-5.41
-0.81
11.53
25.11
32.17
27.97
13.56
-4.63
-18.15
-21.21
-13.53
-0.64
9.36
10.35
1.68
-11.72
-22.29
-24.41
-17.30
-5.33
4.88
8.35
4.52
-2.67
-7.61
-6.41
0.72
9.54
14.49
12.05
2.94
-8.10
-15.13
-14.42
-6.59
3.37
8.89
5.94
-4.48
-16.44
-22.43
-17.75
-3.41
13.95
25.63
25.67
14.52
-1.02
-11.60
-10.77
1.33
17.76
28.73
27.27
13.16
-6.79
-22.58
-26.79
-18.61
-3.99
8.19
11.35
4.84
-6.03
-13.62
-12.80
-3.65
8.72
17.22
17.11
8.70
-2.78
-10.48
-9.70
-0.59
11.92
20.95
21.54
13.50
1.59
-7.21
-7.60
0.95
13.51
22.54
22.29
12.00
-3.56
-16.66
-21.00
-15.14
-3.18
7.67
11.22
5.81
-5.16
-15.37
-19.55
-16.17
-8.04
-0.47
2.09
-1.35
-7.77
-12.14
-10.39
-2.11
9.09
17.17
17.17
8.26
-5.27
-16.00
-17.65
-8.76
5.77
17.37
18.95
9.16
-6.50
-18.70
-19.85
-8.61
9.11
23.57
26.98
18.10
2.80
-9.50
-11.60
-2.37
12.76
25.09
27.74
19.25
4.41
-8.69
-13.32
-7.98
3.12
12.38
13.40
4.72
-9.41
-21.36
-24.44
-16.60
-1.77
12.41
18.72
14.54
2.97
-9.10
-15.09
-12.25
-3.28
5.52
7.94
1.58
-10.69
-22.28
-26.72
-21.46
-9.48
2.52
7.91
4.04
-6.16
-15.69
-17.78
-9.93
4.32
17.28
21.61
14.80
0.68
-12.73
-17.87
-12.02
1.16
14.06
19.46
14.89
3.88
-6.37
-9.50
-3.65
7.44
16.88
18.77
11.69
-0.45
-10.84
-13.75
-7.77
3.25
12.60
14.39
7.06
-5.76
-17.16
-20.96
-15.14
-2.94
8.96
14.27
10.60
0.52
-9.96
-14.96
-12.00
-3.45
4.98
7.55
1.84
-9.75
-21.49
-27.29
-24.09
-13.59
-1.28
6.58
6.46
-0.27
-7.88
-9.74
-2.36
12.12
26.99
34.62
31.04
18.37
3.79
-4.63
-2.76
7.10
17.67
21.17
14.43
0.74
-12.03
-16.07
-8.36
7.31
22.22
27.52
19.11
0.03
-21.18
-35.07
-36.18
-25.95
-11.40
-0.90
0.76
-5.40
-13.61
-17.25
-13.05
-3.06
6.66
9.99
4.69
-6.21
-16.06
-18.44
-10.82
3.89
18.79
26.76
24.29
13.58
1.18
-5.66
-3.22
6.72
17.70
22.37
16.93
3.29
-11.82
-20.92
-19.99
-10.75
0.54
6.90
4.92
-3.29
-11.49
-13.12
-5.43
8.96
22.80
28.38
21.84
5.39
-13.58
-26.49
-28.03
-18.84
-4.85
6.43
10.06
6.24
-0.10
-2.87
1.17
10.34
19.13
21.50
14.71
1.19
-12.59
-19.70
-16.72
-5.71
6.86
13.63
10.37
-1.57
-15.91
-24.85
-23.50
-12.51
2.14
12.65
13.79
5.86
-5.42
-12.33
-9.91
1.09
14.37
21.90
18.59
5.42
-10.94
-21.97
-22.20
-12.31
1.39
10.74
10.45
0.99
-11.96
-21.00
-21.14
-12.60
-0.54
8.20
9.02
2.20
-7.31
-12.87
-9.99
0.81
14.07
22.69
21.97
12.59
0.10
-8.23
-7.71
1.05
12.36
18.82
15.69
4.02
-9.76
-17.41
-13.79
0.03
17.14
28.49
28.13
16.71
1.08
-9.63
-9.50
0.76
14.01
21.23
16.83
2.12
-15.54
-27.29
-27.90
-18.56
-5.69
2.94
2.92
-4.41
-13.29
-17.13
-12.65
-1.63
10.16
16.56
14.55
6.07
-3.20
-6.95
-2.09
9.24
20.65
24.82
17.84
1.81
-15.80
-25.85
-22.61
-7.24
12.48
26.33
27.09
14.52
-4.72
-20.82
-26.63
-21.35
-10.31
-1.39
0.07
-5.77
-13.59
-16.48
-10.42
2.89
16.82
23.73
19.44
5.97
-9.57
-18.69
-16.49
-4.30
10.87
20.36
18.93
7.61
-6.95
-16.56
-15.89
-5.60
8.21
17.57
17.46
8.69
-2.60
-8.37
-3.63
10.33
26.48
35.87
32.85
18.54
0.33
-12.38
-13.58
-4.25
8.58
16.12
13.17
1.25
-12.64
-20.13
-16.71
-4.07
10.61
18.78
15.12
0.44
-18.77
-33.89
-38.51
-31.88
-18.83
-6.99
-2.29
-5.62
-12.64
-16.53
-12.34
-0.28
14.18
23.43
22.17
10.72
-5.05
-16.97
-18.93
-10.34
3.59
14.91
17.52
10.61
-0.90
-9.55
-9.81
-1.36
10.76
19.00
17.78
6.93
-8.26
-19.97
-22.29
-14.35
-0.81
10.79
14.16
7.86
-3.81
-13.40
-14.70
-6.24
7.76
19.66
22.85
15.62
2.25
-9.45
-12.74
-5.73
7.50
19.45
23.33
16.88
3.51
-9.79
-16.41
-13.91
-5.07
3.87
6.94
1.83
-8.82
-18.87
-22.49
-17.68
-7.47
1.89
4.64
-0.99
-11.51
-20.05
-20.37
-10.73
4.94
18.93
24.09
17.89
3.81
-10.54
-17.74
-14.76
-4.53
6.07
10.49
6.65
-2.04
-8.99
-8.36
1.09
15.10
26.22
28.20
19.63
4.46
-10.02
-17.22
-14.81
-5.73
3.48
6.56
1.24
-9.34
-18.31
-19.12
-9.54
6.81
22.13
28.81
23.90
10.96
-1.96
-7.13
-1.65
10.90
22.54
25.55
17.09
0.76
-15.60
-23.97
-20.72
-8.42
5.61
13.24
9.89
-3.03
-18.68
-28.60
-27.53
-16.23
-1.10
9.63
10.75
3.05
-7.16
-11.89
-6.47
7.45
22.71
31.06
27.93
15.31
0.52
-8.06
-5.85
5.28
18.17
24.65
20.41
7.30
-7.82
-16.84
-15.21
-4.50
8.31
14.92
10.36
-4.12
-21.74
-33.87
-34.81
-24.73
-9.69
1.93
4.31
-2.68
-13.70
-21.45
-21.17
-13.13
-2.45
4.36
3.70
-2.99
-10.24
-12.12
-5.97
5.92
17.78
23.61
20.74
11.33
1.04
-4.23
-1.82
6.43
15.14
18.51
13.65
2.52
-9.06
-14.69
-11.11
0.12
13.32
21.72
21.36
13.18
2.60
-3.62
-1.41
8.22
19.82
26.60
24.33
13.71
-0.12
-10.43
-12.81
-7.54
0.85
6.40
5.41
-1.48
-9.87
-14.63
-13.41
-8.00
-3.21
-3.61
-10.51
-20.81
-28.65
-28.91
-20.32
-6.39
6.51
12.56
9.63
0.16
-10.57
-17.45
-17.94
-13.08
-6.43
-1.83
-1.30
-4.10
-7.57
-8.77
-6.28
-0.79
5.25
9.07
9.06
5.65
1.07
-2.00
-1.89
1.10
5.01
7.36
6.64
3.19
-1.02
-3.59
-3.09
0.19
4.50
7.67
8.26
6.26
2.98
0.25
-0.52
0.94
3.66
5.97
6.41
4.55
1.24
-1.83
-3.12
-2.07
0.54
3.08
4.08
3.10
1.01
-0.56
-0.29
1.93
4.82
6.42
5.31
1.47
-3.57
-7.51
-8.48
-6.08
-1.62
2.53
4.27
2.95
-0.38
-3.59
-4.70
-3.06
0.29
3.37
4.48
3.27
0.89
-0.72
-0.07
2.93
6.76
9.21
8.65
5.10
0.26
-3.45
-4.29
-2.21
1.14
3.39
2.84
-0.49
-4.86
-7.81
-7.65
-4.36
0.36
3.92
4.38
1.57
-2.79
-5.98
-5.82
-1.97
3.77
8.40
9.37
6.19
0.71
-3.83
-4.70
-1.30
4.40
9.11
10.07
6.68
0.78
-4.45
-6.34
-4.18
0.48
4.75
6.07
3.53
-1.64
-6.81
-9.41
-8.25
-4.19
0.32
2.59
1.27
-2.91
-7.45
-9.46
-7.43
-2.10
3.83
7.26
6.53
2.42
-2.39
-4.97
-3.82
0.23
4.68
6.89
5.79
2.40
-0.85
-1.66
0.63
4.61
7.63
7.34
3.13
-3.37
-9.10
-11.30
-8.99
-3.58
1.94
4.59
3.13
-1.35
-6.05
-8.05
-6.17
-1.48
3.38
5.73
4.38
0.23
-4.31
-6.83
-6.26
-3.43
-0.42
0.84
-0.35
-3.02
-5.22
-5.14
-2.22
2.44
6.61
8.18
6.35
2.08
-2.29
-4.25
-2.56
2.03
7.10
9.86
8.75
4.38
-0.86
-4.10
-3.87
-0.87
2.41
3.27
0.57
-4.47
-8.99
-10.20
-7.04
-0.86
5.24
8.20
6.64
1.64
-3.90
-6.94
-6.01
-1.87
2.95
5.64
4.74
0.85
-3.71
-6.29
-5.53
-2.05
1.86
3.66
2.03
-2.28
-6.88
-9.06
-7.36
-2.44
3.35
7.10
7.05
3.48
-1.40
-4.74
-4.63
-1.20
3.45
6.59
6.37
2.94
-1.72
-4.93
-4.93
-1.93
2.06
4.35
3.36
-0.46
-4.75
-6.74
-4.86
0.22
5.85
8.97
7.84
3.29
-1.75
-3.76
-0.85
5.99
13.26
16.76
14.06
5.91
-4.01
-11.10
-12.38
-8.13
-1.64
2.82
2.49
-2.25
-8.17
-10.99
-8.14
-0.29
8.87
14.71
14.18
7.46
-2.05
-9.58
-11.68
-7.95
-1.19
4.39
5.64
2.24
-3.35
-7.44
-7.29
-2.67
3.85
8.51
8.63
4.24
-1.87
-5.64
-3.97
3.21
12.60
19.18
19.15
12.27
2.33
-4.89
-5.01
2.32
12.93
20.49
20.32
12.10
0.12
-9.43
-12.08
-7.57
0.21
5.43
3.85
-4.57
-15.51
-22.96
-22.68
-14.58
-2.98
5.79
6.96
0.33
-9.81
-17.16
-17.22
-9.88
0.46
7.71
7.67
0.47
-9.53
-16.65
-17.19
-11.31
-2.77
3.37
3.65
-1.90
-9.65
-14.68
-13.64
-6.69
2.76
10.09
12.13
8.99
3.97
1.56
4.72
13.07
22.92
29.34
28.69
20.92
9.67
0.41
-2.49
1.92
10.34
17.15
17.38
9.72
-2.63
-13.71
-18.05
-14.04
-4.97
2.88
3.89
-3.70
-16.52
-27.96
-31.79
-25.76
-13.16
-0.87
4.40
0.15
-10.61
-20.86
-23.69
-16.43
-2.22
11.66
18.23
14.81
4.55
-5.53
-8.91
-3.32
7.87
17.91
20.85
15.24
4.54
-5.12
-8.46
-4.23
4.32
11.51
12.59
6.39
-4.06
-13.24
-16.25
-11.38
-1.15
9.11
14.01
11.04
1.84
-8.51
-14.32
-12.42
-3.94
6.25
12.62
12.34
6.84
1.05
0.09
5.91
15.80
23.92
24.72
16.68
3.19
-9.13
-13.93
-8.92
2.76
14.33
19.15
14.28
2.02
-11.45
-19.51
-18.75
-10.95
-2.07
1.31
-4.04
-15.93
-27.85
-32.70
-26.98
-12.98
2.48
11.98
11.93
4.47
-4.04
-6.93
-1.30
10.29
21.18
24.52
17.41
2.90
-11.82
-19.33
-16.12
-4.49
8.74
16.38
15.07
7.17
-0.95
-3.00
3.22
14.36
23.50
24.39
15.40
0.71
-12.19
-16.67
-10.83
1.70
13.87
19.08
14.80
3.76
-7.85
-13.92
-11.78
-3.61
5.05
8.64
4.64
-4.97
-15.06
-20.23
-17.85
-9.34
0.53
6.47
5.70
-0.72
-8.46
-12.53
-10.23
-2.64
5.76
9.90
7.31
-0.24
-7.84
-9.93
-3.96
7.97
19.85
24.94
19.75
6.16
-9.53
-19.92
-20.36
-11.64
0.38
8.29
7.23
-2.44
-15.67
-25.58
-27.24
-20.30
-9.21
-0.40
1.52
-3.82
-12.32
-17.91
-16.23
-7.02
5.38
14.61
16.11
9.86
0.31
-6.09
-4.76
4.11
15.56
22.75
21.33
12.17
0.87
-5.62
-3.24
6.66
17.79
22.60
16.86
2.27
-14.57
-25.74
-26.11
-16.09
-1.28
10.77
14.82
10.49
2.05
-4.30
-4.07
2.86
12.30
18.24
16.62
7.94
-3.03
-9.74
-7.66
2.78
16.01
24.09
21.37
7.69
-11.20
-26.66
-31.94
-25.74
-12.90
-1.46
2.23
-2.61
-11.04
-15.81
-11.85
0.25
14.48
22.81
20.05
7.11
-9.59
-21.84
-23.97
-15.90
-2.80
7.84
10.48
4.38
-6.28
-14.98
-16.58
-10.16
0.58
9.43
11.55
6.10
-3.06
-9.65
-9.03
-1.00
9.79
16.63
14.68
4.22
-9.13
-17.57
-15.72
-3.95
11.80
23.54
25.59
18.02
6.47
-1.41
-0.53
8.61
20.32
27.18
24.53
13.03
-1.65
-12.21
-13.74
-6.44
4.66
12.53
12.32
3.83
-8.46
-17.80
-18.96
-11.36
0.57
9.87
11.06
3.28
-9.03
-18.68
-20.12
-12.67
-1.15
6.95
5.99
-4.32
-18.61
-28.98
-29.55
-19.87
-5.09
6.94
10.42
4.66
-5.38
-12.25
-10.59
-0.23
13.53
22.98
22.65
12.74
-0.74
-9.52
-7.91
3.62
18.68
28.54
27.38
15.73
0.38
-9.39
-7.64
4.93
21.42
32.60
32.07
19.93
2.36
-11.96
-16.81
-11.75
-1.83
5.69
5.78
-1.71
-11.93
-18.24
-16.26
-6.56
5.49
12.88
10.97
0.03
-14.52
-24.95
-25.58
-16.07
-1.50
10.33
13.37
6.60
-5.47
-15.26
-16.40
-7.57
6.81
19.17
22.87
16.10
2.64
-10.23
-15.83
-11.87
-1.84
7.16
8.68
0.57
-13.59
-26.71
-32.42
-28.66
-18.80
-9.29
-5.48
-8.41
-14.30
-16.89
-11.69
1.10
16.58
27.91
30.15
22.97
10.43
-1.45
-7.62
-6.28
0.44
8.03
12.00
10.39
5.02
0.03
-0.52
4.82
13.57
20.62
21.09
13.47
0.94
-10.14
-14.04
-9.19
0.77
9.17
10.45
3.61
-7.22
-15.09
-14.58
-4.92
9.47
21.48
25.28
19.35
7.23
-4.78
-11.05
-9.51
-2.55
4.50
6.47
1.44
-7.86
-15.61
-16.25
-7.84
6.43
19.57
24.52
18.12
3.22
-12.43
-20.44
-16.51
-3.12
11.78
19.38
14.95
0.52
-16.33
-26.96
-26.56
-16.81
-4.47
2.83
1.13
-7.62
-17.28
-21.46
-17.39
-7.47
2.44
6.54
2.63
-6.77
-15.87
-18.99
-13.65
-1.92
10.55
17.79
16.62
8.35
-2.01
-8.74
-8.60
-2.43
5.34
9.80
8.58
3.31
-1.41
-0.92
6.47
17.98
27.84
30.25
22.91
8.52
-6.58
-15.56
-14.49
-4.59
8.21
16.44
15.11
4.57
-9.62
-20.04
-21.52
-14.04
-2.75
5.31
5.39
-2.18
-12.14
-17.79
-15.35
-6.17
4.06
8.96
5.54
-4.00
-13.51
-16.72
-11.03
0.67
11.56
14.54
6.28
-10.87
-30.15
-44.09
-48.00
-42.27
-31.68
-22.53
-19.38
-22.78
-29.58
-35.20
-36.61
-34.09
-31.02
-31.56
-37.91
-48.45
-58.49
-62.87
-59.30
-50.10
-41.17
-38.58
-44.58
-55.64
-63.88
-61.44
-44.80
-17.04
13.74
38.76
53.13
58.04
59.65
65.37
80.33
105.53
138.44
175.22
212.76
249.64
285.60
320.26
352.23
379.04
398.17
408.09
408.61
401.00
387.20
369.07
347.90
324.99
300.93
276.32
251.94
228.65
207.04
186.97
167.50
147.25
125.02
100.27
73.30
44.67
14.82
-16.61
-50.68
-88.79
-132.22
-181.88
-238.33
-300.35
-365.19
-427.50
-479.13
-510.88
-515.77
-492.76
-448.19
-394.01
-343.07
-303.98
-278.64
-263.68
-254.64
-249.49
-248.87
-253.31
-259.96
-261.88
-251.08
-223.20
-180.42
-130.87
-84.44
-48.18
-23.68
-7.95
3.49
14.07
25.13
36.72
48.49
59.69
68.72
72.47
67.30
50.97
24.54
-7.48
-38.57
-62.65
-76.25
-79.08
-73.19
-61.55
-46.92
-31.62
-17.70
-7.04
-1.08
-0.08
-2.72
-6.39
-8.01
-5.34
2.26
13.68
26.68
38.60
47.07
50.80
50.09
47.23
46.27
52.02
68.18
95.36
129.95
164.39
189.21
196.10
181.01
146.07
99.31
51.90
14.11
-7.92
-13.44
-5.97
9.28
27.69
46.10
62.52
75.13
81.87
81.00
71.90
55.78
35.49
14.71
-3.28
-16.31
-23.68
-26.06
-24.97
-22.47
-20.41
-19.88
-21.30
-24.80
-31.16
-41.33
-57.17
-80.37
-111.51
-149.51
-191.87
-235.71
-278.54
-318.55
-354.54
-385.64
-410.98
-429.55
-441.42
-446.21
-443.67
-433.79
-416.89
-393.54
-364.52
-330.74
-293.31
-253.55
-212.81
-172.61
-134.30
-98.65
-65.87
-35.64
-7.34
19.66
45.63
70.49
93.75
115.01
134.07
151.17
166.94
182.21
197.96
215.44
236.21
261.56
291.52
323.95
354.68
378.82
392.80
396.03
390.90
381.19
369.76
357.01
341.05
319.30
290.62
256.07
218.38
180.44
144.29
111.16
82.46
60.28
47.18
44.88
53.05
69.33
90.04
112.00
133.17
153.61
174.65
197.55
222.57
248.56
273.36
294.46
309.54
316.85
315.30
304.44
284.51
256.33
221.43
181.90
140.11
98.33
58.46
21.80
-10.97
-39.72
-64.62
-85.91
-103.66
-117.80
-128.24
-135.03
-138.40
-138.82
-136.96
-133.61
-129.45
-124.92
-120.36
-116.04
-112.29
-109.49
-108.18
-108.90
-111.95
-117.74
-126.35
-137.56
-150.83
-165.44
-180.49
-195.00
-207.95
-218.49
-225.75
-228.91
-227.35
-220.70
-208.93
-192.28
-171.33
-146.09
-117.88
-88.33
-59.03
-31.40
-6.53
14.83
32.35
46.03
56.15
63.00
67.01
68.70
68.59
67.13
64.77
61.93
59.04
56.41
54.12
52.14
50.30
48.36
46.16
43.66
41.14
38.99
37.63
37.20
37.50
38.03
38.18
37.50
35.90
33.89
32.30
31.95
33.25
35.84
38.79
40.93
41.38
39.69
36.25
31.94
27.46
23.08
18.22
11.81
2.75
-9.75
-26.28
-47.17
-72.32
-100.33
-127.15
-147.52
-155.74
-148.28
-125.86
-93.96
-60.84
-34.40
-19.28
-15.21
-18.64
-24.84
-30.24
-33.55
-35.29
-36.58
-38.22
-40.18
-42.01
-43.27
-43.69
-43.02
-40.91
-36.23
-27.15
-11.84
10.05
36.04
60.68
77.17
80.29
69.09
47.45
23.61
5.83
-1.21
2.15
11.66
22.01
29.47
33.13
33.96
33.47
32.46
30.90
28.51
25.36
21.88
18.62
15.99
13.85
11.99
10.17
8.44
7.07
6.35
6.16
5.97
5.00
2.65
-0.93
-4.82
-7.64
-8.35
-6.67
-3.49
-0.36
1.20
0.27
-3.33
-9.32
-16.96
-24.46
-28.41
-24.25
-8.28
19.62
54.09
85.37
103.03
100.92
80.27
49.08
18.07
-4.50
-16.04
-19.32
-19.26
-19.44
-20.30
-20.11
-17.16
-11.64
-5.71
-2.11
-2.54
-6.59
-12.08
-16.21
-16.99
-14.12
-8.99
-3.90
-0.91
-1.01
-3.69
-7.35
-10.12
-10.74
-9.03
-5.86
-2.66
-0.66
-0.44
-1.71
-3.59
-5.06
-5.43
-4.63
-3.08
-1.48
-0.40
-0.11
-0.50
-1.16
-1.68
-1.78
-1.45
-0.82
-0.14
0.40
0.71
0.84
0.86
0.88
0.95
1.07
1.23
1.39
1.57
1.76
1.96
2.17
2.42
2.70
3.01
3.36
3.74
4.16
4.64
5.16
5.73
6.37
7.07
7.85
8.70
9.62
10.60
11.64
12.72
13.86
15.06
16.37
17.80
19.35
21.02
22.78
24.62
26.52
28.51
30.59
32.83
35.25
37.82
40.47
43.09
45.55
47.59
49.08
49.84
49.73
48.62
46.21
42.30
36.67
29.24
20.10
9.59
-1.69
-13.03
-23.34
-32.33
-39.78
-45.70
-50.31
-53.84
-56.34
-57.73
-58.03
-56.92
-54.61
-51.60
-48.66
-46.48
-45.48
-45.55
-46.08
-46.25
-45.40
-43.51
-40.99
-38.68
-37.31
-37.27
-38.60
-40.97
-43.94
-46.80
-48.47
-47.56
-42.77
-33.59
-20.78
-6.26
7.47
18.40
25.71
29.61
31.01
30.61
28.43
23.64
15.41
3.63
-10.37
-24.02
-34.45
-39.71
-39.56
-35.65
-30.77
-27.36
-26.58
-28.01
-30.20
-31.94
-32.96
-34.05
-36.39
-40.72
-46.93
-54.00
-60.47
-64.73
-65.37
-61.59
-53.64
-42.69
-30.80
-19.98
-11.52
-5.54
-1.04
3.43
8.79
15.09
21.75
28.05
33.75
39.21
44.97
51.45
58.39
65.00
70.33
73.66
74.84
74.07
71.84
68.76
65.10
61.01
56.35
51.11
45.54
40.25
35.98
33.56
33.60
36.38
41.60
48.59
56.45
64.06
70.53
74.92
76.43
74.53
68.94
59.64
46.91
31.30
12.64
-7.07
-26.39
-44.24
-59.87
-72.87
-83.05
-90.39
-95.20
-97.85
-98.58
-97.62
-95.10
-90.91
-84.77
-76.34
-65.45
-51.64
-34.85
-15.16
6.84
30.20
53.83
76.44
96.73
113.66
126.06
132.97
134.02
129.16
118.75
103.64
84.92
62.55
39.17
16.53
-4.23
-22.38
-37.54
-49.67
-58.90
-65.55
-70.07
-72.76
-74.20
-75.00
-75.53
-76.06
-76.77
-77.71
-78.90
-80.30
-81.65
-82.93
-84.16
-85.20
-85.81
-85.62
-84.25
-81.29
-76.33
-69.15
-59.56
-47.69
-33.86
-18.55
-2.41
13.80
29.37
43.76
56.75
68.02
77.45
85.16
91.36
96.27
99.95
102.37
103.42
102.92
100.23
94.68
85.83
73.44
57.58
38.55
17.04
-6.99
-31.34
-54.34
-74.66
-91.25
-103.38
-110.57
-112.88
-110.47
-103.35
-91.77
-76.40
-57.92
-37.01
-14.39
9.11
32.36
52.79
69.86
83.42
93.53
100.62
105.35
108.41
110.23
110.60
109.42
106.88
103.01
98.08
92.78
87.99
84.27
83.14
82.96
82.28
80.14
75.67
68.61
59.43
49.14
38.98
29.97
22.46
15.12
7.58
-2.15
-16.49
-37.03
-63.40
-92.85
-120.67
-141.73
-151.78
-148.93
-134.74
-113.23
-89.40
-67.65
-50.69
-39.21
-32.57
-29.35
-28.13
-28.23
-29.29
-30.91
-32.34
-32.70
-31.43
-28.72
-25.40
-22.58
-21.33
-22.11
-24.45
-27.30
-29.50
-30.24
-29.45
-27.66
-25.76
-24.68
-24.83
-25.92
-26.99
-26.74
-23.93
-17.80
-8.25
4.29
18.84
34.39
50.20
65.86
81.16
95.90
109.84
122.71
134.26
143.79
150.02
151.07
144.50
128.38
102.18
67.48
27.49
-11.89
-45.20
-68.79
-81.59
-84.80
-81.17
-73.83
-65.47
-57.97
-52.33
-49.14
-48.49
-49.99
-52.86
-56.26
-59.46
-62.01
-63.94
-64.92
-64.67
-62.69
-58.51
-51.95
-43.50
-34.24
-25.45
-18.06
-12.75
-9.86
-9.31
-10.19
-10.59
-7.87
0.26
14.24
32.09
49.94
63.55
70.48
70.96
67.13
61.34
54.38
45.31
32.82
17.13
0.67
-12.68
-19.63
-19.38
-13.82
-6.34
-0.07
3.37
3.77
1.44
-3.16
-9.37
-16.05
-20.70
-20.73
-15.29
-6.26
2.54
7.32
6.73
2.81
-0.01
2.37
10.90
21.56
27.38
21.50
0.71
-32.52
-70.68
-104.31
-126.03
-132.62
-125.44
-108.97
-88.78
-69.78
-55.46
-47.55
-46.04
-48.98
-52.51
-51.65
-41.98
-21.64
7.28
39.26
67.14
84.82
89.07
80.26
61.57
36.53
10.03
-13.11
-28.82
-34.58
-29.96
-16.85
1.09
19.37
34.02
42.62
44.48
40.43
32.40
22.98
14.74
9.67
8.54
10.94
15.84
21.94
28.44
35.23
42.76
51.71
62.73
76.23
92.39
111.15
131.51
151.23
166.89
174.92
173.26
162.74
147.36
132.92
124.58
124.38
130.29
137.09
138.91
131.72
114.82
90.55
62.70
34.70
8.45
-15.79
-38.69
-60.92
-82.54
-102.95
-121.30
-136.83
-149.19
-158.17
-163.44
-164.57
-161.49
-155.05
-147.36
-141.21
-138.77
-140.11
-142.59
-141.86
-133.74
-116.11
-89.82
-57.49
-23.67
5.87
25.73
32.86
27.75
14.73
0.23
-10.00
-13.61
-12.54
-11.77
-15.56
-24.02
-32.25
-32.80
-20.00
6.63
41.65
77.16
106.40
126.13
137.05
141.68
142.33
139.87
134.00
122.20
104.57
81.90
55.27
26.10
-3.89
-32.50
-57.49
-77.22
-91.04
-99.06
-101.95
-100.90
-95.67
-86.64
-75.85
-66.95
-63.46
-66.43
-72.83
-76.95
-73.18
-58.74
-35.60
-9.25
14.17
30.66
39.50
42.55
42.05
39.31
34.72
28.45
21.36
15.01
10.67
8.85
9.31
11.36
14.68
19.72
27.28
37.80
50.99
65.69
79.32
88.80
91.09
84.09
67.63
43.74
16.26
-10.24
-31.87
-46.50
-54.08
-56.14
-54.86
-52.16
-49.34
-47.13
-45.87
-45.57
-45.89
-46.16
-45.75
-44.34
-42.13
-39.86
-38.42
-38.39
-39.75
-41.83
-43.77
-44.75
-44.40
-42.89
-40.74
-38.73
-37.95
-39.70
-44.90
-52.90
-60.64
-62.85
-53.90
-30.60
5.55
48.21
88.40
118.21
134.03
137.24
132.76
125.98
120.32
116.57
114.15
112.72
112.73
114.54
116.96
116.70
109.39
91.83
63.85
29.20
-5.92
-35.22
-54.76
-63.96
-64.82
-60.66
-54.55
-48.72
-44.47
-42.41
-42.64
-44.67
-47.37
-49.17
-48.98
-46.56
-42.69
-38.91
-36.66
-36.87
-39.65
-44.71
-51.35
-58.20
-62.85
-62.07
-52.75
-33.62
-6.40
24.33
52.68
74.40
88.54
97.57
104.95
112.34
117.93
117.20
105.92
83.31
53.57
24.00
2.56
-6.93
-5.77
1.13
8.09
11.73
11.42
9.40
7.72
7.05
6.17
3.26
-2.90
-12.08
-22.01
-30.87
-36.90
-39.57
-39.54
-38.31
-37.32
-37.43
-38.58
-39.97
-40.64
-39.81
-37.46
-34.14
-30.83
-28.30
-27.00
-26.82
-27.25
-27.77
-27.92
-27.63
-27.06
-26.84
-26.93
-27.44
-28.41
-29.86
-31.77
-34.08
-36.70
-39.45
-42.11
-44.45
-46.60
-48.84
-51.72
-55.52
-60.27
-65.55
-70.51
-74.19
-75.88
-75.49
-73.51
-71.09
-68.38
-65.19
-60.71
-53.82
-43.62
-30.18
-14.58
1.67
16.23
27.97
36.68
42.63
45.96
46.51
44.56
41.81
41.81
48.83
66.09
93.31
126.29
158.39
183.60
199.18
206.06
207.00
203.72
195.49
179.50
153.57
118.67
79.30
41.70
10.93
-11.59
-27.45
-39.48
-50.32
-60.72
-70.26
-78.54
-86.15
-94.38
-105.76
-121.57
-140.67
-159.11
-170.74
-168.61
-148.33
-110.68
-63.19
-17.58
13.52
22.44
9.39
-17.04
-43.54
-57.76
-53.28
-31.52
0.67
34.04
62.43
84.15
100.60
113.19
121.24
121.89
112.33
91.90
63.63
33.08
5.73
-15.80
-31.89
-44.40
-54.35
-60.63
-60.84
-52.87
-37.94
-20.06
-4.42
4.96
6.84
2.68
-4.76
-12.95
-20.51
-26.93
-31.95
-35.26
-36.53
-36.03
-34.78
-34.34
-35.92
-39.91
-45.37
-50.58
-53.87
-54.32
-52.23
-48.84
-45.65
-43.40
-41.71
-38.82
-32.59
-21.52
-5.57
13.49
32.97
50.02
62.96
71.15
76.41
81.23
87.81
97.59
110.24
123.24
132.11
131.86
117.62
87.92
45.89
-0.57
-40.65
-64.25
-65.59
-45.38
-10.24
29.76
65.37
90.82
104.95
110.31
111.12
111.31
112.85
115.22
115.55
109.86
95.01
69.99
36.96
0.80
-32.30
-57.53
-72.99
-79.87
-81.61
-82.02
-83.75
-87.75
-94.12
-102.52
-112.60
-122.72
-129.02
-125.91
-108.65
-77.00
-37.47
-2.53
14.99
8.23
-19.20
-54.12
-79.76
-83.87
-64.37
-28.86
8.11
34.73
46.71
47.42
43.97
42.31
44.63
49.96
56.78
64.53
74.24
86.36
98.83
106.96
105.81
93.15
70.68
45.23
24.22
12.86
12.15
19.29
29.55
38.82
44.63
46.02
43.16
36.30
26.18
13.98
1.30
-10.43
-20.09
-27.14
-31.85
-34.79
-36.61
-37.51
-37.32
-35.72
-32.83
-28.81
-24.30
-20.27
-17.65
-17.20
-19.21
-23.53
-28.09
-33.33
-39.18
-45.30
-51.34
-56.73
-60.86
-63.26
-63.77
-62.82
-61.58
-61.03
-61.92
-64.37
-67.81
-71.12
-73.36
-73.98
-73.27
-72.39
-72.39
-74.15
-78.35
-85.48
-95.46
-107.03
-117.11
-121.19
-114.88
-95.81
-65.41
-28.96
6.28
34.15
51.86
60.53
64.10
66.24
68.89
71.91
73.99
73.86
71.14
66.13
59.22
50.19
38.75
24.82
8.75
-8.20
-24.54
-38.86
-50.21
-58.39
-63.54
-65.80
-64.91
-60.41
-51.23
-37.11
-18.63
2.65
24.63
45.38
63.73
79.57
92.90
105.41
118.61
133.26
148.22
159.86
162.81
151.99
125.25
85.31
40.13
-1.01
-29.61
-41.21
-36.55
-20.43
0.80
21.42
37.80
48.52
53.79
55.32
55.69
57.59
62.57
70.30
78.51
84.40
86.19
84.10
80.26
77.15
76.15
75.83
73.33
65.98
52.70
34.83
15.12
-3.59
-19.84
-33.85
-46.88
-59.77
-72.33
-83.09
-89.93
-91.55
-88.43
-82.85
-77.90
-76.07
-77.90
-81.41
-83.63
-81.79
-75.23
-65.73
-56.62
-50.31
-47.64
-47.26
-46.87
-45.28
-42.06
-37.35
-30.77
-21.37
-9.41
2.18
8.00
2.71
-15.46
-42.33
-69.21
-86.55
-88.57
-75.77
-54.11
-30.91
-12.48
-0.98
4.82
6.90
6.43
3.47
-2.02
-9.32
-16.63
-21.68
-22.60
-18.10
-7.80
8.06
28.14
50.28
71.79
89.85
102.61
108.81
108.92
103.68
93.58
79.01
60.89
41.17
22.64
8.07
-1.27
-5.73
-7.21
-7.85
-8.89
-10.19
-11.07
-11.25
-11.43
-12.96
-16.41
-21.55
-27.29
-32.28
-35.68
-37.28
-36.84
-33.34
-25.39
-12.40
3.80
18.69
27.35
27.71
22.51
18.34
21.79
35.14
54.70
72.66
81.97
79.67
68.29
53.42
39.91
29.42
20.26
9.93
-2.72
-16.68
-29.71
-40.41
-49.13
-57.79
-68.29
-80.94
-93.97
-103.90
-107.03
-101.15
-87.16
-68.81
-50.93
-37.58
-30.16
-27.14
-25.21
-21.25
-13.72
-3.15
9.11
21.74
34.47
47.77
62.23
77.99
94.16
110.65
126.92
141.73
152.45
155.14
146.18
124.04
91.08
53.35
18.53
-7.39
-22.06
-27.08
-25.82
-21.23
-14.70
-6.34
3.52
13.47
20.97
23.91
21.99
17.03
12.02
9.41
10.27
13.79
18.08
21.13
21.57
18.90
13.39
5.67
-3.54
-13.33
-22.95
-31.82
-39.65
-46.46
-52.38
-57.55
-61.90
-65.15
-66.59
-65.57
-61.82
-55.82
-48.86
-42.75
-39.41
-40.05
-45.01
-52.94
-61.75
-69.44
-74.58
-76.97
-77.22
-76.49
-75.83
-76.41
-78.83
-83.33
-89.36
-94.86
-96.40
-90.16
-74.08
-47.65
-16.84
11.16
30.46
38.55
36.72
28.58
18.10
7.54
-2.34
-11.50
-18.89
-22.65
-21.07
-13.73
-2.28
11.12
24.04
35.22
45.10
55.68
69.22
87.28
110.20
135.48
160.15
179.26
187.08
178.96
153.97
115.93
72.60
33.04
3.95
-12.41
-18.63
-19.68
-19.95
-21.21
-22.94
-23.66
-22.71
-21.10
-20.60
-23.05
-29.43
-40.00
-54.11
-69.65
-83.21
-89.99
-85.48
-67.23
-36.45
2.35
43.14
80.60
111.24
132.12
142.20
140.24
125.54
99.54
66.89
34.79
10.37
-2.33
-3.78
2.24
10.79
18.27
23.28
25.94
26.79
25.89
22.81
17.33
10.15
2.29
-5.39
-12.63
-20.27
-29.46
-41.12
-55.34
-70.48
-84.79
-96.65
-105.13
-110.02
-111.34
-109.49
-103.60
-94.29
-84.05
-76.31
-73.77
-76.22
-79.73
-78.00
-65.63
-41.24
-8.39
24.31
48.77
60.58
60.33
52.06
40.93
30.96
24.19
21.30
22.67
29.28
42.00
59.91
79.20
93.79
97.11
84.96
58.52
25.38
-2.53
-14.02
-4.04
23.27
56.31
81.18
88.11
75.67
50.32
22.36
0.39
-12.52
-18.83
-23.47
-30.40
-40.66
-52.55
-64.14
-75.23
-87.46
-101.21
-116.29
-128.93
-133.15
-123.77
-99.82
-65.59
-29.15
1.23
20.39
27.76
26.75
22.56
19.35
18.97
21.52
26.27
33.15
42.51
54.57
68.44
81.32
88.84
86.53
72.26
47.27
16.03
-14.92
-39.81
-55.29
-60.57
-56.84
-46.28
-31.01
-12.77
7.01
26.73
45.13
60.28
69.89
71.64
64.00
47.61
25.49
2.62
-16.05
-27.80
-32.80
-33.34
-32.46
-32.85
-35.75
-41.54
-50.06
-60.74
-72.06
-81.39
-85.60
-81.31
-69.30
-53.17
-38.05
-28.25
-25.49
-28.58
-34.83
-41.85
-48.75
-56.47
-66.19
-77.94
-89.70
-98.37
-101.00
-96.27
-84.95
-69.90
-53.97
-39.23
-25.93
-12.42
3.84
25.14
52.31
83.92
117.67
149.67
174.65
186.64
180.54
153.93
109.20
54.09
0.66
-38.36
-54.18
-45.18
-17.20
19.18
52.62
76.12
86.60
85.18
75.41
60.90
44.26
27.20
11.42
-1.37
-9.16
-10.78
-6.20
3.26
15.48
28.45
39.70
49.47
58.35
66.83
74.84
81.85
87.19
90.31
91.07
89.99
88.64
88.91
92.39
98.87
105.57
107.48
99.26
77.96
45.14
7.08
-27.96
-52.97
-65.01
-65.73
-59.62
-51.32
-43.49
-36.51
-29.46
-21.95
-14.51
-8.35
-4.30
-2.19
-0.95
0.75
3.69
7.55
10.84
11.90
9.56
3.63
-5.04
-15.05
-24.99
-34.16
-42.14
-49.80
-57.69
-65.80
-73.35
-79.19
-82.44
-82.77
-81.22
-78.87
-77.10
-76.62
-77.13
-77.54
-76.64
-74.12
-69.74
-64.39
-59.33
-55.98
-55.47
-58.60
-65.48
-74.05
-81.88
-84.56
-77.73
-59.28
-31.02
1.58
31.43
52.58
63.03
64.28
60.37
55.13
50.62
46.83
42.85
38.20
33.47
29.97
28.50
29.00
30.34
30.99
29.67
26.17
21.32
16.48
12.96
11.26
11.12
11.58
11.49
10.01
6.99
2.99
-1.08
-4.36
-6.49
-7.59
-8.24
-9.19
-10.96
-13.69
-17.13
-20.79
-24.17
-27.03
-29.41
-31.61
-34.01
-36.95
-40.54
-44.68
-49.07
-53.38
-57.29
-60.63
-63.33
-65.33
-66.61
-66.99
-66.08
-63.37
-58.30
-50.32
-39.27
-25.60
-10.25
5.60
20.78
34.57
46.84
57.98
68.51
78.69
88.27
96.46
102.29
105.00
104.49
101.58
97.71
94.31
92.15
91.04
89.88
87.44
82.77
75.94
68.01
60.70
55.87
55.11
59.68
70.02
85.04
101.37
113.25
114.11
99.06
67.25
22.87
-26.08
-71.02
-105.94
-129.21
-143.20
-151.77
-157.87
-162.33
-164.26
-162.40
-156.33
-146.69
-133.49
-117.58
-99.43
-79.15
-56.75
-33.00
-9.41
11.91
28.97
40.50
46.29
47.37
45.57
42.77
40.33
38.83
38.05
37.42
36.34
34.29
31.24
27.48
23.50
19.73
16.53
14.11
12.55
11.70
11.08
10.05
8.02
4.68
0.18
-4.72
-8.92
-11.41
-11.74
-10.47
-8.92
-8.74
-11.13
-16.20
-22.75
-28.73
-32.26
-32.33
-29.45
-25.43
-22.51
-22.53
-26.45
-34.03
-43.97
-53.62
-59.17
-56.46
-42.49
-17.09
16.37
51.65
82.03
102.95
113.54
116.40
115.90
115.84
117.69
120.03
119.37
111.79
94.76
68.43
35.76
1.65
-28.81
-52.16
-67.72
-76.94
-81.95
-84.30
-84.05
-80.70
-74.34
-66.52
-60.07
-58.04
-62.30
-72.33
-84.90
-94.53
-94.99
-81.82
-54.43
-16.99
22.68
56.03
77.31
85.55
84.50
80.10
77.38
78.35
81.82
85.04
85.69
83.43
79.55
76.14
74.74
75.79
78.85
83.14
88.39
94.54
100.91
105.27
104.08
93.75
72.97
44.04
12.60
-14.63
-32.82
-40.99
-42.03
-40.45
-40.03
-41.73
-44.39
-46.18
-46.35
-45.98
-47.28
-52.30
-61.55
-74.81
-90.32
-104.80
-114.29
-114.54
-102.50
-77.57
-42.76
-3.79
31.37
55.08
62.34
52.10
27.70
-4.82
-38.60
-68.02
-89.57
-102.46
-107.46
-106.19
-100.69
-92.14
-81.97
-71.62
-62.56
-55.40
-49.72
-43.91
-35.59
-24.16
-10.04
4.81
17.53
25.83
28.91
27.72
24.44
21.52
20.50
21.71
24.18
26.21
26.10
22.66
15.58
5.96
-3.50
-8.87
-6.02
7.30
29.84
56.98
82.04
98.94
104.51
99.45
87.24
71.77
56.69
43.09
30.61
18.75
7.83
-1.08
-6.86
-9.35
-9.38
-8.43
-8.07
-9.13
-11.37
-13.85
-15.48
-15.56
-14.14
-11.91
-9.79
-8.65
-8.79
-9.92
-11.34
-12.35
-12.49
-11.80
-10.65
-9.56
-8.95
-8.98
-9.45
-10.06
-10.50
-10.67
-10.64
-10.61
-10.71
-10.99
-11.37
-11.70
-11.88
-12.02
-12.30
-12.94
-14.02
-15.33
-16.42
-16.79
-16.15
-14.60
-12.59
-10.73
-9.49
-8.90
-8.52
-7.53
-5.23
-1.37
3.55
8.47
12.20
14.09
14.21
13.49
13.34
14.87
18.52
24.00
30.55
37.29
43.24
47.34
48.20
44.78
36.69
24.77
11.20
-1.25
-10.54
-16.34
-20.20
-24.24
-29.15
-33.36
-33.30
-25.67
-9.74
11.46
32.14
46.32
50.07
44.38
33.64
23.23
16.46
13.37
11.55
8.35
2.57
-4.67
-10.60
-12.60
-9.12
0.05
13.73
30.44
48.26
64.30
74.69
75.62
64.02
41.36
12.72
-14.89
-35.33
-45.72
-47.18
-43.34
-37.82
-32.55
-27.34
-21.38
-14.60
-8.17
-3.88
-2.94
-5.07
-8.46
-10.83
-10.16
-6.07
0.24
6.53
10.66
11.41
8.98
4.84
1.07
-0.56
0.42
2.96
4.82
3.75
-1.79
-12.01
-25.62
-40.42
-54.36
-66.15
-75.29
-82.96
-90.43
-98.79
-108.88
-121.00
-134.63
-147.89
-157.56
-158.66
-147.32
-121.49
-83.41
-39.32
2.97
37.15
60.75
75.56
85.92
95.76
106.27
116.85
125.29
130.17
131.58
131.05
130.33
130.40
131.17
132.39
134.35
137.01
140.08
141.68
138.37
126.32
103.55
71.42
34.77
0.11
-27.54
-45.45
-53.66
-53.89
-48.30
-38.94
-27.97
-17.93
-11.46
-10.33
-14.30
-21.11
-27.50
-30.91
-30.55
-27.40
-23.39
-20.25
-18.93
-19.47
-21.49
-24.52
-28.10
-31.68
-34.83
-37.14
-38.32
-38.43
-37.75
-36.71
-35.71
-34.88
-34.17
-33.55
-32.79
-31.67
-30.19
-28.55
-27.07
-26.08
-25.72
-25.85
-26.53
-27.33
-27.64
-26.98
-25.14
-22.32
-18.91
-15.38
-12.11
-9.91
-8.86
-8.70
-9.01
-9.47
-10.10
-10.88
-11.82
-9.41
-3.61
4.98
15.67
27.76
40.53
52.75
63.42
71.79
77.43
79.93
79.90
78.36
76.27
73.93
70.44
64.66
55.49
42.38
25.17
4.97
-16.61
-38.17
-56.30
-71.10
-83.25
-93.49
-102.45
-111.06
-120.07
-129.64
-138.50
-143.56
-140.71
-125.89
-97.81
-59.36
-17.37
20.12
46.90
60.82
63.96
60.62
55.46
51.40
49.24
48.32
47.83
47.35
47.03
46.89
46.65
46.11
45.08
43.74
43.14
44.97
50.78
60.64
72.03
80.25
80.43
69.66
49.18
24.43
3.15
-7.94
-5.51
8.03
27.02
45.56
59.78
68.44
72.33
72.26
68.34
60.04
47.01
30.01
10.82
-8.45
-24.98
-38.09
-48.06
-55.75
-62.17
-68.08
-73.46
-77.79
-80.45
-81.09
-79.99
-77.89
-75.69
-74.14
-73.66
-74.18
-75.41
-76.96
-78.59
-80.28
-82.10
-83.99
-85.80
-87.36
-88.58
-89.38
-89.79
-90.17
-90.26
-88.74
-84.19
-75.38
-61.73
-43.61
-22.37
0.07
21.82
41.98
59.67
75.20
89.13
101.64
112.18
119.42
121.75
117.77
106.65
88.12
62.93
33.54
4.16
-19.90
-34.02
-36.35
-28.68
-16.94
-8.14
-6.99
-13.88
-25.50
-36.84
-44.18
-46.55
-45.71
-43.94
-42.37
-39.56
-32.72
-19.71
-0.21
24.27
51.37
78.64
103.83
124.66
137.62
140.31
131.51
112.53
87.41
61.74
40.39
25.93
18.28
15.80
16.85
20.40
25.98
32.89
39.58
43.87
43.38
36.74
24.42
9.16
-4.59
-11.68
-8.62
4.93
25.36
46.09
60.10
62.89
53.81
36.77
17.28
-0.23
-13.92
-24.38
-33.15
-41.11
-47.63
-51.40
-51.56
-48.58
-44.20
-40.35
-38.48
-38.72
-40.09
-41.14
-40.81
-38.86
-36.08
-33.72
-32.70
-33.16
-34.42
-35.42
-35.36
-34.20
-32.66
-31.73
-31.88
-32.92
-33.70
-32.93
-29.66
-23.48
-14.58
-3.34
9.97
24.41
38.16
48.39
52.16
47.83
36.15
20.29
4.31
-8.57
-17.24
-22.43
-25.53
-27.35
-27.61
-25.72
-21.45
-16.96
-15.56
-20.12
-31.27
-46.38
-60.02
-65.96
-59.96
-41.17
-13.23
16.63
40.46
52.83
52.79
44.30
33.86
27.00
25.81
28.27
30.30
28.63
22.84
15.10
8.36
3.87
-0.22
-7.38
-20.88
-41.53
-66.80
-91.83
-111.58
-123.13
-126.40
-123.28
-116.59
-107.49
-95.82
-80.62
-61.12
-37.44
-11.15
14.98
37.83
54.95
65.16
68.53
66.15
59.58
50.58
40.32
29.45
18.42
7.90
-1.04
-7.23
-9.75
-8.30
-3.04
4.70
12.90
19.58
23.48
24.50
23.66
22.50
22.57
25.55
31.99
41.68
53.92
68.08
83.88
101.68
122.05
141.92
161.67
182.45
204.47
225.06
238.24
236.28
213.06
166.71
101.62
28.67
-38.60
-87.73
-110.54
-105.05
-75.58
-30.48
19.23
63.12
94.18
109.44
109.89
99.04
81.27
58.20
34.33
13.10
-4.40
-19.85
-38.14
-65.38
-105.23
-155.50
-207.16
-246.97
-263.82
-253.39
-219.86
-173.69
-126.65
-87.04
-57.98
-38.83
-27.55
-23.60
-26.79
-35.48
-45.37
-50.21
-45.10
-29.55
-8.56
9.32
15.78
7.24
-12.69
-34.70
-47.97
-45.04
-25.91
2.10
28.36
43.97
45.67
36.54
23.44
12.90
7.82
6.68
5.29
0.00
-9.98
-22.34
-32.73
-36.81
-31.41
-15.27
10.61
42.73
75.21
101.07
114.22
112.20
97.95
78.78
63.34
57.55
61.87
71.39
78.71
77.75
66.67
48.13
27.27
8.81
-5.11
-15.01
-22.76
-29.71
-35.72
-39.20
-38.45
-33.03
-24.23
-14.93
-8.32
-6.43
-9.26
-14.83
-20.18
-22.76
-21.24
-16.18
-9.64
-4.19
-1.90
-3.53
-8.37
-14.59
-20.07
-23.09
-23.14
-20.94
-18.22
-16.81
-17.96
-22.21
-29.55
-39.91
-52.90
-67.36
-80.75
-89.19
-88.77
-77.42
-56.65
-31.17
-8.23
6.48
10.77
6.36
-2.73
-12.59
-21.06
-28.06
-34.38
-40.56
-45.86
-49.00
-49.02
-45.83
-40.35
-33.73
-27.00
-20.19
-12.83
-3.95
7.06
20.03
34.11
47.44
58.99
68.02
74.36
78.26
80.17
80.52
79.55
77.57
75.32
73.07
71.23
69.97
69.00
67.60
65.24
61.09
55.30
48.83
43.05
39.11
37.24
36.61
35.53
32.40
26.67
19.33
12.57
8.80
9.62
15.01
23.73
33.81
43.60
51.44
55.04
51.60
39.06
18.20
-6.27
-27.09
-38.20
-38.43
-32.73
-29.73
-36.56
-54.42
-77.77
-97.59
-105.91
-101.09
-87.83
-73.46
-63.59
-60.15
-61.15
-64.42
-68.66
-72.96
-75.72
-74.19
-64.43
-45.57
-19.73
8.05
31.81
47.53
54.33
54.13
50.53
46.36
43.68
44.11
49.12
59.76
75.85
94.66
110.58
116.40
106.60
79.90
40.61
-2.77
-40.78
-66.54
-78.01
-76.55
-68.03
-58.18
-50.07
-43.89
-38.41
-32.67
-26.79
-21.71
-18.23
-16.59
-16.09
-15.46
-13.63
-10.35
-6.10
-1.77
1.82
4.20
5.32
5.68
6.04
6.90
8.36
10.24
12.20
13.96
15.43
16.48
17.21
17.68
17.92
17.94
17.95
18.29
19.23
20.85
22.72
24.11
24.15
22.09
17.71
11.48
4.21
-3.42
-10.99
-18.66
-26.85
-35.91
-45.54
-56.12
-67.87
-80.71
-93.52
-103.53
-106.55
-98.53
-77.67
-46.13
-9.84
23.67
48.14
61.03
64.00
61.33
57.48
55.30
55.38
56.76
58.31
59.42
60.30
61.26
62.44
63.67
64.72
65.39
66.24
68.51
73.28
80.30
87.05
88.97
81.23
61.25
30.47
-5.58
-39.30
-64.30
-77.83
-81.37
-79.09
-75.27
-72.36
-70.69
-69.42
-67.88
-66.33
-65.72
-66.82
-69.55
-73.06
-76.02
-77.40
-77.10
-75.75
-74.42
-73.94
-74.53
-75.55
-76.19
-74.64
-69.72
-61.09
-49.18
-34.89
-19.28
-3.16
13.47
29.81
45.66
60.68
74.37
86.07
95.17
101.24
104.28
104.59
102.65
99.12
94.40
88.71
81.97
74.17
65.38
55.84
45.93
36.02
26.61
17.95
10.18
3.20
-3.08
-8.75
-13.80
-18.03
-21.27
-23.29
-23.91
-23.13
-21.28
-18.73
-15.91
-13.14
-10.70
-8.82
-7.59
-7.23
-7.93
-10.35
-14.72
-20.64
-27.09
-32.48
-35.17
-33.85
-27.91
-17.61
-4.88
8.20
19.95
29.60
37.29
43.64
49.18
53.88
57.11
56.60
50.71
39.18
23.55
6.77
-7.97
-18.18
-22.88
-22.71
-21.28
-22.37
-29.19
-44.03
-67.99
-100.81
-140.64
-184.10
-215.13
-223.05
-204.18
-163.89
-114.24
-68.19
-34.36
-14.81
-6.14
-2.73
-1.89
-3.12
-7.12
-14.30
-23.53
-32.49
-38.84
-41.52
-40.97
-40.16
-42.12
-48.17
-57.97
-69.55
-80.16
-87.40
-89.94
-87.61
-81.97
-75.45
-68.16
-59.47
-47.95
-31.94
-10.23
17.38
49.89
84.79
117.63
145.51
166.69
180.81
188.84
192.41
193.26
192.60
190.72
187.22
181.84
174.46
165.49
155.95
147.00
139.42
133.52
129.37
127.32
127.97
130.88
133.67
132.00
120.98
97.52
62.58
21.57
-17.44
-46.93
-63.21
-67.48
-64.26
-59.00
-55.67
-55.67
-59.02
-65.62
-76.17
-91.81
-112.50
-135.55
-155.71
-166.24
-162.94
-145.97
-120.11
-92.86
-71.15
-58.73
-55.10
-56.46
-58.29
-57.38
-52.31
-43.03
-29.80
-12.24
10.48
38.53
69.97
99.65
121.07
128.09
118.16
93.97
62.87
33.89
13.98
5.26
5.00
8.03
9.91
9.19
7.38
7.04
9.69
14.35
18.48
19.19
15.25
7.48
-1.80
-9.84
-15.10
-17.77
-19.68
-23.23
-30.23
-41.11
-55.06
-70.67
-86.32
-100.19
-109.77
-111.89
-103.52
-83.38
-53.09
-17.41
17.34
45.62
64.58
74.67
78.63
79.48
79.06
77.98
76.32
74.50
73.92
76.11
81.72
89.70
97.00
99.28
92.59
75.24
48.82
17.76
-12.28
-36.54
-52.53
-60.78
-63.85
-64.58
-64.54
-63.54
-60.21
-53.26
-42.37
-28.16
-12.20
3.51
17.56
29.45
39.66
49.29
59.45
71.10
85.35
102.95
123.54
146.19
169.35
190.85
208.22
219.65
221.86
214.11
197.41
172.58
141.32
105.89
68.82
32.19
-2.54
-35.04
-65.33
-94.26
-124.93
-158.92
-195.71
-233.44
-270.97
-308.54
-346.88
-384.82
-418.55
-444.90
-459.59
-459.58
-444.81
-418.76
-386.31
-351.27
-314.65
-260.59
-186.69
-103.42
-28.48
24.99
53.84
63.16
60.92
53.98
46.06
35.24
20.51
2.62
-14.79
-28.79
-36.19
-35.61
-27.20
-12.21
5.71
24.89
45.19
68.86
97.52
131.27
168.46
206.84
245.02
275.43
294.73
302.52
302.55
299.01
295.25
292.80
291.73
291.33
289.89
286.78
270.47
235.49
182.61
118.65
52.23
-10.26
-65.70
-113.65
-154.03
-187.05
-211.10
-225.26
-229.97
-226.48
-216.32
-200.69
-180.36
-155.38
-125.67
-89.92
-50.11
-9.37
28.65
60.71
84.81
100.33
108.03
109.28
106.50
101.57
95.82
89.81
83.42
76.58
69.49
62.67
56.75
52.50
49.93
48.68
47.93
46.60
44.28
41.25
38.33
36.56
36.75
38.80
41.99
45.10
46.92
47.07
46.06
44.99
44.93
46.81
51.12
58.20
68.62
79.58
87.24
86.76
73.90
46.95
8.24
-36.40
-79.21
-113.64
-136.74
-148.99
-153.19
-152.32
-147.97
-139.02
-125.93
-109.37
-91.02
-73.33
-58.12
-45.94
-36.15
-27.48
-18.76
-9.88
-1.37
5.92
11.08
13.89
14.95
15.50
16.84
19.94
24.82
30.91
37.31
43.07
47.61
50.81
52.77
53.74
53.78
52.45
49.24
43.59
35.23
24.30
11.86
-1.12
-13.45
-24.07
-32.45
-38.51
-42.51
-45.06
-46.67
-47.67
-48.15
-47.96
-46.85
-44.90
-42.47
-40.16
-38.69
-38.55
-39.63
-41.43
-43.39
-44.41
-44.14
-42.95
-41.81
-41.85
-43.85
-47.83
-52.98
-57.94
-61.59
-63.42
-63.83
-63.88
-64.72
-67.32
-72.31
-80.03
-90.29
-101.68
-111.27
-114.92
-108.76
-91.21
-64.40
-33.95
-6.88
11.14
18.02
15.60
7.91
-1.06
-8.97
-15.34
-20.50
-24.17
-25.13
-21.75
-13.11
0.35
16.90
34.27
50.35
63.60
74.04
82.34
89.23
94.97
99.24
101.33
100.60
96.86
91.11
84.19
77.34
71.54
67.11
63.79
60.90
57.79
54.06
49.89
45.80
42.41
40.01
38.43
37.19
35.74
33.80
31.48
29.36
28.09
28.11
29.35
31.15
32.68
33.26
32.72
31.59
30.89
31.57
34.15
38.33
43.09
47.25
50.07
51.48
52.20
53.32
55.69
59.65
65.39
72.24
79.33
85.12
87.06
81.90
67.05
42.02
9.29
-26.01
-57.93
-81.85
-95.76
-100.49
-98.55
-92.61
-84.58
-75.83
-67.52
-61.08
-57.75
-57.54
-58.95
-59.54
-56.84
-49.79
-39.38
-28.39
-20.06
-17.09
-20.25
-28.09
-37.32
-42.89
-39.42
-23.01
7.17
48.05
89.63
120.28
130.53
116.63
82.97
39.88
-1.38
-32.41
-49.85
-55.24
-52.29
-44.59
-34.28
-21.37
-6.12
9.65
23.21
31.08
31.09
23.57
12.70
1.12
-9.29
-16.54
-20.53
-21.42
-20.30
-17.24
-11.52
-2.17
11.39
30.34
52.42
74.13
92.90
105.83
111.42
109.27
99.41
82.51
61.23
34.35
-0.14
-33.01
-58.03
-71.75
-74.52
-69.78
-70.49
-76.67
-89.91
-111.27
-140.36
-177.95
-215.13
-246.29
-268.78
-280.59
-263.32
-212.52
-136.20
-49.46
32.54
92.61
132.40
154.98
162.95
158.99
142.74
112.79
69.50
19.93
-27.33
-64.89
-90.55
-105.16
-109.87
-108.95
-106.00
-102.63
-99.21
-96.31
-94.61
-95.88
-100.14
-104.16
-103.94
-94.65
-72.63
-37.88
4.31
45.80
78.11
96.80
102.80
99.83
92.44
84.04
76.09
68.27
60.35
52.47
45.64
40.86
37.96
35.76
32.86
28.27
21.86
14.52
7.39
1.40
-3.07
-6.47
-9.72
-13.61
-18.35
-23.52
-28.15
-31.48
-33.17
-33.36
-32.54
-30.99
-28.80
-24.79
-17.72
-6.60
8.43
26.04
44.29
61.06
74.87
85.33
93.11
99.61
106.95
116.90
130.30
146.09
160.62
168.25
163.42
143.39
108.94
68.23
31.23
6.00
-4.66
-3.81
1.86
5.63
3.13
-7.14
-24.38
-46.78
-71.56
-94.76
-110.94
-116.13
-109.38
-93.64
-74.68
-58.59
-49.64
-48.72
-53.85
-61.95
-70.73
-79.04
-86.51
-92.73
-96.78
-97.84
-95.71
-91.13
-85.30
-79.59
-74.02
-67.51
-58.42
-45.38
-28.16
-7.89
13.23
32.63
48.20
59.01
65.32
68.19
68.81
67.82
65.24
60.75
54.21
46.12
37.74
30.77
26.62
25.74
27.26
29.47
30.33
28.41
23.29
15.74
7.50
0.81
-2.12
-0.05
6.34
13.81
16.67
8.30
-16.34
-58.22
-113.25
-173.18
-228.34
-270.25
-293.51
-296.48
-280.48
-248.46
-203.91
-150.46
-91.71
-32.92
20.73
66.23
103.10
133.21
160.08
188.22
221.91
264.02
314.30
368.38
418.56
454.37
465.23
443.84
388.93
306.46
208.57
110.58
27.47
-28.56
-51.56
-42.72
-9.23
38.61
90.71
139.58
180.98
205.97
209.00
188.36
147.09
91.81
30.54
-29.15
-81.56
-123.32
-153.28
-170.60
-175.61
-169.68
-156.63
-141.77
-131.10
-129.95
-141.29
-164.69
-195.49
-226.97
-251.95
-265.02
-264.76
-253.64
-236.54
-218.31
-202.06
-187.90
-173.93
-158.07
-139.48
-118.84
-97.10
-75.03
-52.73
-30.02
-6.80
16.23
36.70
51.28
57.66
55.73
47.94
38.53
31.65
28.10
28.93
34.57
45.17
60.56
79.01
96.82
109.65
114.29
111.72
106.79
104.65
107.71
114.35
119.04
115.50
100.21
73.60
41.25
10.26
-14.56
-30.87
-36.85
-30.48
-9.96
24.49
67.57
111.63
148.06
170.31
170.75
150.23
117.89
86.97
75.64
84.63
106.01
130.06
144.78
144.95
132.21
112.01
90.11
69.91
50.69
31.51
12.11
-6.47
-21.61
-30.50
-32.33
-29.07
-24.47
-23.12
-27.10
-36.14
-48.60
-61.62
-71.80
-76.05
-72.67
-62.09
-47.38
-32.19
-19.60
-11.13
-5.95
-1.68
4.13
12.70
23.66
35.44
46.87
57.77
68.79
80.84
94.14
107.68
119.42
127.05
128.77
123.97
113.06
96.84
76.09
51.39
23.40
-6.83
-37.59
-66.70
-91.99
-111.85
-125.59
-133.40
-136.14
-134.95
-131.00
-125.25
-118.46
-111.06
-103.18
-94.60
-84.95
-74.00
-61.93
-49.43
-37.54
-27.15
-18.57
-11.46
-5.17
0.64
5.69
9.25
10.67
9.97
8.03
6.07
5.01
4.91
5.10
4.68
3.31
1.46
0.13
0.18
1.57
3.21
3.32
0.36
-6.32
-16.06
-27.24
-38.06
-47.18
-54.28
-59.87
-64.93
-70.20
-75.66
-80.36
-82.74
-81.37
-75.82
-67.16
-57.69
-50.01
-45.67
-44.32
-43.90
-41.79
-36.50
-28.63
-20.70
-15.91
-16.46
-22.55
-32.58
-44.01
-54.61
-63.07
-68.82
-71.55
-70.90
-66.73
-59.64
-51.20
-43.52
-38.20
-35.63
-34.47
-32.48
-27.89
-20.52
-11.86
-4.15
1.12
4.06
5.50
6.35
6.38
3.97
-2.87
-15.01
-31.43
-49.46
-65.87
-79.19
-89.52
-98.17
-106.63
-115.32
-123.51
-129.98
-133.68
-133.84
-131.22
-126.85
-121.96
-118.37
-117.99
-122.85
-134.56
-153.51
-170.18
-174.90
-159.61
-121.83
-66.13
-0.74
66.40
130.08
187.60
237.67
278.00
306.27
323.09
328.46
323.54
310.77
293.26
273.80
254.42
235.47
216.87
198.51
180.14
162.23
144.34
127.07
110.90
96.18
82.48
69.36
56.62
44.21
32.78
23.18
16.14
11.57
8.69
6.20
2.95
-1.66
-7.70
-14.33
-20.29
-24.24
-25.46
-24.15
-21.46
-19.03
-18.38
-20.32
-24.55
-29.80
-34.43
-37.26
-37.94
-36.88
-34.84
-32.51
-30.31
-28.32
-26.44
-24.50
-22.48
-20.52
-18.84
-17.62
-16.97
-16.78
-16.67
-16.11
-14.42
-11.06
-5.73
1.34
9.34
16.97
22.81
25.75
25.47
22.61
18.54
14.79
12.30
11.16
10.69
10.02
8.59
6.35
3.66
0.81
-2.20
-5.73
-10.15
-15.56
-21.65
-27.88
-33.83
-39.35
-44.55
-49.49
-53.87
-56.98
-58.01
-56.62
-53.32
-49.44
-46.62
-46.09
-47.98
-51.22
-54.04
-54.76
-52.50
-47.44
-40.42
-32.39
-24.01
-15.63
-7.59
-0.47
4.98
8.15
8.99
8.18
6.92
6.56
8.08
11.70
16.85
22.40
27.10
29.93
30.54
29.32
27.28
25.70
25.61
27.31
30.29
33.47
35.69
36.30
35.39
33.77
32.58
32.68
34.26
36.73
39.00
40.03
39.36
37.20
34.31
31.65
30.15
30.71
34.10
40.86
50.90
63.12
75.36
84.89
89.63
89.27
85.63
81.95
81.18
84.16
88.98
91.70
88.37
77.11
59.03
37.59
16.66
-1.29
-16.01
-28.85
-41.61
-55.40
-70.37
-86.19
-102.54
-118.99
-134.40
-146.69
-153.35
-152.78
-145.34
-133.35
-119.87
-106.95
-94.68
-81.64
-66.50
-49.27
-31.46
-15.09
-1.28
10.28
20.57
29.86
36.81
38.72
33.12
19.39
-0.73
-23.99
-47.26
-68.76
-88.28
-106.29
-123.04
-137.72
-148.75
-154.72
-155.29
-151.69
-146.37
-141.93
-140.10
-141.32
-144.35
-146.66
-145.24
-137.58
-122.55
-100.76
-74.38
-46.26
-19.70
2.91
20.27
32.04
38.61
40.70
39.33
35.91
32.22
28.94
25.96
21.95
14.86
3.01
-13.96
-34.70
-56.53
-71.28
-72.67
-57.94
-29.86
4.66
38.55
67.54
90.70
109.11
124.31
136.62
146.11
153.52
159.94
166.81
175.32
185.78
197.43
208.92
215.35
214.11
204.65
188.27
167.60
145.73
125.57
109.41
98.63
92.39
88.18
81.78
68.61
45.95
14.41
-21.93
-57.01
-85.03
-103.21
-111.84
-113.82
-112.60
-110.45
-107.80
-103.88
-99.20
-93.23
-86.59
-80.08
-74.17
-68.59
-62.49
-54.74
-44.67
-32.39
-18.65
-5.08
6.75
15.67
21.26
23.86
24.37
23.77
22.86
22.11
21.20
19.56
16.61
12.13
6.46
0.43
-4.93
-8.74
-9.97
-8.59
-5.27
-1.03
3.24
7.03
10.32
13.34
16.36
19.46
22.25
24.03
24.11
22.15
18.45
14.01
10.17
8.12
8.33
10.04
11.63
11.08
6.92
-1.34
-13.09
-26.97
-41.11
-53.46
-62.04
-65.42
-63.38
-57.23
-49.73
-44.19
-43.14
-46.87
-53.36
-58.87
-59.59
-53.32
-40.32
-23.00
-4.52
11.37
21.95
25.94
24.60
20.90
17.63
15.91
14.96
12.94
8.15
0.61
-8.51
-16.02
-17.36
-7.91
14.93
50.14
92.46
133.74
168.50
192.62
205.60
209.76
208.20
202.75
193.30
178.69
155.40
125.95
94.66
66.57
45.16
31.23
22.66
15.30
4.51
-13.09
-37.83
-67.89
-99.02
-126.54
-146.82
-158.68
-163.29
-163.21
-160.91
-157.15
-153.25
-148.29
-141.85
-134.25
-126.19
-118.04
-109.53
-99.83
-87.88
-73.41
-56.70
-38.89
-21.40
-5.87
6.56
15.69
22.46
28.64
35.96
44.96
54.03
60.31
60.69
53.76
40.54
24.30
9.56
0.52
-0.08
8.17
23.76
43.15
62.20
77.16
85.74
87.47
83.62
76.46
68.43
62.92
61.83
66.83
78.42
95.08
113.05
127.31
133.39
127.90
112.51
91.33
69.69
51.99
40.13
32.95
26.81
17.13
0.36
-24.24
-54.54
-85.73
-112.46
-130.89
-139.85
-140.77
-136.45
-129.57
-121.98
-115.25
-110.60
-108.83
-109.80
-111.76
-111.72
-107.39
-97.15
-82.05
-65.53
-51.75
-43.57
-41.32
-42.65
-43.36
-39.07
-26.68
-5.82
20.86
48.47
71.48
85.70
89.77
85.57
77.10
68.42
61.60
56.14
49.90
40.86
28.62
14.96
2.85
-5.16
-8.08
-7.21
-5.37
-5.47
-9.07
-15.69
-23.10
-28.41
-29.82
-27.45
-23.24
-19.92
-19.50
-22.84
-29.52
-38.38
-47.84
-55.93
-60.18
-57.86
-46.93
-27.27
-1.81
24.00
44.18
54.78
55.60
50.15
44.02
41.14
44.16
52.87
64.61
75.67
82.84
84.65
81.77
76.52
71.85
70.34
72.88
78.66
85.64
91.62
95.19
95.98
94.33
90.49
84.16
74.35
60.15
41.93
21.97
4.19
-7.18
-9.43
-2.83
9.15
20.77
26.34
22.57
9.77
-8.47
-27.31
-42.95
-54.13
-61.91
-68.33
-74.67
-80.49
-84.12
-83.94
-79.66
-72.60
-65.03
-58.99
-55.40
-53.98
-53.77
-53.82
-53.52
-52.69
-51.41
-49.95
-48.70
-48.20
-48.84
-50.54
-52.71
-54.53
-55.78
-57.30
-60.94
-68.76
-81.88
-99.61
-119.54
-138.20
-152.21
-159.24
-158.35
-149.78
-134.53
-113.93
-89.50
-62.96
-36.19
-11.09
10.86
29.11
44.45
58.72
74.14
92.03
111.91
131.61
148.40
160.52
168.18
173.37
178.42
184.34
189.84
191.74
186.64
172.83
151.31
125.43
99.36
76.37
57.84
43.24
31.20
20.77
12.21
6.90
6.49
11.61
21.00
31.62
39.84
42.96
40.46
34.14
27.23
22.93
23.21
28.17
36.49
46.16
55.17
61.93
65.27
64.57
59.90
52.20
43.07
34.12
26.15
18.84
10.96
1.41
-9.95
-22.03
-33.08
-41.82
-48.22
-53.41
-58.91
-65.48
-72.68
-79.16
-83.62
-85.62
-85.68
-84.76
-83.46
-81.56
-78.16
-72.33
-63.80
-53.20
-41.81
-30.90
-21.22
-12.92
-5.89
-0.11
4.17
6.46
6.38
3.85
-0.77
-6.77
-13.25
-19.28
-24.08
-27.09
-28.08
-27.15
-24.74
-21.52
-18.27
-15.65
-14.16
-13.99
-15.01
-16.88
-19.16
-21.44
-23.47
-24.97
-25.53
-24.52
-21.44
-16.38
-10.55
-6.07
-5.05
-8.26
-14.38
-20.41
-23.23
-21.42
-16.17
-10.58
-7.63
-8.05
-9.61
-8.31
-0.82
13.39
31.55
48.95
61.33
66.76
65.94
61.04
53.83
44.49
31.82
14.73
-5.98
-26.86
-42.71
-48.96
-44.20
-31.26
-16.28
-5.88
-4.18
-11.15
-23.38
-36.50
-47.59
-56.04
-62.33
-66.00
-64.60
-54.61
-33.83
-3.90
29.50
58.44
75.97
78.66
67.45
46.58
21.57
-2.56
-22.22
-35.50
-42.09
-43.04
-40.43
-36.66
-33.51
-31.61
-30.39
-28.89
-26.73
-24.50
-23.49
-24.58
-27.29
-29.70
-29.18
-23.75
-13.24
0.38
13.70
23.09
26.03
21.61
10.57
-4.93
-21.65
-35.59
-42.74
-40.35
-28.31
-9.71
9.93
24.79
31.02
28.22
19.04
7.73
-1.96
-8.26
-11.41
-12.65
-12.60
-10.19
-2.85
12.14
35.55
64.65
93.23
113.57
119.67
110.30
89.86
66.57
48.74
41.18
43.53
51.59
60.29
66.51
70.27
73.85
79.83
89.39
101.74
114.73
126.02
134.22
139.26
142.12
144.19
146.48
149.07
151.12
151.31
148.78
143.69
137.25
131.00
125.47
119.34
109.90
94.78
74.12
51.68
33.80
26.76
33.78
53.42
80.29
107.33
128.42
139.82
140.21
129.88
110.35
84.57
57.45
35.49
25.03
29.70
48.40
75.18
101.32
118.60
122.29
112.42
93.14
70.38
49.42
33.15
21.51
12.26
2.17
-12.10
-33.45
-63.90
-103.91
-151.28
-200.31
-241.89
-265.63
-263.38
-232.85
-179.46
-114.94
-53.30
-5.80
22.53
33.54
33.45
29.18
25.42
23.64
23.26
23.44
24.33
26.85
31.38
36.41
37.84
30.27
9.44
-25.04
-68.48
-112.30
-147.36
-167.82
-173.49
-169.44
-163.02
-160.26
-163.43
-171.03
-179.88
-187.83
-195.48
-205.91
-222.73
-247.53
-278.32
-309.57
-333.76
-343.95
-336.12
-310.69
-272.30
-228.18
-185.58
-149.50
-121.92
-102.37
-89.64
-83.25
-83.82
-92.20
-107.75
-127.05
-144.02
-151.78
-145.38
-124.01
-91.43
-54.19
-18.70
11.27
35.67
57.14
78.89
102.93
129.40
157.20
184.95
211.47
235.53
255.34
268.35
271.96
264.83
247.76
223.61
195.98
167.52
138.66
107.42
70.68
26.20
-25.76
-81.87
-136.61
-184.16
-220.35
-243.60
-254.80
-256.24
-250.51
-239.90
-226.42
-211.74
-196.91
-181.67
-164.13
-141.32
-110.70
-71.77
-27.04
18.32
58.09
86.71
100.92
100.25
86.96
65.40
41.37
20.92
9.30
9.58
21.36
40.63
60.73
74.43
76.56
66.31
47.67
28.34
16.89
19.11
35.92
63.16
93.42
119.06
135.17
140.22
135.66
124.50
108.70
89.32
66.71
41.24
13.79
-13.62
-39.52
-62.94
-83.34
-102.22
-121.27
-141.46
-162.74
-184.01
-202.43
-216.90
-227.51
-235.16
-243.96
-258.01
-279.65
-308.60
-342.04
-373.83
-400.64
-421.55
-437.35
-453.10
-473.31
-498.81
-526.08
-548.76
-558.09
-551.86
-533.52
-488.60
-412.00
-306.50
-181.42
-49.39
61.28
151.37
230.51
308.89
393.28
485.83
579.35
663.22
726.42
759.65
760.07
727.36
667.66
594.47
522.94
466.21
432.84
423.82
432.29
448.32
457.18
446.11
409.99
354.86
287.59
214.17
139.18
67.35
3.91
-48.40
-88.28
-115.43
-131.80
-141.70
-149.17
-156.56
-163.96
-168.86
-168.74
-162.09
-149.32
-133.63
-120.44
-114.43
-117.99
-130.98
-151.08
-175.12
-199.54
-220.90
-236.52
-245.26
-246.78
-241.25
-229.08
-210.72
-186.57
-156.93
-122.33
-83.87
-43.52
-3.64
33.39
65.48
91.04
109.40
121.02
127.51
131.06
133.58
136.07
138.28
139.28
138.13
134.56
129.29
123.62
118.62
114.47
110.31
104.71
96.67
86.44
75.81
67.58
64.63
68.81
80.35
97.81
118.51
139.20
156.96
169.99
178.24
183.36
188.08
195.07
205.75
219.60
234.13
245.43
249.35
242.66
224.17
195.43
161.03
127.95
103.76
93.70
98.31
112.42
126.94
132.70
124.56
103.62
76.31
50.70
32.17
21.10
12.83
0.36
-22.20
-57.63
-104.94
-160.06
-217.30
-270.72
-315.36
-348.59
-370.42
-382.29
-385.12
-377.93
-357.75
-321.70
-269.78
-206.65
-141.47
-85.54
-48.95
-37.65
-51.57
-84.54
-125.93
-163.34
-185.91
-187.31
-167.11
-130.03
-83.36
-33.37
16.34
64.45
110.18
151.87
186.84
212.86
229.76
239.42
245.17
249.72
253.69
255.69
253.69
245.68
230.51
208.06
178.75
144.27
107.02
69.60
34.49
4.23
-18.98
-33.50
-38.56
-35.17
-25.24
-11.71
1.96
10.33
10.11
1.21
-13.32
-26.24
-34.88
-38.58
-37.28
-32.01
-23.52
-12.96
-2.35
5.90
9.71
7.85
1.10
-8.44
-18.53
-27.37
-33.79
-37.40
-38.32
-37.07
-34.57
-31.40
-27.96
-24.75
-22.17
-20.44
-19.49
-18.99
-18.46
-17.77
-16.91
-16.34
-16.95
-19.55
-24.29
-30.24
-35.54
-38.01
-36.32
-30.65
-23.02
-16.83
-15.65
-21.94
-36.05
-56.00
-78.13
-98.32
-113.17
-120.66
-120.29
-112.88
-100.12
-84.27
-67.83
-53.15
-42.10
-35.88
-34.81
-38.29
-45.04
-53.21
-60.73
-65.70
-66.36
-61.51
-50.81
-34.71
-14.13
10.03
37.37
67.04
97.01
124.57
146.92
162.03
169.23
169.23
163.45
153.68
141.96
130.03
119.77
112.38
107.61
103.79
98.47
89.31
75.67
60.59
46.12
34.79
28.50
27.67
31.40
38.19
45.81
50.55
49.87
41.88
26.59
5.97
-16.95
-39.51
-60.35
-80.22
-100.67
-122.26
-144.67
-166.51
-186.49
-204.04
-220.53
-233.79
-240.13
-235.71
-218.30
-190.09
-156.58
-124.11
-96.50
-73.28
-50.18
-22.48
12.21
52.36
91.84
122.81
138.63
136.17
116.95
86.89
54.08
25.14
7.12
2.46
8.24
18.01
25.70
28.90
29.79
32.59
40.28
53.67
68.64
80.13
85.01
83.53
78.78
74.53
72.98
73.82
75.41
75.68
74.14
72.04
71.72
73.72
77.76
82.33
85.62
87.06
87.54
89.26
94.13
102.55
112.72
118.70
114.17
95.29
63.10
22.99
-17.79
-53.26
-81.11
-101.42
-114.43
-120.05
-118.34
-110.08
-97.33
-81.47
-65.42
-51.98
-42.88
-38.28
-36.81
-36.19
-34.12
-29.25
-21.83
-13.89
-8.04
-6.28
-9.28
-16.20
-25.22
-34.44
-42.56
-49.24
-55.04
-60.51
-65.59
-69.53
-71.12
-69.28
-63.65
-54.94
-44.84
-35.52
-28.58
-24.33
-21.89
-19.79
-17.06
-13.98
-11.87
-12.22
-15.47
-20.48
-25.12
-27.71
-28.28
-28.68
-31.50
-38.27
-48.23
-58.37
-64.95
-65.25
-58.93
-47.79
-34.63
-21.58
-9.11
3.81
18.87
36.69
56.49
76.43
94.74
110.95
126.34
143.30
164.20
190.51
221.80
256.08
290.40
321.49
345.98
360.86
363.49
352.45
328.32
292.74
248.14
196.73
139.85
78.00
11.35
-60.25
-136.74
-212.12
-278.53
-328.43
-358.01
-368.60
-364.95
-351.83
-333.07
-310.78
-285.99
-260.45
-236.25
-215.52
-199.81
-189.50
-183.13
-179.09
-175.70
-171.45
-166.34
-160.93
-156.04
-152.16
-152.51
-155.20
-157.97
-158.66
-155.66
-148.75
-138.13
-124.48
-108.58
-90.99
-71.33
-49.47
-25.15
3.88
36.51
70.69
103.96
133.86
158.37
176.67
188.51
194.49
195.90
193.80
189.33
183.03
174.78
164.18
151.23
136.36
120.57
105.44
92.11
81.42
73.14
66.28
59.52
51.73
41.92
29.28
13.41
-4.97
-23.03
-36.25
-40.06
-31.61
-12.82
10.66
31.13
41.96
40.12
26.95
6.98
-14.85
-35.01
-52.25
-66.61
-78.27
-86.83
-91.45
-91.72
-87.89
-81.43
-73.62
-65.63
-57.61
-48.98
-38.94
-27.04
-13.93
-0.63
11.17
20.56
27.01
30.91
33.04
34.21
34.70
34.09
32.33
29.05
25.51
23.82
26.75
37.23
57.93
91.18
133.23
181.92
226.85
259.99
276.41
276.00
262.77
242.32
219.15
195.30
171.45
147.11
123.04
100.70
81.96
68.08
59.35
55.34
55.20
58.26
62.69
66.00
64.06
52.45
28.69
-5.85
-45.61
-82.83
-110.35
-125.12
-127.95
-122.88
-114.55
-105.78
-97.36
-89.06
-80.87
-73.58
-68.51
-66.13
-65.75
-65.60
-63.54
-58.02
-48.84
-37.15
-24.77
-13.48
-4.24
2.61
7.20
10.03
11.19
10.30
6.79
0.18
-9.45
-21.29
-33.84
-46.29
-57.79
-68.07
-77.00
-84.28
-89.41
-92.49
-91.94
-87.35
-79.60
-70.41
-62.05
-56.38
-53.99
-54.15
-55.04
-54.64
-51.79
-47.10
-42.44
-40.20
-42.27
-49.22
-60.36
-73.46
-84.88
-90.55
-87.08
-73.26
-51.34
-27.10
-8.15
-1.59
-10.02
-29.22
-49.24
-58.22
-46.90
-12.64
39.45
98.56
151.34
186.72
199.03
188.51
159.93
120.70
78.54
38.14
6.57
-13.42
-23.42
-27.08
-28.09
-29.19
-31.97
-37.11
-44.92
-54.91
-66.22
-77.33
-86.15
-90.68
-90.33
-85.92
-79.48
-73.04
-67.91
-63.24
-57.15
-47.20
-31.46
-9.36
18.09
48.70
79.93
107.64
129.93
146.23
156.77
165.12
171.29
174.42
173.55
168.03
157.70
143.11
124.96
104.18
78.43
50.08
21.70
-4.78
-28.11
-47.70
-63.24
-75.13
-84.12
-91.06
-96.46
-100.78
-104.09
-106.01
-106.33
-105.05
-102.67
-100.09
-98.03
-96.45
-94.80
-92.00
-85.89
-74.92
-58.53
-37.47
-13.46
11.64
36.46
60.32
81.92
101.50
119.40
135.96
151.50
166.06
178.70
186.89
186.44
173.17
145.44
105.61
60.23
17.86
-14.26
-32.95
-39.63
-38.88
-35.37
-31.60
-27.85
-23.26
-17.45
-11.24
-6.22
-3.65
-3.57
-4.64
-4.91
-2.87
1.73
7.96
14.04
18.06
18.98
16.82
12.55
7.68
3.52
0.56
-1.50
-3.63
-6.65
-10.78
-15.77
-20.38
-23.27
-23.44
-20.63
-15.68
-10.03
-5.28
-2.57
-2.46
-4.41
-7.40
-10.45
-13.15
-15.96
-19.96
-26.28
-34.39
-44.72
-56.25
-67.15
-75.85
-81.53
-84.34
-85.26
-85.63
-86.63
-89.36
-94.31
-101.48
-109.79
-116.22
-116.56
-106.50
-84.15
-51.58
-14.58
19.45
44.37
57.71
61.07
58.47
53.99
49.83
46.07
41.82
36.67
31.35
27.22
25.29
25.32
26.15
26.16
24.02
19.47
13.34
7.10
2.10
-1.02
-2.58
-3.56
-5.17
-8.31
-13.11
-19.01
-25.00
-30.21
-34.26
-37.34
-40.10
-43.30
-47.47
-52.67
-58.50
-64.25
-69.18
-72.87
-75.34
-76.68
-77.00
-76.26
-74.08
-69.93
-62.86
-52.16
-37.59
-19.53
1.23
23.59
46.41
68.79
89.58
108.46
125.32
139.91
151.72
160.29
165.31
166.91
165.61
162.72
158.84
154.38
149.96
145.14
139.66
133.10
124.67
112.98
96.22
72.73
42.22
6.43
-31.10
-65.66
-92.86
-109.85
-116.03
-112.49
-101.44
-85.34
-66.68
-48.04
-31.96
-20.90
-16.58
-19.19
-26.89
-36.33
-43.79
-46.56
-44.48
-39.80
-35.90
-35.44
-39.01
-44.99
-50.84
-54.69
-56.42
-57.70
-60.43
-65.26
-71.06
-75.34
-75.71
-71.14
-62.60
-52.54
-43.88
-38.14
-34.68
-31.09
-24.22
-11.52
8.05
33.74
63.17
92.47
116.07
128.68
126.28
107.88
76.47
38.68
2.45
-26.00
-44.23
-53.85
-58.83
-63.25
-69.04
-75.10
-77.92
-73.36
-58.49
-33.17
-0.24
35.22
67.69
93.12
110.23
120.06
124.58
125.39
122.78
116.53
107.16
96.59
88.03
84.75
88.63
98.90
111.83
121.48
121.22
106.50
76.88
36.92
-5.17
-40.60
-63.53
-73.13
-73.17
-69.35
-66.11
-64.74
-63.64
-60.40
-53.84
-45.12
-36.98
-32.07
-31.41
-33.90
-37.03
-37.97
-35.19
-28.85
-20.78
-13.53
-9.30
-8.92
-11.55
-15.23
-17.80
-18.28
-16.91
-15.34
-15.86
-20.29
-29.45
-43.23
-60.90
-80.90
-101.38
-119.01
-129.48
-128.75
-115.03
-90.21
-59.76
-30.93
-9.40
2.17
4.98
2.40
-2.12
-6.69
-11.13
-16.07
-21.62
-26.74
-30.01
-30.12
-26.96
-21.38
-14.53
-7.36
0.10
8.46
18.50
30.04
42.72
55.28
66.16
74.10
78.65
80.30
80.12
79.55
78.99
78.46
77.52
75.72
73.02
69.91
67.31
66.01
66.23
67.44
68.85
69.62
69.22
67.83
66.08
64.71
64.62
65.97
69.03
73.73
78.74
81.22
77.41
64.07
40.47
9.34
-23.83
-52.63
-72.39
-81.91
-83.40
-80.74
-77.44
-75.28
-74.21
-73.61
-73.03
-72.80
-73.70
-76.01
-78.87
-80.32
-77.93
-68.94
-53.35
-32.50
-8.90
14.34
34.67
50.71
62.30
69.86
73.64
73.52
69.03
60.48
49.44
38.71
31.23
28.50
29.57
31.29
29.74
22.48
9.80
-5.88
-20.98
-32.48
-39.24
-41.95
-42.22
-41.54
-40.45
-38.62
-36.22
-33.05
-28.72
-22.99
-15.93
-8.06
-0.25
6.65
12.24
15.04
15.07
13.84
13.24
14.41
16.92
19.10
19.03
15.65
6.90
-6.36
-20.97
-33.36
-41.61
-46.78
-52.41
-63.26
-78.87
-102.06
-132.97
-168.39
-202.62
-228.55
-239.69
-231.62
-203.10
-145.59
-67.76
10.64
71.12
107.19
124.90
135.92
148.23
162.09
175.97
182.39
176.14
156.68
124.10
84.93
48.86
24.67
15.97
20.61
30.54
39.29
44.95
49.56
56.63
66.56
77.04
83.57
82.11
69.37
45.83
15.15
-17.85
-45.73
-65.49
-78.18
-87.16
-95.87
-106.88
-119.76
-131.70
-139.37
-140.84
-137.40
-131.94
-126.85
-121.63
-113.44
-98.30
-73.46
-39.31
0.14
38.11
67.75
84.42
86.60
75.61
54.64
28.03
0.77
-21.61
-33.45
-29.89
-8.80
27.03
69.20
105.73
125.09
121.24
96.93
63.30
35.58
25.71
36.49
60.04
82.62
91.97
83.20
60.80
35.60
18.99
19.17
38.48
71.81
109.15
139.28
153.63
148.39
124.48
86.03
38.22
-14.40
-68.06
-118.04
-157.42
-177.16
-168.97
-129.63
-64.65
11.99
82.15
130.20
149.03
141.32
116.16
83.39
49.12
14.89
-19.27
-51.44
-76.20
-86.56
-78.26
-53.71
-22.61
1.11
5.15
-15.87
-57.66
-107.33
-148.18
-166.11
-154.73
-117.63
-66.43
-16.26
19.60
33.73
25.97
0.92
-36.30
-82.87
-137.96
-200.08
-263.89
-319.65
-355.90
-363.59
-340.86
-294.68
-237.78
-182.99
-137.96
-103.42
-74.86
-46.41
-13.41
25.50
68.36
111.49
151.85
188.05
220.21
249.01
269.14
274.30
262.05
235.87
202.29
167.12
133.41
102.25
73.86
48.36
26.95
11.26
1.98
-1.81
-1.75
-0.28
0.53
-0.59
-3.27
-5.33
-3.87
2.75
14.53
31.17
51.28
72.75
92.47
106.47
110.80
103.09
82.65
47.26
3.65
-37.77
-68.50
-86.11
-93.92
-98.24
-100.93
-100.75
-94.78
-79.60
-54.85
-23.66
8.73
37.94
61.58
80.36
95.88
108.69
117.64
118.94
108.13
82.88
44.89
-1.75
-46.58
-78.85
-93.15
-91.46
-81.36
-71.22
-66.26
-67.38
-71.47
-71.72
-62.61
-41.79
-10.09
29.06
71.09
111.91
143.14
158.61
157.48
143.16
120.67
94.35
67.41
42.17
20.58
4.24
-5.46
-8.34
-6.19
-1.77
2.52
5.69
7.35
7.50
6.08
3.41
-0.36
-6.05
-15.56
-31.09
-53.67
-82.07
-111.48
-133.66
-139.33
-122.49
-83.91
-31.85
20.88
61.72
82.02
78.20
52.59
12.28
-34.00
-78.77
-117.40
-147.77
-165.18
-167.50
-156.51
-137.22
-114.90
-92.90
-72.06
-52.31
-34.16
-18.89
-8.17
-1.86
2.83
9.65
20.60
34.89
49.99
63.21
73.63
81.71
88.81
95.51
100.42
100.33
92.94
78.59
61.07
46.19
39.10
42.52
56.20
77.88
100.21
116.17
121.06
114.49
99.98
82.24
64.84
49.20
35.29
22.46
10.97
2.06
-2.77
-2.67
1.68
8.03
13.39
14.99
11.29
2.45
-10.06
-24.27
-38.42
-51.13
-60.86
-65.57
-63.29
-53.10
-36.22
-16.11
2.13
13.37
13.95
3.02
-17.33
-43.19
-68.73
-88.96
-100.78
-103.87
-100.25
-93.50
-87.10
-83.33
-83.14
-85.99
-90.74
-94.95
-95.41
-89.14
-75.05
-54.84
-32.84
-14.67
-3.93
-0.61
0.34
6.58
24.42
55.49
96.64
141.91
185.07
222.11
246.18
251.61
237.29
207.78
170.32
131.81
98.84
73.07
56.46
50.67
56.68
73.78
99.82
129.30
155.33
172.35
177.96
174.27
165.83
157.48
151.59
146.64
137.97
121.10
94.51
60.27
22.97
-13.39
-46.89
-77.61
-105.84
-129.98
-145.54
-146.76
-130.21
-97.63
-56.98
-19.60
4.26
9.51
-2.25
-23.74
-45.46
-59.56
-62.56
-56.38
-47.06
-42.38
-49.60
-73.58
-115.04
-169.69
-227.95
-276.46
-302.05
-296.15
-258.65
-199.66
-137.11
-90.47
-73.02
-85.81
-116.73
-146.64
-156.68
-136.36
-87.64
-23.82
36.55
77.59
92.08
82.91
58.10
28.57
4.46
-7.26
-4.79
8.11
23.27
31.23
25.26
0.45
-40.11
-85.79
-122.84
-141.90
-142.90
-133.83
-124.65
-120.87
-127.12
-143.55
-168.43
-200.89
-242.56
-295.80
-359.53
-426.53
-455.58
-417.46
-309.26
-158.94
-6.17
119.29
205.45
254.85
275.00
282.34
283.77
281.28
274.61
263.27
246.17
220.33
183.91
136.95
84.54
32.31
-10.05
-30.57
-19.06
27.31
100.87
184.27
257.08
303.72
315.05
292.48
247.04
195.44
154.39
135.33
139.53
159.58
182.83
193.96
180.96
140.00
77.48
8.30
-49.65
-84.83
-93.27
-77.86
-46.58
-10.11
20.94
38.38
37.19
15.98
-27.54
-92.36
-172.71
-258.37
-338.96
-406.70
-457.71
-492.44
-488.25
-433.00
-333.42
-214.01
-99.33
-2.73
74.33
135.91
185.23
223.81
248.20
256.07
248.28
230.24
207.30
183.94
162.87
143.31
123.44
98.89
66.53
25.24
-17.80
-56.91
-87.20
-95.48
-75.78
-31.47
25.07
80.14
119.60
145.19
159.05
162.81
157.11
140.99
113.02
72.84
25.75
-20.05
-55.95
-79.36
-91.39
-94.29
-91.70
-86.15
-78.25
-69.24
-60.28
-51.45
-43.57
-36.31
-28.35
-19.58
-14.11
-8.73
-2.74
3.45
9.92
16.36
23.32
32.04
42.14
52.78
63.38
70.27
69.62
59.01
36.60
1.38
-41.73
-90.97
-145.72
-193.85
-227.41
-243.70
-245.52
-239.11
-229.05
-217.09
-203.97
-189.97
-175.35
-163.02
-155.72
-154.56
-160.17
-171.28
-184.89
-196.89
-201.36
-192.10
-167.14
-132.86
-92.59
-52.68
-18.95
5.32
20.04
27.88
32.18
34.10
33.04
28.43
19.46
7.27
-6.00
-18.43
-28.91
-37.47
-45.07
-52.50
-58.63
-64.33
-68.41
-69.46
-66.83
-60.92
-53.12
-45.43
-39.58
-36.24
-35.59
-36.65
-38.27
-39.51
-39.91
-39.50
-38.58
-37.45
-36.08
-34.46
-32.14
-28.78
-24.26
-18.72
-12.48
-6.02
0.17
5.78
10.47
14.28
17.36
20.00
22.54
25.41
28.89
33.14
38.05
43.36
48.85
54.33
59.90
65.80
72.44
80.12
88.89
98.50
108.53
118.55
128.28
137.70
146.97
156.39
166.43
177.75
191.13
207.03
224.98
243.14
258.36
267.03
266.26
254.93
234.01
206.04
174.12
141.02
108.85
79.27
53.81
33.89
20.46
13.44
11.60
12.89
15.30
17.59
19.50
21.46
24.04
27.43
31.28
34.92
37.67
39.20
39.47
38.60
36.76
34.02
30.49
26.40
22.14
18.18
14.90
12.47
10.83
9.69
8.75
7.75
6.48
4.71
2.20
-1.30
-5.92
-11.45
-17.35
-22.89
-27.38
-30.62
-32.99
-35.37
-38.73
-43.68
-50.06
-57.08
-63.71
-69.30
-74.00
-78.79
-84.92
-93.23
-103.50
-114.31
-123.58
-129.37
-130.64
-127.46
-120.77
-111.70
-101.10
-89.43
-77.05
-64.47
-52.45
-41.69
-32.41
-24.20
-16.31
-8.19
-0.14
6.62
10.31
9.59
4.33
-3.91
-12.10
-16.70
-14.79
-5.21
10.87
30.10
47.81
59.40
61.66
53.50
36.04
12.11
-14.75
-41.21
-64.82
-84.44
-100.22
-113.28
-125.01
-136.33
-147.12
-155.87
-160.42
-158.93
-150.67
-136.35
-117.72
-96.79
-74.84
-51.91
-26.51
3.49
40.08
84.21
135.77
193.84
257.13
324.43
394.42
465.77
535.60
599.09
650.00
682.30
691.83
677.29
640.13
583.65
513.66
435.54
353.61
271.41
192.34
119.99
57.49
6.91
-30.99
-53.14
-58.33
-48.00
-25.76
4.09
38.15
74.22
110.95
146.96
186.12
230.43
278.66
327.12
372.04
411.34
444.81
473.37
498.35
528.22
568.49
617.78
667.15
703.50
715.02
695.45
646.04
531.02
343.40
102.46
-155.44
-396.63
-603.38
-771.71
-902.15
-993.78
-1045.24
-1054.07
-1022.73
-961.55
-886.40
-812.35
-748.20
-695.72
-651.96
-612.98
-570.82
-520.84
-463.28
-401.83
-340.48
-281.23
-224.40
-169.62
-116.77
-63.09
-7.09
50.43
107.37
162.29
215.44
267.47
317.88
363.41
399.49
419.75
417.95
390.76
339.98
272.33
196.61
121.53
53.65
-3.17
-48.68
-85.50
-117.89
-149.90
-184.65
-224.58
-269.70
-316.35
-357.01
-381.59
-380.63
-349.53
-291.40
-213.78
-133.82
-71.27
-38.18
-31.75
-36.99
-37.31
-24.70
-2.16
20.63
34.18
35.22
27.36
17.52
12.40
17.19
33.02
59.46
94.63
134.02
170.40
194.62
199.16
182.66
151.93
119.62
98.93
97.25
113.57
140.14
167.12
185.53
191.58
189.02
186.13
190.16
198.64
204.76
202.99
192.37
175.71
157.41
140.16
122.78
101.05
70.36
29.66
-17.71
-65.45
-106.65
-136.40
-153.79
-162.29
-168.49
-179.93
-202.40
-239.01
-289.69
-350.72
-414.79
-472.19
-513.45
-532.19
-527.17
-501.84
-462.87
-417.46
-370.80
-324.94
-279.19
-231.96
-182.22
-130.02
-75.88
-20.08
37.72
98.16
161.04
224.08
282.41
329.32
358.82
368.20
359.08
336.38
305.53
269.75
228.96
181.11
124.79
61.75
-2.93
-62.64
-111.97
-148.90
-175.39
-196.43
-217.73
-243.35
-273.77
-305.27
-330.82
-342.92
-336.67
-312.21
-274.84
-232.63
-192.99
-159.82
-132.74
-108.80
-84.80
-58.93
-30.75
-0.49
31.49
64.31
95.74
121.57
136.08
133.73
111.13
69.03
12.91
-48.26
-104.29
-146.49
-170.05
-174.72
-163.90
-142.65
-115.71
-86.69
-58.34
-33.49
-15.18
-5.94
-6.41
-14.37
-25.37
-34.48
-38.18
-35.40
-27.38
-16.49
-4.84
6.55
17.85
30.12
44.61
61.98
81.91
102.94
122.94
140.08
153.83
164.98
174.69
183.32
189.57
191.14
186.13
174.71
159.61
145.37
136.57
136.08
144.24
159.13
177.64
196.45
212.59
223.47
226.75
220.58
204.03
177.82
144.33
107.35
71.15
39.79
16.41
2.58
-1.88
1.01
7.82
14.69
18.49
17.93
13.87
8.83
5.68
6.35
11.07
18.72
27.46
35.71
42.55
47.76
51.54
54.07
55.26
54.60
51.29
44.72
34.83
22.47
9.29
-2.51
-10.70
-13.38
-9.45
0.82
15.47
30.73
41.82
44.48
36.82
20.25
-0.95
-21.51
-37.65
-48.10
-53.69
-55.82
-55.04
-51.07
-43.95
-35.38
-28.67
-27.28
-32.52
-42.42
-52.53
-58.38
-58.04
-53.18
-48.01
-46.71
-51.20
-60.19
-70.21
-77.58
-80.10
-77.67
-71.61
-63.63
-54.83
-45.58
-35.94
-26.26
-17.53
-11.00
-7.82
-8.38
-12.08
-17.65
-23.61
-28.87
-33.13
-36.72
-40.12
-43.43
-45.95
-46.23
-42.71
-34.51
-21.97
-6.69
9.23
23.99
36.77
47.77
57.63
66.79
75.11
82.01
86.78
88.91
88.31
85.36
80.87
76.00
71.83
68.88
66.78
64.26
59.90
52.90
43.70
33.73
24.59
17.34
12.41
10.05
10.95
16.27
26.83
42.05
59.52
75.37
85.57
87.27
79.47
63.01
39.95
12.94
-15.30
-42.25
-65.92
-84.96
-98.83
-107.71
-112.31
-113.56
-112.53
-110.19
-107.33
-104.30
-100.87
-96.22
-89.24
-78.98
-65.14
-48.26
-29.73
-11.53
4.14
15.35
20.88
20.64
15.78
8.46
1.13
-4.26
-6.82
-6.76
-4.89
-2.06
1.26
4.93
8.75
12.30
14.95
16.29
16.45
16.11
16.06
16.76
18.05
19.32
19.79
18.86
16.08
11.21
4.19
-4.65
-14.51
-24.24
-32.83
-39.90
-45.87
-51.69
-57.98
-64.49
-70.01
-72.98
-72.29
-67.86
-60.56
-51.57
-41.78
-31.55
-20.95
-10.22
-0.08
8.59
15.17
19.74
23.13
26.41
30.32
34.80
39.06
41.96
42.58
40.62
36.45
30.92
25.05
19.80
15.96
14.06
14.31
16.55
20.10
23.88
26.61
27.21
25.22
20.95
15.39
9.72
4.71
0.46
-3.55
-7.92
-12.74
-17.50
-21.29
-23.44
-24.03
-23.88
-24.07
-25.32
-27.46
-29.46
-30.06
-28.36
-24.32
-18.63
-12.18
-5.56
1.20
8.37
16.06
23.93
31.23
37.18
41.34
43.78
44.97
45.36
45.13
44.14
42.01
38.51
33.69
28.03
22.38
17.69
14.67
13.60
14.03
15.05
15.60
14.94
13.03
10.53
8.39
7.45
8.06
9.98
12.60
15.19
17.18
18.32
18.71
18.63
18.44
18.35
18.31
18.08
17.30
15.62
12.66
8.11
1.90
-5.61
-13.41
-19.93
-23.42
-22.64
-17.48
-9.04
0.68
9.57
16.10
19.80
21.05
20.79
19.99
19.22
18.66
18.03
16.89
14.86
11.84
8.13
4.39
1.26
-0.93
-2.36
-3.69
-5.78
-9.25
-14.26
-20.55
-27.56
-34.79
-41.89
-48.45
-53.87
-57.24
-57.57
-54.19
-47.23
-37.72
-27.41
-18.22
-11.61
-8.24
-7.97
-10.08
-13.64
-17.89
-22.36
-26.82
-31.19
-35.44
-39.54
-43.41
-46.79
-49.24
-50.14
-48.96
-45.51
-40.17
-33.73
-27.13
-20.93
-15.11
-9.20
-2.80
3.98
10.45
15.50
18.20
18.23
16.06
12.84
9.94
8.64
9.70
13.20
18.52
24.56
30.14
34.45
37.23
38.67
39.20
39.17
38.81
38.21
37.45
36.61
35.63
34.24
32.04
28.72
24.44
19.92
16.19
14.06
13.56
13.86
13.50
11.10
5.81
-2.36
-12.75
-24.34
-36.01
-46.62
-54.97
-59.87
-60.39
-56.32
-48.44
-38.39
-28.33
-20.23
-15.51
-14.54
-16.50
-19.16
-19.36
-13.71
0.00
21.48
47.40
72.12
89.57
95.62
89.71
74.95
56.58
39.66
27.15
19.27
14.40
10.57
6.85
3.66
2.09
2.87
5.60
8.79
10.70
10.31
7.85
4.55
1.75
0.09
-0.94
-2.70
-6.65
-13.57
-23.15
-34.12
-44.88
-54.17
-61.48
-66.96
-70.95
-73.59
-74.64
-73.77
-70.97
-66.85
-62.37
-58.28
-54.46
-49.69
-42.19
-30.48
-14.45
4.26
22.56
36.91
44.55
44.36
37.26
25.85
13.64
4.07
-0.40
1.20
8.19
18.69
30.28
40.74
48.55
53.09
54.29
52.40
47.59
40.09
30.30
19.15
7.97
-1.79
-9.22
-14.36
-18.23
-22.31
-27.80
-34.91
-42.75
-49.80
-54.72
-57.16
-57.97
-58.79
-61.21
-65.98
-72.65
-79.70
-85.18
-87.20
-84.49
-76.57
-63.85
-47.50
-29.25
-10.99
5.65
19.70
30.89
39.49
45.94
50.56
53.53
55.04
55.50
55.49
55.63
56.27
57.40
58.68
59.71
60.25
60.38
60.40
60.68
61.36
62.29
63.05
63.07
61.89
59.35
55.54
50.91
46.04
41.58
37.98
35.41
33.67
32.23
30.47
27.93
24.55
20.72
17.06
14.01
11.50
8.77
4.63
-1.99
-11.40
-22.81
-34.29
-43.32
-47.56
-45.70
-37.94
-25.94
-12.22
0.72
11.29
19.14
25.00
29.88
34.25
37.51
38.01
33.73
23.06
5.40
-18.49
-46.56
-75.68
-101.95
-121.24
-129.99
-126.35
-110.94
-86.94
-59.14
-32.21
-9.21
9.05
23.42
35.13
44.60
51.19
53.68
51.24
43.95
32.81
19.14
4.10
-11.63
-27.76
-44.17
-60.72
-77.05
-92.62
-106.66
-118.28
-126.77
-131.81
-133.64
-132.83
-129.80
-124.40
-115.83
-103.02
-85.38
-63.50
-39.36
-15.87
4.06
18.55
27.33
31.67
33.58
34.82
36.15
37.19
36.94
34.54
29.96
24.10
18.37
14.08
11.87
11.65
12.82
14.79
17.23
20.20
23.83
28.14
32.83
37.36
41.26
44.26
46.39
47.86
48.72
48.72
47.34
44.01
38.47
30.87
21.66
11.40
0.39
-11.26
-23.48
-36.05
-48.40
-59.88
-69.92
-78.16
-84.27
-87.70
-87.52
-82.68
-72.62
-57.86
-40.17
-22.20
-6.54
5.12
12.49
16.53
18.89
21.11
24.16
28.22
32.86
37.34
40.99
43.39
44.52
44.62
44.11
43.30
42.40
41.46
40.47
39.51
38.69
38.23
38.24
38.68
39.29
39.65
39.32
38.01
35.68
32.51
28.82
24.92
21.03
17.25
13.66
10.34
7.41
4.92
2.75
0.57
-2.08
-5.65
-10.29
-15.73
-21.30
-26.08
-29.15
-29.91
-28.18
-24.24
-18.71
-12.30
-5.63
0.90
7.04
12.63
17.51
21.45
24.26
25.88
26.46
26.37
26.05
25.79
25.67
25.58
25.30
24.72
23.91
23.14
22.65
22.54
22.62
22.52
21.87
20.50
18.56
16.39
14.37
12.63
11.07
9.39
7.33
4.80
2.01
-0.68
-2.95
-4.63
-5.87
-7.00
-8.46
-10.62
-13.66
-17.60
-22.15
-26.79
-30.82
-33.44
-33.89
-31.79
-27.21
-20.81
-13.66
-6.82
-1.03
3.61
7.54
11.41
15.72
20.46
25.21
29.38
32.58
34.75
36.15
37.09
37.69
37.88
37.45
36.30
34.52
32.44
30.40
28.68
27.27
25.96
24.47
22.54
20.11
17.31
14.36
11.45
8.67
5.92
3.03
-0.13
-3.59
-7.22
-10.82
-14.23
-17.44
-20.56
-23.86
-27.59
-31.93
-36.84
-42.03
-46.97
-50.95
-53.27
-53.39
-51.13
-46.66
-40.41
-32.99
-24.94
-16.68
-8.47
-0.45
7.27
14.56
21.26
27.22
32.33
36.51
39.76
42.13
43.68
44.49
44.62
44.14
43.18
41.89
40.50
39.13
37.81
36.36
34.52
32.07
28.95
25.36
21.64
18.09
14.88
11.91
8.99
5.91
2.59
-0.89
-4.40
-7.81
-11.07
-14.19
-17.26
-20.42
-23.82
-27.62
-31.91
-36.54
-41.09
-44.92
-47.32
-47.71
-45.90
-42.05
-36.65
-30.24
-23.27
-15.93
-8.33
-0.53
7.30
14.79
21.54
27.20
31.63
34.93
37.38
39.26
40.78
41.96
42.72
42.98
42.67
41.77
40.33
38.39
36.03
33.31
30.32
27.14
23.87
20.59
17.37
14.28
11.36
8.61
5.97
3.31
0.49
-2.55
-5.77
-9.07
-12.31
-15.40
-18.36
-21.28
-24.28
-27.46
-30.89
-34.61
-38.57
-42.54
-46.13
-48.76
-49.83
-48.93
-46.02
-41.43
-35.77
-29.62
-23.37
-17.08
-10.60
-3.76
3.39
10.56
17.26
23.04
27.69
31.25
33.97
36.12
37.81
38.97
39.46
39.16
38.14
36.62
34.87
33.08
31.27
29.29
27.03
24.41
21.52
18.54
15.66
13.01
10.63
8.45
6.28
3.94
1.26
-1.77
-5.02
-8.22
-11.12
-13.57
-15.64
-17.56
-19.60
-21.97
-24.74
-27.89
-31.30
-34.83
-38.26
-41.19
-43.07
-43.41
-41.90
-38.69
-34.26
-29.27
-24.20
-19.22
-14.16
-8.72
-2.78
3.50
9.72
15.39
20.18
24.02
27.01
29.36
31.20
32.56
33.39
33.65
33.35
32.61
31.61
30.49
29.30
28.02
26.55
24.80
22.77
20.48
17.99
15.41
12.87
10.45
8.21
6.13
4.10
1.99
-0.30
-2.80
-5.42
-8.06
-10.62
-13.05
-15.36
-17.55
-19.63
-21.59
-23.50
-25.45
-27.63
-30.17
-33.15
-36.44
-39.66
-42.29
-43.74
-43.58
-41.66
-38.16
-33.51
-28.24
-22.71
-17.12
-11.47
-5.69
0.16
5.91
11.31
16.12
20.22
23.63
26.47
28.81
30.65
31.93
32.57
32.58
32.06
31.20
30.15
28.97
27.65
26.11
24.31
22.30
20.16
17.99
15.82
13.65
11.46
9.29
7.20
5.31
3.61
2.01
0.32
-1.70
-4.18
-7.08
-10.20
-13.26
-16.02
-18.42
-20.55
-22.60
-24.76
-27.16
-29.82
-32.69
-35.66
-38.59
-41.20
-43.11
-43.89
-43.18
-40.82
-36.98
-32.07
-26.61
-21.02
-15.53
-10.14
-4.78
0.62
5.99
11.18
16.01
20.34
24.10
27.23
29.67
31.38
32.31
32.50
32.06
31.16
29.97
28.60
27.11
25.50
23.82
22.09
20.33
18.55
16.68
14.68
12.58
10.45
8.43
6.59
4.89
3.21
1.41
-0.60
-2.80
-5.06
-7.26
-9.30
-11.16
-12.93
-14.70
-16.57
-18.62
-20.89
-23.37
-26.01
-28.76
-31.50
-34.13
-36.50
-38.38
-39.53
-39.65
-38.57
-36.28
-32.96
-28.93
-24.46
-19.69
-14.62
-9.17
-3.36
2.65
8.51
13.88
18.48
22.27
25.32
27.75
29.66
31.02
31.80
32.01
31.70
30.99
29.99
28.78
27.41
25.93
24.41
22.95
21.55
20.16
18.63
16.83
14.74
12.37
9.85
7.30
4.80
2.37
0.04
-2.21
-4.38
-6.48
-8.57
-10.70
-12.93
-15.27
-17.69
-20.14
-22.58
-24.97
-27.36
-29.78
-32.35
-35.13
-38.15
-41.28
-44.26
-46.71
-48.19
-48.42
-47.26
-44.77
-41.14
-36.57
-31.30
-25.58
-19.78
-14.28
-9.35
-5.01
-1.01
3.08
7.60
12.58
17.76
22.63
26.77
29.96
32.24
33.82
34.86
35.49
35.77
35.77
35.62
35.46
35.33
35.12
34.55
33.34
31.30
28.44
25.00
21.31
17.69
14.35
11.30
8.48
5.73
2.93
-0.06
-3.33
-6.97
-11.00
-15.36
-19.89
-24.40
-28.72
-32.81
-36.81
-40.94
-45.34
-49.97
-54.52
-58.51
-61.48
-63.15
-63.57
-63.11
-62.21
-61.24
-60.30
-59.20
-57.57
-55.09
-51.63
-47.38
-42.71
-38.09
-33.84
-30.06
-26.66
-23.38
-19.97
-16.27
-12.17
-7.64
-2.59
3.06
9.30
15.90
22.40
28.30
33.24
37.24
40.64
44.09
48.30
53.91
61.29
70.42
80.79
91.38
100.84
107.88
111.67
112.19
110.09
106.36
101.89
97.08
91.80
85.53
77.54
67.13
53.67
36.72
16.31
-6.73
-30.63
-52.70
-69.95
-79.98
-81.73
-75.66
-63.24
-46.00
-24.81
0.11
28.57
59.55
90.74
118.92
141.01
155.18
161.33
160.75
155.30
146.47
135.16
121.72
106.51
90.14
73.39
57.05
41.62
27.25
13.80
1.06
-11.07
-22.51
-33.04
-42.46
-50.68
-57.75
-63.78
-68.76
-72.42
-74.36
-74.21
-71.87
-67.64
-62.20
-56.45
-51.27
-47.39
-45.17
-44.66
-45.55
-47.33
-49.42
-51.26
-52.50
-52.98
-52.73
-51.91
-50.67
-49.13
-47.27
-45.03
-42.30
-39.02
-35.29
-31.39
-27.68
-24.45
-21.81
-19.59
-17.45
-15.08
-12.31
-9.24
-6.18
-3.56
-1.68
-0.69
-0.51
-0.92
-1.60
-2.21
-2.50
-2.37
-1.93
-1.33
-0.68
0.02
0.91
2.18
4.03
6.54
9.62
13.15
16.99
21.09
25.39
29.79
34.02
38.08
41.89
45.33
48.26
50.61
52.38
53.67
54.55
55.03
55.80
57.40
60.00
63.32
66.83
70.19
73.42
76.68
80.04
84.30
89.68
95.80
101.96
107.53
112.42
116.95
121.26
125.18
129.73
135.81
143.92
153.61
163.33
170.69
173.11
168.53
147.85
108.02
52.73
-8.09
-62.79
-103.51
-128.37
-139.86
-142.28
-139.15
-131.04
-117.89
-100.12
-79.51
-58.84
-40.74
-26.91
-18.01
-14.00
-13.18
-13.81
-14.99
-17.08
-21.31
-28.96
-40.56
-56.31
-75.28
-95.18
-113.76
-129.71
-143.21
-155.96
-170.95
-186.95
-204.93
-226.28
-251.77
-280.85
-310.69
-335.89
-349.26
-343.81
-315.12
-263.89
-195.16
-116.80
-37.51
35.02
95.09
139.23
165.91
175.37
168.84
148.94
119.25
83.86
46.89
12.37
-15.94
-34.93
-42.75
-39.62
-27.37
-8.72
13.67
37.83
62.57
87.13
110.74
132.61
152.13
169.39
185.17
200.11
213.79
224.14
227.88
221.77
204.09
175.63
139.46
99.84
60.84
25.23
-5.80
-32.32
-54.85
-73.37
-86.90
-93.74
-92.17
-81.39
-62.36
-37.82
-11.77
11.79
30.07
42.34
49.67
54.02
57.17
59.91
61.95
62.34
60.19
55.13
47.38
37.48
25.95
13.17
-0.53
-14.16
-25.91
-33.80
-36.90
-36.73
-37.50
-44.80
-63.03
-93.15
-131.69
-172.08
-207.38
-232.97
-247.90
-254.17
-254.77
-251.86
-246.07
-237.08
-224.83
-210.30
-195.31
-181.56
-169.66
-158.80
-147.28
-133.56
-117.22
-99.33
-82.15
-68.12
-58.85
-54.50
-53.93
-55.51
-57.97
-60.90
-64.60
-69.36
-74.74
-79.30
-80.90
-77.44
-67.53
-50.78
-27.75
0.23
31.05
61.87
89.24
109.89
121.77
124.95
121.60
115.09
108.71
104.58
103.40
104.75
107.63
110.70
112.31
110.39
102.78
88.15
66.72
40.66
13.50
-11.00
-29.84
-41.33
-45.00
-41.41
-32.05
-19.51
-7.41
0.11
-0.52
-11.05
-30.67
-56.09
-82.77
-106.36
-124.14
-135.41
-141.00
-142.26
-140.12
-134.65
-125.34
-111.62
-93.31
-70.83
-44.97
-16.74
12.58
41.27
67.07
87.53
100.89
106.97
107.50
105.68
104.83
107.17
113.03
121.17
129.67
136.85
141.70
143.96
143.92
142.31
140.31
139.27
140.42
144.30
150.38
157.32
163.51
167.94
170.65
172.68
175.39
179.76
185.81
192.52
198.12
200.69
198.77
191.77
180.25
165.86
150.75
136.87
124.91
113.86
101.03
82.94
56.67
21.33
-21.18
-66.33
-108.23
-141.55
-163.10
-172.71
-172.74
-166.80
-158.17
-148.88
-139.48
-129.59
-118.77
-106.95
-94.58
-82.31
-70.63
-59.65
-49.40
-40.13
-32.70
-28.32
-27.90
-31.27
-36.62
-40.70
-39.84
-31.37
-14.73
8.11
33.46
57.23
76.23
88.84
94.98
95.57
91.87
85.11
76.24
65.78
53.83
40.11
24.14
5.61
-15.25
-37.51
-59.78
-80.54
-98.76
-114.23
-127.57
-139.92
-152.42
-165.64
-179.38
-192.80
-204.88
-214.97
-223.06
-229.81
-236.28
-243.69
-253.18
-265.54
-280.67
-296.88
-310.57
-316.49
-309.18
-284.94
-243.66
-189.39
-129.36
-71.58
-22.27
15.74
43.12
62.70
77.68
90.27
101.22
110.34
117.37
122.48
126.25
129.20
131.18
131.20
127.93
120.59
109.67
97.05
85.28
76.38
70.94
67.80
64.77
59.79
52.00
41.99
31.34
21.73
14.10
8.46
4.11
0.30
-3.34
-6.65
-9.04
-9.85
-8.59
-4.99
1.02
9.30
19.52
31.20
43.69
56.27
68.28
79.24
89.17
98.81
109.64
123.41
141.30
162.85
185.33
204.20
214.48
212.65
198.15
173.61
143.66
113.02
84.78
59.86
37.66
17.39
-1.00
-16.66
-28.46
-35.74
-38.64
-38.01
-34.99
-30.56
-25.51
-20.51
-16.20
-13.21
-12.06
-12.90
-15.43
-18.82
-21.94
-23.61
-22.94
-19.53
-13.52
-5.48
3.86
13.75
23.61
33.01
41.76
49.74
56.78
62.41
65.81
65.96
62.28
55.28
46.85
39.76
36.64
38.80
45.64
55.00
64.17
70.87
73.85
72.59
66.96
56.86
42.48
24.68
5.19
-13.69
-29.78
-41.82
-49.83
-54.93
-58.66
-62.04
-65.05
-66.64
-65.32
-60.03
-50.75
-38.64
-25.59
-13.53
-3.75
3.28
7.75
10.18
11.10
11.10
10.93
11.62
14.34
20.23
29.98
43.43
59.43
75.89
90.32
100.65
106.00
107.07
105.86
104.82
105.83
109.49
115.11
121.04
125.36
126.28
122.36
112.48
96.00
73.06
44.76
13.02
-19.91
-52.22
-83.14
-112.95
-142.53
-172.53
-202.72
-231.97
-258.84
-282.35
-302.45
-319.92
-335.49
-349.00
-359.09
-363.61
-360.62
-349.25
-329.83
-303.46
-271.19
-233.57
-190.92
-144.06
-95.12
-47.62
-5.91
26.22
46.83
56.62
58.77
57.88
58.37
62.92
71.66
82.43
92.08
98.16
100.13
99.44
98.34
98.31
98.99
98.29
93.56
83.23
67.97
50.77
36.25
29.24
33.45
50.62
80.17
119.34
163.80
208.50
248.50
279.87
299.99
307.69
302.96
286.76
260.84
227.59
189.85
150.61
112.61
77.98
47.99
23.15
3.29
-12.04
-23.46
-31.69
-37.75
-43.04
-49.42
-58.72
-72.18
-89.83
-110.41
-131.81
-151.97
-169.67
-184.79
-198.06
-210.36
-222.12
-233.08
-242.52
-249.63
-253.90
-255.29
-254.23
-251.45
-247.67
-243.10
-237.18
-228.39
-214.65
-193.95
-165.12
-128.39
-85.53
-39.39
6.80
50.16
88.56
120.73
146.09
164.65
176.95
184.25
188.46
191.84
196.38
203.08
211.51
219.93
226.12
228.47
226.71
221.91
215.81
209.77
204.22
198.52
191.44
181.92
169.62
155.03
139.17
123.07
107.29
91.90
76.59
61.09
45.43
30.00
15.28
1.45
-11.84
-25.54
-40.83
-58.71
-79.36
-102.03
-125.16
-147.01
-166.31
-182.68
-196.57
-208.66
-219.29
-227.96
-233.73
-235.77
-234.01
-229.33
-223.02
-216.02
-208.17
-198.07
-183.54
-162.49
-133.89
-98.34
-58.21
-17.13
20.95
53.00
77.76
96.02
110.05
122.40
134.79
147.41
159.23
168.80
175.13
178.03
177.96
175.51
170.95
164.12
154.61
142.12
126.75
109.08
90.08
70.78
52.16
34.96
19.77
7.08
-2.71
-9.35
-12.96
-14.17
-14.06
-13.93
-14.78
-17.06
-20.58
-24.80
-29.38
-34.41
-40.21
-46.86
-53.84
-60.09
-64.63
-67.06
-67.68
-66.85
-64.12
-57.90
-46.16
-28.05
-5.15
18.31
36.81
45.86
44.06
33.82
20.18
8.50
2.23
1.83
5.24
9.37
11.80
11.65
9.70
7.63
7.06
9.00
13.66
20.79
30.05
41.28
54.31
68.66
83.37
97.29
109.41
119.19
126.32
130.47
130.81
125.96
114.56
95.96
71.10
42.55
13.89
-11.52
-31.77
-46.97
-59.02
-70.59
-83.98
-100.30
-119.38
-140.07
-160.66
-179.13
-193.32
-201.16
-201.08
-192.64
-176.94
-156.65
-135.30
-116.21
-101.24
-90.19
-80.83
-69.89
-54.43
-32.83
-5.28
26.56
60.18
92.89
122.21
146.07
162.99
172.32
174.44
170.91
164.16
156.70
150.28
145.39
141.35
136.96
131.33
124.25
116.22
108.01
100.21
92.91
85.87
78.63
70.84
62.30
52.96
42.72
31.46
19.04
5.46
-8.96
-23.64
-37.83
-50.87
-62.30
-71.92
-79.65
-85.42
-89.12
-90.70
-90.26
-88.21
-85.17
-81.82
-78.67
-75.86
-73.13
-69.94
-65.81
-60.55
-54.40
-47.96
-41.86
-36.60
-32.30
-28.82
-25.78
-22.84
-19.79
-16.68
-13.96
-12.40
-12.98
-16.33
-22.46
-30.37
-38.45
-45.07
-49.29
-51.28
-51.96
-52.37
-52.98
-53.39
-52.59
-49.53
-43.69
-35.30
-25.19
-14.43
-4.01
5.49
13.88
21.34
28.17
34.56
40.33
44.87
47.27
46.61
42.30
34.28
23.00
9.36
-5.49
-20.35
-34.22
-46.57
-57.44
-67.30
-76.72
-85.87
-94.15
-100.17
-102.14
-98.65
-89.21
-74.66
-56.90
-38.35
-21.13
-6.53
5.18
14.46
22.22
29.52
37.54
47.61
61.00
78.47
99.71
123.15
146.27
166.25
180.85
188.92
190.45
186.15
176.92
163.49
146.47
126.56
104.77
82.32
60.41
39.87
20.83
2.74
-15.36
-34.34
-54.21
-73.86
-91.09
-103.41
-108.83
-106.67
-97.62
-83.30
-65.50
-45.36
-23.13
1.80
30.12
62.17
97.34
134.01
169.54
200.52
223.23
234.24
231.21
213.63
183.21
143.57
99.42
55.23
14.09
-22.76
-55.68
-85.71
-113.40
-138.35
-159.21
-174.44
-183.19
-185.84
-183.83
-179.11
-173.21
-166.89
-160.10
-152.39
-143.40
-133.26
-122.53
-112.06
-102.70
-94.96
-88.98
-84.52
-81.04
-77.90
-74.41
-70.08
-64.65
-58.24
-51.29
-44.42
-38.22
-32.98
-28.58
-24.53
-20.15
-14.85
-8.30
-0.50
8.45
18.50
29.80
42.48
56.23
70.11
82.80
93.22
101.23
107.83
114.74
123.38
133.92
144.91
153.88
158.49
157.72
152.38
144.67
137.09
131.28
127.38
124.09
119.35
111.12
97.99
79.53
56.33
29.78
1.92
-24.92
-48.57
-67.53
-81.40
-90.90
-97.34
-101.79
-104.32
-103.76
-98.26
-86.29
-67.71
-44.31
-19.57
2.29
17.59
24.18
21.88
12.36
-1.60
-16.93
-31.11
-42.68
-51.29
-57.40
-61.62
-64.22
-64.84
-62.80
-57.42
-48.59
-37.05
-24.26
-12.08
-2.31
3.82
5.88
4.30
0.22
-4.94
-9.92
-13.96
-17.00
-19.56
-22.36
-26.14
-31.45
-38.61
-47.71
-58.61
-70.67
-82.76
-93.36
-100.98
-104.72
-104.66
-101.97
-98.52
-96.38
-97.08
-101.21
-108.14
-116.35
-124.12
-130.58
-136.52
-144.38
-157.23
-176.88
-202.26
-229.04
-250.79
-261.39
-257.29
-238.69
-208.87
-172.37
-132.96
-92.52
-51.22
-8.51
35.76
80.85
125.27
167.48
206.31
241.04
271.17
296.06
314.86
326.72
331.07
327.77
317.00
299.06
274.20
242.97
206.61
167.40
128.50
93.15
63.72
40.92
23.64
9.75
-2.73
-14.66
-25.42
-33.66
-38.45
-40.29
-41.47
-45.29
-54.67
-70.73
-92.31
-116.26
-138.60
-155.71
-165.15
-165.99
-158.57
-144.24
-124.99
-103.08
-80.62
-59.25
-39.94
-22.96
-8.11
5.18
17.75
30.55
44.15
58.30
71.45
81.16
85.00
81.79
72.49
59.97
47.99
39.63
36.36
37.86
42.78
49.51
56.66
63.13
67.83
69.71
68.13
63.34
56.59
49.59
43.71
39.24
35.40
31.00
25.37
18.89
12.94
9.16
8.58
11.13
15.76
21.03
25.77
29.43
32.09
33.98
35.18
35.47
34.62
32.74
30.52
29.02
29.29
31.81
36.27
41.75
47.22
52.07
56.30
60.44
65.05
70.30
75.61
79.74
81.06
78.17
70.66
59.43
46.80
35.76
29.06
28.09
32.47
40.23
48.65
55.17
58.00
56.19
49.39
37.58
20.91
-0.18
-24.79
-51.60
-79.25
-106.67
-133.32
-158.86
-182.68
-203.42
-219.02
-227.28
-226.90
-218.14
-203.06
-184.89
-166.92
-151.47
-139.28
-129.72
-121.51
-113.44
-104.82
-95.42
-85.22
-74.00
-61.47
-47.52
-32.54
-17.65
-4.28
6.43
14.34
20.55
27.07
36.03
48.63
64.63
82.29
99.09
112.54
120.89
123.39
120.24
112.29
100.77
87.10
72.79
59.23
47.56
38.47
32.07
27.97
25.44
23.76
22.43
21.23
20.26
19.77
20.02
21.15
23.09
25.53
28.02
30.18
31.87
33.16
34.23
35.17
35.94
36.35
36.27
35.67
34.68
33.35
31.53
28.85
24.81
19.05
11.45
2.18
-8.41
-19.92
-31.93
-43.99
-55.52
-65.91
-74.53
-80.88
-84.65
-85.91
-85.27
-83.81
-82.86
-83.49
-85.92
-89.41
-92.48
-93.64
-92.09
-87.93
-81.92
-74.80
-66.85
-57.94
-47.87
-36.90
-25.75
-15.32
-6.10
2.12
10.15
18.77
28.23
38.01
47.13
54.69
60.41
64.83
69.02
74.11
80.83
89.27
98.90
108.81
117.94
125.17
129.49
129.99
126.11
117.84
105.82
91.39
76.27
62.17
50.42
41.72
36.18
33.48
33.06
34.21
36.23
38.48
40.46
41.93
42.92
43.55
43.81
43.47
42.17
39.65
36.07
32.13
28.82
27.10
27.44
29.74
33.49
38.06
43.05
48.32
54.01
60.23
66.96
73.88
80.38
85.64
88.61
88.24
83.62
74.28
60.33
42.56
22.16
0.38
-21.83
-44.07
-66.23
-88.15
-109.21
-128.20
-143.67
-154.66
-161.15
-164.18
-165.34
-165.90
-166.29
-166.13
-164.80
-162.13
-158.53
-154.78
-151.37
-148.17
-144.48
-139.43
-132.39
-123.06
-111.36
-97.23
-80.64
-61.80
-41.49
-20.90
-1.32
16.36
31.98
46.07
59.39
72.52
85.57
98.27
110.15
120.61
128.84
133.82
134.29
129.18
118.02
101.20
79.97
55.89
30.25
3.69
-23.77
-52.24
-81.42
-110.47
-138.08
-162.96
-184.08
-200.71
-212.12
-217.44
-215.66
-206.06
-188.60
-164.14
-134.45
-101.79
-68.59
-37.05
-8.99
14.09
31.01
40.96
43.78
40.11
31.52
20.39
9.43
1.04
-3.24
-3.13
0.50
6.12
12.21
17.79
22.56
26.74
30.82
35.33
40.85
47.80
56.32
65.85
74.88
81.07
81.91
75.74
62.59
44.37
24.28
5.67
-8.95
-18.34
-22.19
-20.60
-13.68
-1.61
14.84
33.93
53.00
69.00
79.58
83.93
82.87
78.18
71.45
63.23
53.04
40.14
24.62
8.11
-6.50
-16.34
-19.85
-17.44
-11.19
-3.72
3.09
8.64
13.39
18.10
23.07
27.91
31.77
33.74
33.26
30.17
24.65
17.12
8.17
-1.49
-11.08
-20.00
-27.88
-34.60
-40.12
-44.32
-47.05
-48.27
-48.18
-47.25
-45.98
-44.65
-43.15
-41.11
-38.28
-34.71
-30.83
-27.10
-23.66
-20.19
-16.00
-10.48
-3.43
4.74
13.21
21.01
27.38
31.92
34.57
35.52
35.02
33.27
30.44
26.83
22.93
19.53
17.45
17.36
19.58
24.03
30.37
38.13
46.80
55.87
64.88
73.49
81.76
90.09
99.02
108.89
119.49
130.09
139.70
147.51
153.16
156.75
158.69
159.49
159.62
159.28
158.25
155.56
149.39
137.52
118.30
91.87
60.76
29.58
3.40
-14.14
-22.09
-22.44
-19.13
-16.25
-16.58
-20.86
-27.92
-35.65
-42.05
-45.93
-47.54
-48.25
-49.81
-53.43
-59.16
-65.88
-72.02
-76.43
-78.87
-80.08
-81.22
-82.89
-84.67
-85.48
-84.37
-81.54
-78.09
-74.65
-71.02
-66.07
-57.95
-45.21
-27.85
-7.68
11.86
27.37
38.07
45.02
49.97
55.14
62.28
72.07
84.00
95.74
104.29
108.73
108.78
104.00
94.62
80.87
62.20
36.89
1.50
-47.08
-107.41
-175.44
-246.68
-316.38
-381.03
-438.74
-481.00
-498.03
-495.00
-473.84
-429.41
-362.47
-279.20
-189.55
-103.69
-28.51
32.76
80.54
119.14
151.81
178.45
197.92
209.65
214.80
215.89
214.70
211.58
207.26
201.47
192.86
181.18
167.50
153.80
142.05
132.95
125.85
120.26
115.17
109.10
101.45
92.87
84.92
79.30
76.52
75.49
74.13
69.57
59.23
42.28
20.14
-4.15
-27.21
-46.75
-62.20
-74.46
-85.23
-96.20
-108.16
-120.96
-133.75
-145.53
-155.44
-162.91
-167.51
-168.82
-166.40
-159.92
-149.26
-134.57
-116.25
-94.80
-70.90
-45.47
-19.73
4.82
26.65
44.67
58.61
69.14
77.62
85.51
93.80
102.63
111.38
119.02
124.67
127.79
128.40
126.87
123.83
120.03
116.08
112.09
107.30
99.91
87.43
67.65
39.87
5.65
-31.37
-66.70
-96.69
-119.83
-136.80
-149.41
-159.05
-165.75
-168.36
-165.63
-157.36
-144.79
-129.96
-114.53
-98.92
-82.37
-63.89
-43.38
-22.11
-2.13
14.82
28.20
38.79
47.92
56.48
64.34
70.50
73.88
73.98
71.30
67.04
62.55
58.69
55.69
53.25
50.90
48.43
45.99
44.04
43.02
43.02
43.58
43.86
42.93
40.28
36.16
31.60
27.91
26.09
26.23
27.36
27.74
25.61
19.90
10.72
-0.74
-12.81
-24.04
-33.76
-42.15
-49.82
-57.15
-63.89
-69.18
-71.95
-71.58
-68.20
-62.77
-56.59
-50.70
-45.42
-40.22
-33.99
-25.65
-14.74
-1.84
11.42
22.84
30.45
33.26
31.80
27.94
24.30
23.22
25.97
32.30
40.73
49.18
55.94
60.26
62.53
63.85
65.34
67.49
69.87
71.43
71.07
68.13
62.64
55.13
46.29
36.69
26.71
16.66
6.85
-2.44
-10.97
-18.73
-25.85
-32.54
-38.92
-44.97
-50.61
-55.81
-60.62
-65.10
-69.24
-72.81
-75.33
-76.21
-74.86
-70.84
-64.09
-54.91
-43.93
-32.00
-19.97
-8.46
2.34
12.67
23.10
34.13
45.89
57.99
69.62
79.86
88.02
93.91
97.73
99.90
100.86
101.08
101.04
101.31
102.36
104.27
106.59
108.40
108.71
106.85
102.62
95.99
86.66
73.77
56.01
32.32
2.61
-31.88
-68.71
-105.06
-138.50
-167.50
-191.46
-210.34
-224.36
-233.89
-239.66
-243.06
-246.13
-251.02
-258.93
-269.25
-279.40
-285.45
-283.62
-271.77
-250.17
-221.35
-188.98
-156.56
-126.54
-100.13
-77.55
-58.44
-42.04
-27.26
-12.79
2.44
18.83
35.78
51.95
65.81
76.44
83.86
88.86
92.56
95.76
98.76
101.42
103.59
105.32
106.93
108.87
111.36
114.19
116.69
117.95
117.23
114.28
109.51
103.92
98.69
94.71
92.17
90.49
88.59
85.36
79.93
71.63
60.04
44.96
26.70
6.41
-13.94
-31.98
-45.78
-54.52
-58.67
-59.42
-57.94
-54.71
-49.57
-42.19
-32.74
-22.15
-11.90
-3.45
2.09
4.25
3.13
-0.78
-6.74
-13.83
-21.15
-27.99
-33.92
-38.73
-42.24
-44.08
-43.68
-40.48
-34.11
-24.54
-11.91
3.62
21.76
41.81
62.34
81.15
95.81
104.51
106.77
103.75
97.72
91.07
85.40
81.16
77.96
75.14
72.22
68.88
64.61
58.53
49.56
37.06
21.39
4.02
-12.93
-27.49
-38.55
-46.09
-50.77
-53.44
-54.51
-53.97
-51.61
-47.50
-42.04
-35.88
-29.48
-22.94
-15.90
-7.86
1.48
11.97
23.13
34.39
45.34
55.91
66.10
75.71
83.83
88.93
89.06
82.59
68.94
49.04
25.28
1.14
-19.63
-33.79
-39.43
-36.44
-26.66
-13.53
-1.19
6.76
8.31
3.35
-6.58
-19.16
-32.09
-43.61
-52.34
-57.12
-57.04
-51.88
-42.66
-31.72
-22.20
-16.85
-16.96
-21.68
-28.46
-34.25
-36.87
-35.96
-32.81
-29.49
-27.52
-27.13
-27.14
-25.93
-22.46
-16.87
-10.03
-2.60
5.72
16.04
29.21
44.56
59.46
70.28
74.33
71.33
63.80
55.82
51.11
51.48
56.50
64.51
74.00
84.48
96.11
108.75
120.82
129.08
129.31
117.72
92.49
54.54
7.57
-42.97
-91.32
-132.84
-164.99
-187.69
-202.80
-213.14
-221.28
-228.60
-234.85
-238.27
-236.17
-225.93
-206.01
-176.75
-140.58
-101.46
-63.68
-30.50
-3.45
17.91
35.24
50.52
65.15
79.60
93.45
105.81
115.59
121.70
123.22
119.74
111.74
100.83
89.50
80.57
76.41
78.15
85.39
96.47
109.11
120.99
130.17
135.08
134.63
128.36
116.67
100.79
82.73
64.57
47.78
32.83
19.28
6.66
-4.71
-13.16
-16.17
-11.52
1.40
21.21
45.21
70.75
96.34
121.98
148.44
176.24
204.85
232.72
257.88
278.63
293.71
302.02
302.20
292.62
272.12
240.79
200.58
155.00
108.27
64.10
24.78
-9.01
-37.87
-63.13
-86.25
-108.52
-130.83
-153.61
-176.78
-199.85
-221.97
-242.51
-261.28
-279.06
-297.59
-319.02
-344.63
-373.54
-401.79
-422.55
-427.90
-411.03
-368.62
-302.05
-217.18
-122.65
-27.65
60.31
136.74
199.94
250.49
289.94
319.85
341.25
354.70
360.54
358.91
350.05
333.51
309.46
279.16
245.40
212.05
182.86
159.90
142.54
128.34
112.63
92.35
66.84
37.93
8.68
-18.42
-42.44
-64.15
-84.27
-105.99
-131.32
-161.42
-196.00
-232.72
-267.35
-294.11
-307.59
-302.85
-280.93
-244.54
-197.67
-143.63
-83.90
-18.90
50.62
112.66
170.41
213.73
235.20
232.16
208.06
171.09
130.45
93.62
63.72
41.16
20.64
-2.01
-28.51
-57.35
-84.32
-104.81
-114.69
-116.38
-112.53
-110.00
-114.76
-129.44
-151.98
-173.05
-187.83
-194.96
-195.75
-191.12
-182.31
-168.95
-148.56
-118.66
-78.26
-29.08
26.04
83.27
139.03
188.72
228.45
255.72
269.70
271.22
261.56
242.42
215.15
181.20
142.42
102.42
66.47
39.54
23.79
16.63
11.78
1.79
-18.43
-49.43
-87.01
-124.23
-154.66
-174.90
-185.47
-189.25
-189.55
-188.31
-185.64
-180.62
-172.36
-160.96
-147.54
-133.58
-119.91
-106.37
-92.10
-76.30
-59.01
-41.29
-24.74
-10.81
-0.03
8.18
15.08
21.97
29.58
37.87
46.18
53.69
59.93
65.05
69.74
74.76
80.42
86.16
90.63
92.19
89.72
83.17
73.64
62.86
52.37
42.86
34.01
24.89
14.68
3.32
-8.38
-19.24
-28.39
-35.83
-42.32
-48.83
-55.81
-62.88
-69.11
-73.64
-76.13
-76.73
-75.70
-72.86
-67.65
-59.53
-48.63
-36.16
-24.00
-13.91
-6.65
-1.64
2.66
7.85
14.79
23.26
32.18
40.35
47.15
52.82
58.23
64.37
71.64
79.49
86.59
91.32
92.36
89.18
82.00
71.62
58.99
45.06
30.76
17.16
5.29
-4.03
-10.68
-15.44
-19.77
-25.17
-32.60
-42.02
-52.48
-62.60
-71.05
-77.07
-80.54
-81.80
-81.40
-79.82
-77.28
-73.75
-69.06
-63.08
-55.93
-48.03
-39.99
-32.43
-25.77
-20.18
-15.50
-11.33
-7.12
-2.29
3.67
10.84
18.79
26.59
33.21
37.99
40.94
42.66
43.83
44.73
44.95
43.69
40.42
35.53
30.59
27.99
30.16
38.56
53.02
71.63
91.14
107.63
117.44
117.82
107.61
87.55
59.79
27.06
-8.20
-44.27
-80.11
-114.81
-146.89
-173.74
-191.74
-196.97
-186.52
-159.93
-120.10
-73.42
-28.76
4.51
19.16
12.38
-13.00
-49.15
-85.67
-112.92
-124.78
-120.01
-101.68
-75.37
-47.02
-21.25
-0.57
14.38
24.05
29.39
31.63
32.07
31.87
31.89
32.36
32.78
32.14
29.34
23.79
15.78
6.60
-1.79
-7.39
-8.83
-5.82
0.74
9.16
17.51
24.29
28.78
31.13
32.06
32.51
33.17
34.12
34.80
34.08
30.75
24.03
14.08
2.13
-9.82
-19.71
-26.24
-29.42
-30.56
-31.77
-35.17
-42.12
-52.84
-66.38
-80.84
-93.87
-103.15
-106.92
-104.35
-95.80
-82.69
-67.15
-51.48
-37.54
-26.37
-18.10
-12.12
-7.48
-3.23
1.27
6.25
11.62
17.06
22.06
26.15
28.88
30.04
29.68
28.14
26.01
23.93
22.41
21.73
21.89
22.69
23.77
24.81
25.55
25.84
25.67
25.17
24.54
23.95
23.43
22.82
21.79
20.01
17.28
13.72
9.64
5.51
1.71
-1.64
-4.66
-7.66
-10.94
-14.73
-19.05
-23.75
-28.49
-32.86
-36.39
-38.66
-39.43
-38.71
-36.80
-34.17
-31.30
-28.42
-25.51
-22.24
-18.25
-13.33
-7.60
-1.46
4.55
10.00
14.74
18.82
22.51
26.00
29.36
32.52
35.30
37.56
39.25
40.45
41.27
41.80
42.03
41.84
41.08
39.60
37.46
34.85
32.09
29.45
27.05
24.79
22.46
19.84
16.85
13.58
10.21
6.97
4.02
1.42
-0.79
-2.64
-4.21
-5.67
-7.28
-9.34
-12.05
-15.40
-19.11
-22.69
-25.62
-27.52
-28.29
-28.03
-26.99
-25.33
-23.09
-20.15
-16.46
-12.10
-7.34
-2.60
1.79
5.68
9.14
12.33
15.43
18.46
21.32
23.85
25.93
27.53
28.70
29.55
30.17
30.55
30.64
30.32
29.49
28.16
26.40
24.39
22.29
20.25
18.30
16.37
14.43
12.43
10.43
8.50
6.69
4.99
3.33
1.65
-0.08
-1.87
-3.66
-5.46
-7.29
-9.29
-11.59
-14.27
-17.29
-20.46
-23.44
-25.89
-27.52
-28.18
-27.88
-26.72
-24.85
-22.41
-19.47
-16.04
-12.14
-7.78
-3.08
1.78
6.56
10.99
14.93
18.30
21.18
23.65
25.77
27.53
28.90
29.84
30.37
30.55
30.48
30.16
29.55
28.60
27.26
25.57
23.67
21.73
19.90
18.24
16.74
15.31
13.84
12.26
10.51
8.65
6.71
4.80
3.02
1.43
0.03
-1.26
-2.62
-4.31
-6.51
-9.28
-12.50
-15.90
-19.14
-21.99
-24.39
-26.41
-28.17
-29.69
-30.81
-31.25
-30.71
-29.05
-26.40
-23.04
-19.32
-15.46
-11.51
-7.41
-3.09
1.37
5.74
9.75
13.20
16.06
18.45
20.49
22.27
23.74
24.84
25.47
25.68
25.59
25.35
25.03
24.67
24.17
23.44
22.40
21.04
19.39
17.54
15.60
13.69
11.89
10.23
8.67
7.11
5.43
3.56
1.53
-0.55
-2.52
-4.24
-5.66
-6.88
-8.09
-9.49
-11.22
-13.29
-15.57
-17.91
-20.16
-22.24
-24.06
-25.54
-26.52
-26.83
-26.35
-25.07
-23.11
-20.69
-17.98
-15.06
-11.90
-8.40
