1563484047.00
64.000000
-0.00
-0.00
-0.00
-0.00
-0.00
-0.00
-0.00
-0.00
-0.00
-0.00
0.00
0.01
0.01
-0.00
-0.03
-0.05
-0.05
0.00
0.13
0.36
0.66
1.01
1.37
1.72
2.06
2.40
2.79
3.24
3.80
4.42
5.07
5.68
6.23
6.73
7.24
7.83
8.55
9.52
10.64
11.82
12.93
13.92
14.83
15.83
17.13
18.88
21.31
24.21
27.34
30.38
33.16
35.77
38.53
41.86
46.11
51.65
58.16
65.11
71.91
78.22
84.10
90.04
96.78
104.87
114.88
126.31
138.40
150.23
161.23
171.43
181.46
192.71
203.93
217.43
233.84
253.28
274.53
294.62
309.19
313.60
304.55
281.20
246.02
202.91
156.20
109.08
63.02
18.20
-25.52
-67.84
-107.87
-144.18
-175.94
-202.74
-224.49
-241.05
-252.37
-258.16
-258.08
-252.19
-240.91
-225.53
-207.66
-188.94
-170.68
-153.55
-137.64
-122.65
-108.28
-94.41
-81.36
-69.24
-58.39
-49.06
-41.29
-34.81
-29.25
-24.24
-19.51
-15.01
-10.81
-7.11
-4.06
-1.67
0.15
1.59
2.79
3.88
4.90
5.81
6.53
6.98
7.10
6.91
6.46
5.80
5.00
4.14
3.26
2.37
1.49
0.61
-0.29
-1.23
-2.20
-3.22
-4.30
-5.41
-6.54
-7.68
-8.77
-9.75
-10.56
-11.18
-11.55
-11.70
-11.65
-11.45
-11.15
-10.83
-10.55
-10.37
-10.32
-10.41
-10.64
-10.97
-11.33
-11.65
-11.89
-11.98
-11.89
-11.62
-11.20
-10.67
-10.06
-9.44
-8.88
-8.40
-8.06
-7.87
-7.84
-7.91
-8.08
-8.30
-8.50
-8.64
-8.71
-8.70
-8.61
-8.46
-8.30
-8.13
-7.97
-7.88
-7.87
-7.95
-8.14
-8.43
-8.81
-9.23
-9.66
-10.06
-10.40
-10.65
-10.78
-10.79
-10.62
-10.29
-9.79
-9.15
-8.37
-7.49
-6.54
-5.52
-4.44
-3.33
-2.20
-1.03
0.13
1.24
2.30
3.27
4.11
4.79
5.34
5.77
6.08
6.33
6.59
6.88
7.21
7.59
8.00
8.38
8.61
8.62
8.29
7.47
6.07
4.07
1.47
-1.66
-5.14
-8.78
-12.36
-15.66
-18.46
-20.61
-22.04
-22.71
-22.66
-22.02
-20.91
-19.44
-17.75
-15.97
-14.24
-12.65
-11.31
-10.30
-9.57
-9.03
-8.54
-7.98
-7.22
-6.25
-5.15
-4.04
-3.00
-2.12
-1.49
-1.12
-1.02
-1.32
-2.10
-3.47
-5.50
-8.32
-12.01
-16.65
-22.45
-29.58
-38.02
-47.59
-57.87
-68.47
-79.54
-91.95
-107.35
-127.29
-152.01
-179.51
-205.83
-226.31
-237.39
-238.09
-229.90
-215.68
-197.90
-177.93
-156.33
-133.90
-112.55
-94.91
-82.88
-76.00
-71.44
-65.37
-55.22
-41.37
-26.99
-15.95
-10.48
-9.88
-10.89
-9.69
-4.19
4.86
14.42
21.24
23.57
22.32
20.19
20.02
22.87
27.33
30.41
29.16
22.94
13.89
6.24
4.10
9.13
19.46
30.44
37.13
36.70
30.15
21.49
15.78
16.14
22.04
29.57
33.82
31.77
24.00
14.53
8.36
8.44
14.05
21.29
25.56
24.39
19.02
13.49
12.02
16.41
24.93
33.25
36.84
33.80
25.74
16.81
11.39
11.63
16.30
21.52
23.33
20.01
13.24
7.05
5.49
9.84
17.85
24.79
26.32
21.09
11.58
2.96
-0.11
4.02
13.14
22.42
27.00
24.78
17.50
9.50
5.16
6.49
12.17
18.35
21.09
18.75
12.87
7.17
5.20
8.11
13.95
18.54
18.29
12.47
3.78
-3.10
-4.13
1.47
10.68
18.09
19.14
12.63
1.40
-9.07
-13.91
-11.36
-3.74
4.21
8.19
6.70
1.90
-1.92
-1.06
5.18
13.92
20.41
20.81
14.65
5.28
-1.99
-2.86
3.38
13.48
21.96
24.23
19.08
9.37
0.21
-3.92
-1.68
4.63
10.46
11.89
7.73
0.23
-6.37
-8.27
-4.32
3.36
10.68
13.79
11.35
5.25
-0.44
-1.99
1.88
9.05
15.39
16.89
12.31
4.06
-3.24
-5.30
-0.76
7.88
15.57
17.80
13.20
4.37
-3.67
-6.31
-2.00
6.97
15.70
19.68
17.06
9.67
1.82
-2.15
-0.50
5.11
10.65
12.34
8.79
2.06
-3.64
-4.72
-0.44
6.51
11.71
11.66
6.07
-1.83
-7.28
-6.90
-0.58
8.43
15.20
15.95
10.13
0.79
-7.17
-9.56
-5.28
2.91
9.86
10.92
4.70
-5.97
-15.62
-19.09
-14.75
-5.41
3.22
6.28
2.38
-5.32
-11.30
-10.93
-3.45
7.58
16.40
18.46
13.12
3.83
-3.74
-5.08
0.46
9.38
16.13
16.34
9.26
-1.62
-10.68
-13.29
-8.39
0.98
9.59
12.83
9.37
1.70
-5.55
-8.31
-5.36
1.25
7.26
8.98
5.41
-1.21
-6.92
-8.22
-4.23
2.82
8.96
10.79
7.70
2.02
-2.32
-2.04
3.49
11.58
17.89
18.93
14.12
6.15
-0.42
-1.97
1.89
8.09
11.95
10.00
2.35
-7.30
-13.67
-13.22
-6.34
2.86
9.01
8.45
1.58
-7.47
-13.29
-12.39
-5.15
4.51
11.48
12.31
7.15
-0.36
-5.44
-4.88
1.11
8.92
13.50
11.49
3.33
-6.95
-13.80
-13.49
-6.32
3.34
9.57
8.37
0.35
-9.69
-15.52
-13.15
-3.44
8.28
15.59
14.73
6.76
-3.27
-9.43
-8.47
-1.68
6.31
10.48
8.62
2.48
-3.42
-4.74
0.04
8.71
16.81
20.20
17.34
9.98
2.21
-1.94
-0.79
4.15
8.99
9.78
4.59
-4.94
-14.43
-19.10
-16.42
-7.53
3.06
9.79
9.29
2.16
-7.38
-14.00
-14.03
-7.61
1.55
8.49
9.84
5.58
-1.21
-6.25
-6.54
-2.11
4.16
8.43
8.32
4.22
-0.86
-2.99
0.03
7.34
15.20
19.21
16.67
8.38
-1.59
-8.13
-8.09
-1.83
6.83
12.82
12.81
7.18
-0.48
-5.66
-5.69
-1.38
3.63
5.19
1.48
-5.81
-12.45
-14.12
-9.21
0.16
9.33
13.64
11.12
3.41
-5.03
-9.41
-7.26
0.47
9.80
16.01
16.03
10.15
1.75
-4.66
-6.07
-2.47
3.09
6.43
4.94
-0.79
-7.32
-10.43
-7.72
-0.36
7.42
10.90
7.59
-1.22
-11.14
-16.99
-15.85
-8.69
0.40
6.55
6.91
2.17
-3.77
-6.49
-3.82
2.97
9.72
12.03
8.05
-0.33
-8.48
-11.88
-8.84
-1.44
5.54
7.50
2.88
-5.93
-14.10
-17.00
-12.80
-3.62
5.79
10.76
9.18
2.58
-4.87
-8.69
-6.79
-0.59
5.86
8.51
5.54
-1.52
-8.36
-10.63
-6.51
2.27
11.23
15.85
13.99
7.10
-0.68
-5.14
-4.49
-0.02
4.52
5.43
1.40
-5.61
-11.65
-13.15
-8.97
-1.30
5.63
7.87
4.16
-3.33
-10.22
-12.33
-8.03
0.69
9.22
13.17
10.89
4.47
-1.59
-2.95
1.83
10.41
18.02
20.56
16.90
9.53
3.04
1.22
4.74
10.93
15.42
14.83
8.72
-0.24
-7.67
-9.98
-6.49
0.30
6.05
6.92
1.67
-7.47
-16.00
-19.63
-16.65
-8.85
-0.49
3.99
2.56
-3.27
-9.44
-12.08
-9.78
-4.50
-0.26
-0.39
-5.27
-11.67
-14.71
-10.80
-0.07
13.34
23.32
25.24
18.44
6.81
-3.59
-7.76
-4.39
3.74
11.49
14.45
11.24
3.94
-3.19
-6.28
-4.00
1.81
7.28
8.85
5.33
-1.36
-7.17
-8.46
-4.17
3.29
9.25
9.59
3.24
-6.82
-15.33
-17.72
-12.84
-3.69
4.33
6.74
2.53
-5.37
-11.88
-12.64
-6.54
3.82
13.62
18.47
16.66
10.09
2.87
-0.87
0.60
5.68
10.52
11.38
6.99
-0.46
-6.76
-8.20
-3.87
3.71
9.82
10.68
5.50
-2.83
-9.58
-10.97
-6.38
1.29
7.37
8.18
3.37
-4.04
-9.46
-9.34
-3.37
5.14
11.14
10.77
3.68
-6.64
-14.77
-16.25
-10.26
-0.01
9.19
12.97
10.18
3.45
-2.57
-4.13
-0.57
5.44
9.56
8.74
2.99
-4.45
-9.08
-7.94
-1.47
6.75
11.97
10.88
3.63
-6.19
-13.63
-15.04
-10.12
-1.92
4.79
6.34
2.09
-5.36
-11.75
-13.40
-9.24
-1.48
5.69
8.54
5.96
-0.00
-5.24
-5.93
-1.13
6.54
12.19
11.73
4.30
-7.00
-16.69
-20.07
-16.01
-7.48
0.27
2.95
-0.45
-7.10
-12.30
-12.25
-6.46
2.14
9.02
10.75
6.96
0.64
-3.70
-2.57
4.32
13.93
21.42
22.91
17.68
8.68
0.69
-2.37
0.24
5.80
9.93
9.20
3.45
-4.10
-8.98
-8.17
-2.12
5.52
9.83
7.86
0.32
-8.73
-14.26
-13.11
-5.80
3.63
10.13
10.27
4.17
-4.66
-11.30
-12.10
-6.89
1.09
7.11
7.91
3.41
-3.05
-6.75
-4.54
3.18
12.59
18.90
19.01
13.43
6.01
1.40
2.19
7.20
12.40
13.38
8.23
-1.38
-10.95
-15.62
-13.08
-4.84
4.46
9.73
7.98
0.02
-9.89
-16.50
-16.28
-9.31
0.84
8.89
10.92
6.22
-2.18
-9.42
-11.61
-7.89
-0.82
5.27
6.77
3.14
-3.13
-7.98
-8.29
-3.70
3.09
7.99
8.19
3.73
-2.51
-6.54
-5.72
-0.56
5.49
8.17
5.04
-2.95
-11.74
-16.30
-13.78
-5.27
4.90
11.34
10.79
3.79
-5.46
-11.76
-11.86
-6.10
2.01
8.04
9.27
6.35
2.56
1.47
4.53
10.07
14.19
13.16
5.97
-4.74
-14.11
-17.53
-13.19
-3.41
6.65
11.55
8.52
-0.94
-11.99
-18.76
-17.53
-8.85
2.90
11.95
14.37
10.12
3.04
-1.59
-0.26
6.67
15.30
20.48
19.19
12.16
3.52
-1.85
-1.31
4.08
10.19
12.39
8.19
-1.14
-11.36
-17.36
-16.03
-8.14
2.14
9.20
9.07
1.69
-9.08
-17.51
-19.31
-14.06
-5.29
1.64
2.90
-1.41
-7.44
-10.21
-7.01
0.92
8.99
12.27
8.73
0.62
-6.92
-8.92
-3.51
6.71
16.19
19.67
15.14
4.95
-5.49
-10.78
-8.44
-0.29
8.88
14.10
13.16
7.50
1.38
-0.91
2.28
9.02
15.05
16.37
11.66
3.25
-4.39
-7.19
-3.85
3.40
9.94
11.57
6.88
-2.04
-10.57
-14.34
-11.66
-4.58
2.28
4.36
-0.26
-9.62
-18.98
-23.53
-21.09
-13.18
-4.31
0.79
-0.14
-5.95
-12.61
-15.61
-12.48
-4.17
5.61
12.37
13.28
8.78
2.25
-1.92
-0.70
5.76
14.09
19.62
19.24
13.19
4.92
-0.92
-1.30
3.27
9.08
11.80
9.07
2.08
-5.20
-8.44
-5.82
0.96
7.47
9.44
5.25
-3.02
-10.88
-14.07
-11.02
-3.76
3.18
5.41
1.26
-7.34
-16.00
-20.41
-18.71
-12.32
-5.12
-0.97
-1.54
-5.47
-9.30
-9.63
-5.27
2.06
8.73
11.22
8.27
1.73
-4.47
-6.59
-3.32
3.39
9.31
10.41
5.20
-3.87
-11.98
-14.50
-9.63
0.39
10.38
15.08
12.33
4.10
-4.70
-8.94
-6.40
1.17
9.07
12.70
10.19
3.40
-3.23
-5.38
-1.48
6.29
13.43
15.81
12.02
4.19
-3.07
-5.60
-2.14
4.93
10.90
11.64
5.97
-3.26
-10.93
-12.55
-6.89
3.22
12.32
15.48
11.24
2.25
-6.08
-8.72
-3.99
5.55
14.57
18.00
14.04
5.13
-3.58
-7.24
-4.14
3.34
10.15
11.68
6.43
-3.01
-11.48
-14.40
-10.42
-2.22
5.10
6.97
1.98
-7.11
-15.08
-17.26
-12.18
-2.46
6.56
9.88
5.80
-3.15
-11.73
-15.03
-11.33
-3.02
4.99
8.04
4.63
-2.77
-9.22
-10.28
-4.62
5.16
13.96
17.19
13.38
4.89
-3.47
-7.29
-4.88
1.82
8.56
11.23
8.37
1.82
-4.37
-6.57
-3.61
2.37
7.22
7.30
1.78
-6.78
-13.76
-15.04
-9.44
0.52
9.92
14.09
11.20
3.20
-5.50
-10.48
-9.74
-4.63
1.04
3.49
1.30
-3.88
-8.46
-9.15
-4.97
1.97
7.81
9.12
5.09
-1.96
-7.86
-8.92
-3.95
4.94
13.50
17.70
15.98
9.93
3.09
-0.87
-0.52
2.64
5.24
4.08
-1.48
-9.07
-14.55
-14.59
-8.83
-0.37
5.85
6.10
0.00
-8.89
-15.15
-14.58
-6.73
4.74
14.10
16.70
11.69
2.37
-5.76
-8.33
-4.27
3.56
10.14
11.21
5.89
-2.92
-10.35
-12.27
-7.81
0.07
6.33
6.78
0.69
-8.89
-16.75
-18.60
-13.49
-4.52
3.13
5.30
1.34
-5.69
-10.75
-10.08
-3.50
5.38
11.36
10.85
4.09
-5.00
-11.06
-10.57
-3.79
5.36
11.80
12.25
6.95
-0.51
-5.43
-4.70
1.41
9.61
15.50
16.25
11.94
5.53
0.93
0.81
5.10
10.94
14.45
13.01
6.97
-0.83
-6.29
-6.70
-2.26
3.87
7.52
5.80
-0.96
-9.47
-15.07
-14.42
-7.44
2.49
10.27
12.05
7.19
-1.56
-9.59
-13.03
-10.80
-5.12
0.19
1.96
-0.43
-4.70
-7.26
-5.53
0.46
7.87
12.68
12.30
7.26
0.74
-3.11
-1.73
4.27
11.22
14.74
12.24
4.79
-3.59
-8.15
-6.25
1.06
9.56
14.24
12.29
4.73
-4.44
-10.33
-10.02
-4.13
3.41
7.86
6.38
-0.37
-8.59
-13.70
-12.89
-6.86
0.74
5.50
4.89
-0.31
-6.59
-9.73
-7.52
-0.97
6.17
9.75
7.57
0.77
-6.86
-11.04
-9.50
-3.30
3.92
7.72
5.65
-1.29
-9.23
-13.60
-11.71
-4.28
4.86
10.97
11.14
5.96
-0.81
-4.66
-2.95
3.49
10.71
13.97
10.77
2.32
-7.11
-12.52
-11.24
-4.30
4.09
9.23
8.66
3.61
-1.89
-3.57
0.39
8.08
15.03
16.69
11.33
1.07
-9.19
-14.43
-12.25
-4.29
4.73
9.88
8.51
1.78
-6.16
-10.67
-9.29
-3.07
4.03
7.57
5.16
-2.19
-10.69
-15.77
-14.93
-9.06
-2.03
1.84
0.10
-6.13
-12.87
-15.54
-11.77
-2.86
6.91
12.61
11.53
4.70
-3.58
-8.44
-7.06
-0.25
7.99
13.06
12.23
6.31
-0.92
-4.99
-3.40
3.09
10.62
14.62
12.52
5.24
-3.54
-9.32
-9.50
-4.81
1.22
4.45
2.76
-2.67
-8.20
-9.86
-6.01
1.45
8.23
10.26
6.23
-1.52
-8.26
-9.77
-4.69
4.57
13.28
17.02
14.09
6.36
-1.92
-6.46
-5.42
-0.02
6.09
8.88
6.30
-0.42
-7.48
-10.72
-7.97
-0.54
7.43
11.22
8.55
1.01
-6.82
-10.04
-6.51
1.76
9.71
12.21
7.31
-2.52
-11.77
-15.17
-10.55
-0.22
10.34
15.70
13.43
5.31
-3.67
-8.31
-6.14
1.20
8.92
11.91
7.87
-1.37
-10.73
-14.84
-11.18
-1.60
8.62
13.79
11.16
2.42
-7.44
-13.07
-11.78
-5.09
2.35
5.80
3.40
-2.81
-8.37
-9.38
-5.00
2.01
6.82
5.92
-0.68
-9.33
-14.70
-13.14
-4.83
6.18
14.29
15.53
9.80
0.68
-6.57
-8.08
-3.39
4.45
10.79
12.03
7.63
0.33
-5.42
-6.20
-1.67
5.19
9.85
8.81
1.79
-7.95
-15.40
-16.62
-10.97
-1.55
6.62
9.32
5.67
-1.70
-8.16
-9.89
-6.03
0.95
6.79
8.00
3.95
-2.87
-8.41
-9.17
-4.32
3.98
11.76
15.53
14.11
8.99
3.42
0.45
1.17
4.00
5.76
3.73
-2.32
-9.77
-14.40
-12.93
-5.11
5.64
14.04
15.87
10.52
1.39
-6.08
-7.57
-2.47
5.95
12.42
12.92
6.90
-2.46
-10.38
-12.95
-9.50
-2.71
3.02
4.43
1.18
-3.85
-6.56
-4.26
2.62
10.53
14.93
12.99
5.67
-2.83
-7.50
-5.44
2.33
11.36
16.32
14.07
5.52
-4.87
-11.75
-11.76
-5.38
3.20
8.59
7.42
0.20
-8.86
-14.54
-13.42
-6.10
3.32
9.60
9.69
4.36
-2.32
-5.47
-2.58
5.13
13.38
17.43
14.76
6.55
-3.12
-9.44
-9.60
-4.34
2.60
6.61
4.79
-2.21
-10.57
-15.51
-14.22
-7.56
0.34
4.53
2.27
-5.25
-13.41
-17.04
-13.61
-4.79
4.31
8.13
4.04
-6.13
-17.07
-22.90
-20.49
-11.05
0.65
8.96
10.38
5.59
-1.44
-5.65
-3.99
2.83
10.77
15.10
13.04
5.68
-2.72
-7.11
-4.60
3.68
13.12
18.25
16.05
7.61
-2.29
-7.87
-5.73
3.34
14.65
22.18
21.96
14.11
2.56
-7.00
-10.43
-7.22
-0.40
5.35
6.20
1.55
-5.85
-11.71
-12.63
-8.09
-0.73
5.24
6.57
2.87
-3.17
-7.63
-7.76
-3.69
1.59
4.01
1.30
-5.56
-12.71
-15.67
-12.01
-2.99
7.11
13.32
12.90
6.80
-1.18
-6.44
-6.52
-2.36
2.42
4.00
0.60
-6.46
-13.42
-16.24
-13.05
-5.25
3.40
8.69
8.41
3.35
-3.07
-6.78
-5.46
0.18
6.73
10.12
7.92
1.01
-6.73
-10.74
-8.48
-0.99
7.61
12.36
10.49
2.89
-6.27
-12.01
-11.44
-5.41
2.15
6.36
4.47
-2.42
-10.25
-14.13
-11.39
-3.08
6.53
12.49
12.01
6.07
-1.20
-4.97
-2.46
5.31
14.21
19.40
18.16
11.29
2.59
-3.34
-3.88
0.17
5.24
7.24
4.22
-2.33
-8.37
-9.65
-4.65
4.24
12.16
14.41
9.24
-0.85
-10.69
-15.41
-13.02
-5.50
2.60
6.95
5.89
1.20
-3.13
-3.61
0.77
7.73
13.17
13.33
7.24
-2.64
-11.54
-15.14
-11.80
-3.65
4.64
8.39
5.64
-1.72
-9.18
-12.26
-9.27
-2.31
4.06
5.60
1.06
-6.93
-13.35
-14.05
-8.10
1.54
9.82
12.64
9.24
2.50
-2.70
-2.66
3.03
11.23
17.16
17.33
11.33
2.15
-5.46
-7.94
-4.60
2.06
8.05
10.15
7.71
2.85
-0.86
-0.67
3.58
9.34
12.73
10.89
3.65
-6.06
-13.71
-15.69
-11.41
-3.57
3.16
4.83
0.38
-7.85
-15.37
-18.30
-15.63
-9.69
-4.81
-4.43
-9.23
-16.38
-21.22
-20.02
-12.34
-1.22
8.34
12.33
9.98
4.10
-0.58
-0.39
5.00
12.54
17.49
16.54
9.67
0.45
-6.11
-6.42
-0.28
9.12
16.93
19.50
16.08
9.04
2.37
-0.68
0.75
4.70
7.79
7.18
2.37
-4.43
-9.59
-10.10
-5.57
1.54
6.95
7.22
1.75
-6.71
-13.53
-14.85
-9.95
-1.68
5.14
6.74
2.69
-3.93
-8.36
-7.25
-0.77
7.45
12.45
10.94
3.47
-5.89
-11.85
-11.24
-4.81
3.19
7.65
5.79
-1.21
-8.95
-12.43
-9.03
-0.13
9.66
15.22
13.78
6.45
-2.49
-8.16
-7.80
-2.25
4.64
8.37
6.39
-0.38
-8.08
-12.08
-9.62
-1.59
7.84
13.69
13.01
6.81
-0.73
-4.60
-2.07
5.56
13.65
16.92
12.77
2.91
-7.72
-13.82
-12.75
-6.08
1.36
4.69
1.74
-5.50
-12.33
-14.12
-9.08
0.68
10.25
14.58
11.55
3.07
-6.03
-10.89
-9.15
-2.34
5.01
8.14
4.76
-3.53
-12.26
-16.59
-14.19
-6.36
2.63
8.09
7.61
2.39
-3.67
-6.44
-3.91
2.55
8.92
11.13
7.44
-0.14
-7.08
-8.86
-3.77
6.01
15.55
19.85
16.82
8.41
-0.60
-5.57
-4.36
1.37
7.32
9.33
5.81
-1.38
-7.97
-9.91
-5.60
3.02
11.45
15.04
11.72
3.02
-6.66
-12.64
-12.34
-6.99
-0.66
2.20
-0.49
-7.12
-13.45
-15.18
-10.61
-1.93
6.18
9.18
5.58
-2.34
-9.70
-12.11
-8.12
-0.28
6.53
8.11
3.40
-4.79
-11.38
-12.16
-6.27
3.30
11.35
13.37
8.11
-1.74
-10.93
-14.69
-11.08
-2.06
7.77
13.71
13.39
7.97
1.33
-2.21
-0.34
5.84
12.64
15.89
13.56
7.13
0.63
-1.83
1.36
8.28
14.45
15.52
9.97
0.12
-9.10
-12.91
-9.62
-1.54
6.17
8.78
4.61
-3.92
-11.84
-14.51
-10.46
-2.28
4.90
6.51
1.44
-7.49
-15.01
-16.46
-10.72
-0.88
7.66
10.26
5.47
-4.03
-12.90
-16.21
-12.20
-3.00
6.47
11.40
9.74
3.30
-3.31
-5.70
-2.15
5.23
11.57
12.21
5.61
-5.53
-15.74
-19.78
-15.71
-6.09
3.50
7.59
4.19
-4.43
-13.10
-16.77
-13.37
-5.03
3.57
8.21
7.42
3.18
-0.39
0.09
5.08
11.93
16.34
15.17
8.40
-0.69
-7.24
-7.83
-2.56
5.01
9.82
8.09
-0.14
-10.99
-18.85
-19.58
-12.80
-2.18
6.52
8.74
3.71
-5.33
-13.02
-14.96
-10.15
-1.49
6.01
8.24
4.22
-3.35
-9.61
-10.49
-5.22
3.47
10.87
13.09
9.44
2.85
-1.99
-1.48
4.55
12.81
18.33
17.45
10.21
0.28
-7.09
-8.04
-2.22
7.16
15.21
18.18
15.32
9.15
3.61
1.84
4.28
8.69
11.57
10.46
5.34
-1.34
-5.93
-5.91
-1.46
4.59
8.38
7.28
1.52
-5.80
-10.40
-9.52
-3.72
3.61
7.87
6.11
-1.13
-10.10
-16.08
-15.95
-10.05
-1.89
3.96
4.53
-0.01
-6.52
-10.92
-10.46
-5.47
1.03
5.11
4.32
-0.95
-7.71
-11.93
-11.01
-5.18
2.63
8.48
9.63
6.10
0.64
-2.95
-1.95
3.61
11.06
16.47
16.82
11.98
4.68
-1.06
-2.07
1.93
8.07
12.03
10.58
3.69
-5.36
-11.82
-12.17
-6.38
2.12
8.39
8.88
3.41
-4.51
-9.86
-9.07
-2.13
7.30
13.86
13.53
5.99
-5.10
-14.16
-16.88
-12.64
-4.80
1.32
1.78
-3.48
-10.74
-14.87
-12.62
-4.81
4.17
9.11
7.26
0.17
-7.43
-10.43
-6.48
2.58
11.81
16.16
13.36
5.04
-4.23
-9.59
-8.63
-2.61
4.34
7.79
5.36
-1.73
-9.46
-13.16
-10.35
-2.17
7.17
12.62
11.20
3.62
-6.01
-12.52
-12.53
-6.40
2.08
8.00
8.04
2.40
-5.40
-10.67
-10.30
-4.61
2.95
7.86
7.25
1.50
-5.85
-10.28
-8.96
-2.48
5.54
10.75
10.52
5.60
-0.44
-3.37
-0.91
6.05
13.76
17.86
16.11
9.64
2.23
-1.93
-0.86
4.09
8.94
9.65
4.63
-4.27
-12.71
-16.34
-13.37
-5.72
2.28
6.24
4.46
-1.50
-7.67
-10.10
-7.09
-0.22
6.69
9.60
6.68
-0.73
-8.65
-12.67
-10.52
-3.33
4.94
9.63
8.23
1.63
-6.27
-10.81
-9.44
-3.31
3.45
6.23
2.90
-4.88
-12.57
-15.48
-11.78
-3.65
3.97
6.46
2.40
-5.56
-12.39
-13.57
-7.95
1.66
10.28
13.60
10.54
3.59
-2.81
-4.81
-1.36
5.43
11.59
13.58
10.35
3.71
-2.59
-4.97
-2.21
3.91
9.52
10.91
6.70
-1.33
-9.09
-12.50
-9.90
-2.99
4.14
7.26
4.50
-2.50
-9.61
-12.46
-9.04
-0.81
8.13
13.34
12.64
7.27
1.12
-1.69
0.76
6.99
13.08
15.01
11.05
2.76
-5.68
-9.94
-8.02
-1.33
6.07
9.75
7.29
-0.40
-9.50
-15.54
-15.78
-10.83
-4.03
0.28
-0.44
-5.43
-11.02
-12.94
-8.99
-0.49
8.27
12.59
10.20
2.64
-5.49
-9.38
-6.78
0.60
8.14
11.15
7.90
0.55
-6.29
-8.36
-4.37
3.10
9.30
10.29
5.27
-2.92
-9.50
-10.50
-5.06
4.11
12.15
14.92
11.18
3.22
-4.37
-7.34
-4.04
3.57
11.08
14.12
10.91
3.43
-3.89
-6.75
-3.64
3.18
8.99
9.61
4.03
-4.96
-12.41
-14.15
-9.32
-0.83
6.35
8.12
3.67
-4.19
-10.76
-12.21
-7.70
0.28
7.24
9.39
5.76
-1.43
-7.95
-10.04
-6.55
0.41
6.60
8.15
3.89
-3.83
-10.61
-12.40
-8.05
0.02
7.26
9.64
6.16
-0.73
-6.62
-7.87
-3.97
2.29
6.56
5.65
-0.49
-8.62
-14.19
-14.00
-7.98
0.85
7.97
9.85
5.96
-1.08
-6.80
-7.54
-2.36
6.28
13.84
16.15
12.01
3.88
-3.50
-5.69
-1.39
6.75
13.72
15.13
9.90
0.83
-7.11
-9.83
-6.49
0.14
5.44
5.93
1.08
-6.32
-11.86
-12.10
-6.52
2.16
9.69
12.45
9.63
3.38
-2.10
-3.43
0.18
6.39
11.23
11.42
6.50
-0.75
-6.08
-6.29
-1.35
5.57
9.79
7.95
0.14
-10.06
-17.58
-18.56
-12.60
-3.05
4.85
6.86
2.19
-6.16
-13.08
-14.26
-8.78
0.24
7.62
9.05
3.84
-4.83
-11.53
-12.07
-5.86
3.61
10.87
11.71
5.69
-3.61
-10.87
-11.96
-6.41
2.55
9.80
11.51
7.28
0.08
-5.58
-6.44
-2.45
3.32
6.66
4.85
-1.60
-9.15
-13.35
-11.43
-3.96
5.45
12.16
12.95
7.80
-0.11
-6.27
-7.53
-3.79
1.95
5.34
3.33
-3.77
-12.34
-17.58
-16.17
-8.29
2.41
10.75
13.20
9.73
3.62
-0.53
0.24
5.51
11.88
15.29
13.53
7.61
1.24
-1.44
1.64
9.21
17.32
21.43
18.98
10.91
0.95
-6.32
-8.01
-4.37
1.46
5.43
4.94
0.38
-5.28
-8.31
-6.60
-1.09
4.71
6.68
2.70
-6.12
-15.81
-21.63
-20.77
-13.69
-3.91
3.95
6.63
3.89
-1.53
-5.61
-5.39
-0.54
6.50
11.97
13.05
9.58
3.85
-0.52
-0.87
2.93
8.40
11.79
10.41
4.29
-3.66
-9.21
-9.43
-4.58
1.94
5.37
2.51
-6.25
-16.98
-24.36
-24.67
-17.82
-7.31
1.93
6.35
5.81
3.21
2.46
5.88
12.61
19.08
21.14
16.56
6.63
-4.51
-11.83
-12.25
-6.52
1.14
5.31
2.45
-6.94
-18.49
-26.29
-26.32
-18.75
-7.71
1.04
3.48
-0.50
-7.16
-11.34
-9.60
-2.17
7.24
13.94
14.84
10.43
4.33
0.96
3.01
9.90
17.95
22.64
21.26
14.48
5.91
-0.00
-0.50
3.77
9.23
11.62
8.60
1.24
-6.69
-10.88
-9.19
-3.01
3.40
5.58
1.42
-7.41
-16.33
-20.38
-17.12
-8.17
1.60
6.89
4.94
-2.91
-11.87
-16.40
-13.38
-3.85
7.67
15.81
17.20
12.29
4.92
-0.15
0.08
5.05
11.11
13.78
10.50
2.13
-7.49
-13.69
-13.77
-8.43
-1.36
3.11
2.34
-2.94
-9.16
-12.10
-9.42
-2.00
6.42
11.40
10.28
3.63
-4.95
-11.02
-11.64
-7.04
-0.50
3.61
2.52
-3.30
-10.41
-14.41
-12.47
-5.10
4.15
10.78
11.94
8.04
2.37
-0.76
1.39
8.14
15.76
19.65
16.96
8.39
-1.73
-7.99
-7.00
0.67
10.63
17.25
16.84
9.85
0.45
-6.15
-6.79
-2.09
4.10
7.07
4.26
-3.16
-11.17
-15.18
-12.83
-5.44
2.69
6.76
4.30
-3.39
-11.99
-16.58
-14.49
-6.99
1.61
6.57
5.51
-0.46
-7.13
-9.95
-6.78
0.90
8.80
12.34
9.28
1.15
-7.50
-11.74
-8.95
-0.42
9.37
15.14
13.99
6.99
-1.30
-5.68
-3.37
4.27
12.56
16.28
12.86
3.90
-5.84
-11.15
-9.38
-1.89
6.80
11.68
10.21
3.55
-4.18
-8.42
-6.83
-0.59
6.18
9.10
5.95
-2.05
-10.71
-15.26
-13.19
-5.70
3.01
7.96
6.24
-1.42
-11.04
-17.57
-17.73
-11.80
-3.39
2.70
3.10
-2.14
-9.63
-14.71
-14.30
-8.66
-1.30
3.13
1.82
-4.42
-11.72
-15.48
-13.34
-6.62
0.45
3.51
0.87
-5.38
-10.58
-10.30
-3.13
8.47
19.35
24.51
21.99
13.78
4.64
-0.74
-0.19
4.98
10.82
13.28
10.43
3.48
-3.92
-7.82
-6.20
-0.03
7.25
11.69
11.07
6.07
-0.18
-3.97
-2.94
2.49
9.48
14.17
13.88
8.78
1.67
-3.44
-3.72
0.84
7.27
11.34
10.08
3.49
-5.06
-10.92
-10.88
-5.09
2.77
7.72
6.51
-0.34
-8.79
-13.64
-11.75
-3.83
6.04
12.67
12.87
7.25
-0.16
-4.54
-3.14
3.09
10.16
13.30
9.95
1.46
-7.78
-12.90
-11.36
-4.44
3.27
6.88
4.06
-3.72
-11.89
-15.61
-12.71
-4.97
2.79
5.66
1.49
-7.71
-16.92
-20.88
-17.16
-7.56
3.01
9.31
8.74
2.64
-4.46
-7.83
-5.11
2.23
9.85
13.16
10.18
2.54
-5.38
-9.11
-6.75
0.02
6.97
9.98
7.41
0.97
-5.46
-8.06
-5.51
0.50
6.18
8.02
4.66
-2.23
-8.80
-11.40
-8.40
-1.22
6.38
10.27
8.40
1.86
-5.51
-9.29
-7.05
0.20
8.52
13.44
12.63
7.16
0.83
-2.25
-0.10
5.86
11.71
13.50
9.61
1.74
-6.03
-9.64
-7.50
-1.37
4.61
6.56
3.11
-3.78
-9.80
-11.03
-6.36
1.91
9.15
11.28
6.93
-1.76
-10.25
-14.45
-12.84
-7.26
-1.72
0.17
-2.74
-8.40
-12.83
-12.55
-6.76
2.17
9.68
11.73
7.28
-0.94
-8.02
-9.49
-4.06
5.50
13.84
16.07
10.70
0.55
-8.76
-11.97
-7.29
2.55
11.84
15.49
11.72
3.07
-4.92
-7.22
-2.08
7.84
17.00
20.20
15.45
5.19
-5.21
-10.64
-9.19
-3.05
2.81
3.62
-2.25
-12.14
-20.86
-23.52
-18.46
-8.13
2.33
8.00
6.95
1.21
-4.78
-6.66
-2.61
5.44
12.94
15.45
11.12
1.78
-7.85
-12.82
-10.87
-3.75
3.83
7.02
3.63
-4.49
-12.57
-15.81
-12.30
-4.01
4.51
8.72
6.85
0.95
-4.66
-6.01
-1.99
5.07
10.84
11.58
6.57
-1.43
-7.67
-8.31
-2.48
7.02
15.17
17.57
13.15
4.66
-2.85
-4.90
-0.12
8.86
16.82
19.16
14.33
4.76
-4.50
-8.67
-6.09
0.96
7.86
10.10
6.13
-1.90
-9.40
-12.31
-9.48
-3.28
1.83
2.05
-3.40
-11.65
-17.83
-17.97
-11.19
-0.47
9.09
12.86
9.54
1.68
-5.82
-8.43
-4.52
3.66
11.26
13.79
9.58
0.76
-7.81
-11.38
-8.20
-0.58
6.68
8.72
3.79
-5.78
-14.64
-17.66
-12.79
-2.36
8.01
12.72
9.27
-0.09
-9.77
-14.18
-10.86
-2.02
6.84
10.34
6.63
-1.65
-9.11
-10.94
-5.98
2.69
9.54
10.19
3.95
-5.85
-13.71
-15.16
-9.40
0.45
9.24
12.48
9.03
1.45
-5.53
-7.69
-3.63
4.49
12.19
15.34
12.52
5.75
-0.68
-2.88
0.27
6.58
11.85
12.52
7.83
0.19
-6.15
-7.72
-3.88
2.84
8.23
8.81
3.85
-4.12
-10.74
-12.39
-8.27
-0.82
5.57
7.03
2.69
-4.83
-10.90
-11.43
-5.41
4.32
12.64
14.98
10.19
1.10
-7.14
-9.87
-5.60
3.03
11.07
14.08
10.65
3.07
-3.88
-6.11
-2.47
4.43
9.73
9.27
1.98
-9.19
-19.00
-22.63
-18.45
-8.86
1.02
6.18
4.59
-1.83
-8.43
-10.61
-6.57
1.63
9.38
12.15
8.31
-0.07
-8.32
-12.06
-9.47
-2.23
5.56
9.99
9.47
5.42
1.17
-0.24
2.11
6.50
9.56
8.54
2.82
-5.27
-11.79
-13.26
-8.67
-0.14
8.08
12.12
10.59
5.32
0.39
-0.70
2.78
8.40
11.91
10.03
2.65
-6.81
-13.33
-13.36
-6.94
2.29
8.76
8.45
1.06
-9.64
-18.17
-20.03
-14.54
-5.02
3.20
5.93
2.42
-4.19
-9.02
-8.49
-2.59
5.18
9.86
8.20
0.58
-9.24
-16.02
-16.31
-10.22
-1.24
5.65
6.80
1.85
-6.07
-12.15
-12.50
-6.37
3.43
11.92
14.87
11.05
2.91
-4.82
-7.77
-4.47
2.93
9.96
12.59
9.54
3.02
-2.74
-4.09
-0.22
6.35
11.14
10.53
4.07
-5.17
-12.15
-12.89
-6.66
3.39
11.96
14.71
10.56
2.37
-4.83
-6.78
-2.38
5.66
12.50
13.80
8.49
-0.68
-8.70
-11.17
-6.70
2.29
10.78
14.17
10.70
2.51
-5.64
-9.16
-6.49
0.23
6.51
8.21
4.17
-3.08
-8.88
-9.62
-4.94
1.88
5.77
3.17
-5.71
-16.70
-23.94
-23.30
-14.78
-2.57
7.24
9.81
4.44
-5.32
-13.63
-15.67
-10.04
0.38
10.36
15.31
13.73
7.96
2.52
1.40
5.52
12.29
17.31
17.12
11.45
3.50
-2.01
-1.70
4.48
13.01
18.91
18.43
11.35
1.04
-7.47
-10.24
-6.82
-0.25
4.75
4.54
-1.38
-10.14
-17.08
-18.55
-14.02
-6.39
-0.19
0.94
-3.57
-10.82
-16.18
-15.98
-9.70
-0.33
7.22
8.90
3.86
-4.85
-12.21
-13.83
-8.56
0.70
8.96
11.82
8.20
0.83
-5.32
-6.02
-0.34
8.80
16.27
18.01
13.18
4.82
-2.00
-3.24
1.78
9.90
16.18
16.47
10.18
0.37
-8.02
-10.90
-7.58
-1.01
4.10
4.24
-0.92
-8.14
-12.91
-11.95
-5.52
2.78
8.29
7.92
2.09
-5.63
-10.70
-10.31
-4.87
2.39
7.27
7.22
2.53
-3.76
-7.79
-7.04
-1.79
4.98
9.33
8.46
2.55
-5.46
-11.27
-11.76
-6.75
0.73
6.27
6.58
1.35
-6.49
-12.49
-13.14
-7.86
0.67
8.09
10.65
7.36
0.55
-5.44
-6.91
-2.86
4.46
10.73
12.15
7.78
0.22
-6.02
-6.92
-1.63
7.06
14.25
15.77
10.79
2.12
-5.43
-8.08
-5.19
0.10
3.23
0.90
-6.67
-15.78
-21.31
-19.78
-11.58
-0.83
6.83
7.54
1.36
-7.79
-14.37
-14.46
-7.95
1.55
9.12
11.27
7.85
2.13
-1.49
-0.12
5.82
13.03
17.10
15.30
8.05
-1.09
-7.43
-7.83
-2.40
5.44
10.93
10.46
3.96
-5.05
-11.45
-11.53
-5.25
3.76
10.13
10.21
4.09
-4.29
-9.72
-8.77
-1.82
6.98
12.26
10.65
2.84
-6.78
-12.68
-11.46
-3.87
5.58
11.25
9.73
1.75
-8.19
-14.56
-13.90
-7.04
1.74
7.34
6.83
1.11
-5.82
-9.23
-6.72
0.54
8.61
13.15
11.92
6.16
-0.12
-2.70
0.42
7.82
15.36
18.36
14.36
4.54
-6.94
-14.95
-16.28
-11.05
-2.77
3.89
5.59
2.09
-3.71
-7.77
-7.19
-2.06
4.84
9.56
9.49
4.86
-1.34
-5.34
-4.70
0.18
6.18
9.41
7.47
0.96
-6.74
-11.38
-10.22
-3.72
4.70
10.39
10.29
4.50
-3.63
-9.39
-9.62
-4.49
2.65
7.14
5.92
-0.62
-8.88
-14.13
-13.36
-7.04
1.13
6.47
6.12
0.60
-6.30
-10.03
-7.73
0.06
9.49
15.59
15.08
8.10
-1.79
-9.59
-11.62
-7.70
-1.03
3.63
3.09
-2.64
-10.03
-14.24
-12.11
-4.21
5.54
12.03
11.94
5.79
-2.42
-7.56
-6.35
0.88
10.30
16.74
16.71
10.39
1.36
-5.36
-6.32
-1.65
5.08
8.88
6.45
-1.90
-12.28
-19.39
-19.48
-12.59
-2.37
5.98
8.80
5.83
0.32
-3.21
-1.79
4.12
10.86
13.75
10.05
0.67
-10.00
-16.66
-16.14
-9.13
0.09
6.14
5.78
-0.14
-7.44
-10.95
-7.71
1.13
10.91
16.16
13.74
4.59
-6.70
-14.38
-14.81
-8.38
0.88
7.79
8.95
4.60
-1.56
-4.90
-2.81
3.80
10.98
13.99
10.36
1.44
-8.25
-13.50
-11.36
-2.98
7.12
13.46
12.80
6.07
-2.40
-7.28
-5.34
2.51
11.93
17.71
16.70
9.80
1.17
-4.20
-3.54
2.18
8.75
11.28
7.15
-2.45
-13.06
-19.47
-18.75
-11.83
-2.93
2.78
2.28
-3.54
-10.64
-14.18
-11.39
-3.25
6.22
12.35
12.50
7.32
0.49
-3.86
-3.38
1.22
6.68
9.29
7.06
1.05
-5.32
-8.41
-6.59
-1.30
3.64
4.29
-0.72
-9.34
-16.99
-19.03
-13.60
-2.71
8.82
15.87
15.81
9.87
2.26
-2.35
-1.44
4.04
10.46
13.66
11.68
5.80
-0.16
-2.39
0.62
6.95
12.29
12.61
6.50
-3.73
-13.31
-17.60
-14.72
-6.59
2.24
7.16
6.09
0.48
-5.50
-7.76
-4.65
2.02
7.97
9.13
4.07
-5.00
-13.44
-16.75
-13.25
-5.12
3.06
6.81
4.38
-2.37
-8.94
-11.14
-7.33
0.61
8.26
11.36
8.04
0.04
-8.50
-13.25
-12.02
-5.97
1.24
5.71
5.46
1.35
-3.40
-5.38
-3.05
2.44
7.82
9.90
7.45
2.00
-3.13
-4.69
-1.59
4.39
9.70
11.01
7.18
0.02
-6.48
-8.57
-4.77
3.28
11.55
15.76
13.65
6.35
-2.40
-8.23
-8.52
-3.80
2.54
6.27
4.98
-0.62
-7.06
-10.23
-7.89
-1.18
5.86
8.58
4.62
-4.55
-14.33
-19.47
-17.13
-8.80
0.59
5.68
3.83
-3.13
-10.22
-12.16
-6.89
3.19
12.54
15.93
11.39
1.39
-8.59
-13.36
-10.81
-2.99
5.50
10.07
8.69
2.85
-3.48
-6.52
-4.80
0.06
4.32
4.38
-0.79
-9.02
-15.87
-17.27
-11.80
-1.57
8.75
14.24
12.70
5.89
-1.73
-5.41
-3.03
3.75
10.33
12.12
7.34
-1.70
-9.91
-12.31
-7.02
3.39
13.29
17.28
13.23
3.44
-6.67
-11.69
-9.37
-1.71
6.29
9.75
6.75
-0.61
-7.49
-9.35
-4.81
3.61
11.07
13.16
8.71
0.33
-6.88
-8.55
-3.40
5.92
14.46
17.62
13.75
4.95
-4.14
-8.94
-7.49
-1.26
5.72
9.33
7.63
1.94
-3.93
-6.10
-2.85
4.25
11.29
14.20
11.31
4.22
-3.06
-6.55
-4.76
0.54
5.37
5.97
1.04
-7.37
-14.96
-17.79
-14.48
-7.05
0.38
3.81
1.82
-3.77
-8.94
-9.86
-5.15
3.19
10.68
13.04
8.63
-0.32
-8.76
-11.74
-7.32
2.27
11.73
15.67
11.73
1.97
-8.36
-13.92
-12.18
-4.99
2.67
5.88
2.74
-4.57
-11.26
-12.93
-8.47
-0.68
5.49
6.04
0.48
-7.88
-13.86
-13.67
-6.98
2.61
10.01
11.41
6.39
-1.95
-8.75
-10.19
-5.63
2.29
9.04
11.00
7.27
0.38
-5.41
-6.69
-2.92
3.27
7.85
7.82
3.14
-3.32
-7.45
-6.34
-0.21
7.75
13.03
12.40
5.90
-3.14
-9.81
-10.31
-4.03
5.81
14.13
16.75
12.74
4.85
-2.10
-4.09
-0.39
6.34
11.53
11.79
6.64
-1.19
-7.55
-9.25
-5.88
-0.14
4.01
3.51
-1.82
-9.10
-14.02
-13.53
-7.77
-0.16
4.53
3.19
-3.58
-11.64
-15.68
-12.33
-2.25
10.04
18.68
19.53
12.49
1.43
-8.03
-11.50
-8.18
-0.92
5.39
6.69
1.93
-6.40
-13.68
-16.07
-12.53
-5.59
0.33
1.45
-2.86
-9.60
-13.96
-12.43
-4.89
5.01
11.91
11.93
5.12
-4.46
-10.99
-10.29
-2.34
8.66
16.72
17.45
10.62
0.20
-7.96
-9.54
-4.03
5.07
12.27
13.55
8.43
0.36
-5.47
-5.32
0.91
9.62
15.61
15.27
8.67
-0.28
-6.36
-6.18
-0.09
7.93
12.75
11.16
3.69
-5.60
-11.69
-11.39
-5.22
3.08
8.53
7.82
1.19
-7.66
-13.73
-13.45
-6.77
2.90
10.27
11.45
6.03
-2.55
-9.09
-9.60
-3.76
5.04
11.60
12.30
7.02
-0.80
-6.34
-6.29
-0.82
6.38
10.53
8.34
0.12
-10.46
-18.21
-19.37
-13.78
-4.74
2.84
5.02
1.01
-6.38
-12.46
-13.40
-8.46
-0.25
6.57
8.29
4.18
-2.87
-8.25
-8.39
-2.88
5.15
10.75
10.19
3.31
-6.31
-13.53
-14.35
-8.18
1.84
10.82
14.86
13.12
7.82
2.87
1.42
3.95
8.07
10.24
8.02
1.77
-5.43
-9.28
-6.91
1.14
11.11
17.67
17.18
9.58
-1.29
-9.88
-12.09
-7.49
0.58
6.95
7.73
2.41
-5.82
-12.13
-12.95
-7.99
-0.45
5.11
5.45
0.70
-5.85
-9.63
-7.71
-0.60
7.98
13.19
12.06
5.30
-3.28
-8.99
-8.98
-3.84
2.86
6.90
5.88
0.48
-5.92
-9.46
-7.92
-1.93
5.47
10.44
10.72
6.68
1.09
-2.55
-2.12
1.92
6.61
8.28
4.86
-2.68
-10.58
-14.45
-11.83
-3.80
5.49
10.86
9.27
1.55
-7.87
-13.78
-13.00
-6.14
2.59
7.96
6.86
0.15
-7.83
-11.93
-9.35
-1.27
7.74
12.27
9.54
0.82
-9.34
-15.62
-14.97
-8.11
0.88
7.18
7.79
3.08
-3.53
-7.65
-6.55
-0.70
6.52
10.80
9.47
2.99
-5.05
-10.14
-9.50
-3.66
3.69
7.96
6.27
-0.60
-8.78
-13.42
-11.65
-4.10
5.48
12.29
13.30
8.86
2.41
-1.54
-0.36
5.42
12.18
15.54
12.92
5.21
-3.88
-9.96
-10.54
-6.36
-0.89
1.86
-0.26
-6.32
-12.91
-16.30
-14.53
-8.62
-2.07
1.23
-0.84
-7.38
-15.02
-19.61
-18.71
-13.02
-6.02
-1.94
-3.25
-9.17
-15.91
-18.95
-15.71
-7.12
2.78
9.16
9.31
4.27
-1.63
-3.36
1.99
13.35
26.31
35.98
40.41
42.61
49.78
69.88
107.35
160.89
223.91
287.77
345.75
395.17
436.70
471.54
498.51
513.51
511.86
491.64
455.59
410.03
361.36
312.18
259.79
198.42
122.69
31.45
-70.75
-175.26
-272.92
-357.50
-426.85
-481.80
-524.79
-558.27
-583.92
-603.08
-617.28
-628.52
-639.17
-651.17
-665.08
-680.19
-694.67
-705.87
-711.02
-707.91
-695.13
-672.13
-641.32
-602.97
-556.78
-502.40
-439.97
-370.41
-295.59
-218.16
-141.14
-67.12
2.41
66.61
125.21
178.41
226.57
269.95
308.55
342.13
370.41
393.34
410.60
421.60
425.68
422.11
410.02
388.71
356.94
314.33
261.66
200.47
132.91
61.67
-10.21
-80.03
-145.50
-204.99
-257.48
-302.39
-339.65
-369.88
-393.86
-412.33
-426.21
-436.22
-442.65
-445.01
-441.48
-429.19
-404.84
-364.56
-304.38
-221.31
-113.81
17.85
171.58
342.34
522.76
702.81
871.13
1021.98
1150.71
1253.85
1329.16
1371.34
1377.11
1345.17
1275.84
1172.03
1034.84
868.35
679.12
475.48
266.79
62.97
-123.12
-283.11
-411.32
-504.36
-560.98
-582.27
-572.07
-535.82
-479.92
-411.69
-339.43
-270.78
-212.29
-168.79
-143.45
-137.58
-150.44
-179.18
-219.32
-265.67
-312.26
-353.22
-383.43
-399.35
-399.30
-383.55
-354.09
-314.49
-269.64
-224.54
-183.51
-149.66
-124.72
-109.02
-101.67
-101.10
-105.44
-113.05
-122.26
-131.38
-138.42
-141.12
-137.22
-124.92
-103.58
-73.99
-38.33
0.37
39.16
75.92
109.72
140.59
168.87
194.31
215.53
230.24
236.15
232.03
218.78
199.63
179.53
164.18
158.81
167.17
190.37
225.83
266.89
303.74
326.16
326.98
304.86
264.73
215.51
166.45
123.90
89.95
63.40
42.17
25.36
14.06
10.45
16.30
31.60
53.84
78.12
97.75
105.89
97.84
73.25
36.78
-3.23
-38.01
-61.62
-72.23
-71.53
-63.02
-50.56
-37.85
-28.21
-24.21
-27.00
-35.66
-47.55
-59.50
-69.27
-76.18
-80.77
-83.66
-84.76
-83.56
-80.40
-77.54
-78.70
-86.86
-101.62
-117.82
-126.56
-118.62
-88.61
-37.66
26.66
93.08
150.85
193.48
220.17
233.72
237.58
233.25
220.34
198.85
171.48
144.01
122.85
111.22
106.54
101.38
87.22
59.44
20.33
-21.28
-53.75
-67.88
-61.16
-39.16
-13.69
1.97
-1.22
-24.13
-59.30
-94.53
-118.71
-126.01
-116.95
-95.90
-67.62
-35.14
-0.79
30.74
51.19
51.04
25.05
-22.26
-75.51
-114.11
-121.71
-94.44
-43.20
11.35
48.13
54.18
28.73
-17.99
-69.80
-110.20
-127.07
-115.54
-78.98
-28.07
21.83
55.24
61.78
39.80
-3.17
-52.84
-93.11
-111.01
-100.36
-63.06
-8.65
47.77
89.55
103.85
86.58
44.47
-6.78
-48.74
-67.91
-61.02
-35.34
-4.40
18.79
27.08
20.79
5.83
-10.28
-21.87
-26.45
-24.36
-17.67
-8.89
-0.59
5.05
6.71
4.55
0.11
-3.96
-5.05
-1.93
4.21
9.80
10.22
2.29
-13.20
-30.83
-42.15
-39.80
-22.06
4.66
27.71
33.99
16.90
-19.26
-60.19
-87.67
-87.99
-58.23
-7.56
46.75
86.48
99.30
82.94
44.93
-1.15
-40.98
-64.36
-67.70
-53.85
-29.87
-3.75
18.20
32.40
37.66
34.13
22.51
4.18
-18.06
-39.54
-54.30
-56.94
-45.23
-21.88
5.79
28.22
37.40
30.46
10.90
-13.03
-32.22
-40.79
-38.42
-29.60
-20.59
-15.63
-14.70
-14.09
-9.26
1.78
16.75
30.04
35.84
31.55
19.30
4.53
-7.45
-14.13
-16.30
-15.87
-13.14
-6.02
8.25
29.64
53.10
69.28
68.73
47.13
8.79
-33.59
-63.78
-69.11
-46.45
-3.74
43.31
77.86
88.45
72.63
36.76
-7.55
-47.59
-72.94
-77.16
-58.61
-20.63
28.39
76.18
109.94
120.76
107.18
75.72
38.10
6.40
-10.71
-9.49
9.30
41.80
81.52
119.69
146.31
152.54
134.37
95.40
46.53
1.76
-27.51
-37.08
-30.85
-17.77
-6.88
-3.68
-9.61
-23.89
-45.63
-74.63
-110.27
-149.61
-186.52
-213.40
-224.00
-216.19
-192.28
-156.97
-114.64
-68.03
-19.03
28.99
69.54
93.85
94.24
68.38
22.27
-30.43
-72.70
-90.34
-77.32
-38.12
14.18
63.13
94.98
103.27
89.85
62.62
31.35
3.85
-15.92
-27.38
-31.43
-29.05
-20.98
-8.67
5.10
16.17
20.32
15.35
2.42
-13.78
-26.82
-31.20
-24.90
-10.43
6.03
17.16
17.36
5.22
-15.77
-38.66
-55.56
-60.32
-50.14
-25.68
9.22
48.31
83.25
104.84
105.86
84.33
45.70
1.46
-35.53
-56.78
-61.31
-54.27
-42.28
-29.07
-14.70
1.58
17.54
27.41
25.47
11.17
-8.69
-23.40
-24.84
-12.83
4.98
18.05
19.46
9.24
-6.52
-19.87
-24.75
-19.10
-4.90
13.22
29.55
39.00
38.82
29.65
15.25
0.80
-9.30
-13.00
-10.80
-4.52
3.83
12.54
19.78
23.53
22.31
16.14
6.96
-2.17
-8.51
-10.83
-9.60
-6.57
-3.80
-3.00
-5.07
-9.65
-15.07
-19.11
-19.98
-17.22
-11.72
-4.69
3.14
11.59
20.18
27.34
30.62
28.42
21.46
13.09
7.39
6.65
9.80
13.55
15.01
13.65
11.07
8.73
6.00
0.25
-10.68
-25.63
-39.41
-45.61
-40.74
-27.13
-12.16
-4.23
-7.77
-20.70
-35.80
-45.09
-44.35
-34.71
-20.90
-7.76
2.26
9.00
12.83
13.26
9.20
0.73
-9.46
-16.54
-16.09
-6.89
7.90
22.31
30.85
31.13
24.40
13.86
2.61
-7.22
-13.65
-14.28
-7.15
7.00
23.34
34.30
33.60
20.50
0.98
-15.19
-20.10
-12.25
2.86
16.34
21.20
15.88
4.25
-7.56
-15.04
-17.08
-14.88
-9.48
-0.14
15.24
37.61
64.10
87.39
98.21
90.07
63.24
25.82
-9.27
-30.11
-31.56
-17.55
1.23
13.15
11.36
-3.43
-24.45
-43.30
-54.09
-55.32
-49.08
-38.56
-26.01
-12.41
1.49
13.83
21.55
21.63
13.13
-1.32
-15.93
-24.40
-23.07
-12.70
2.05
15.19
22.21
21.74
15.38
6.15
-3.20
-10.99
-16.40
-18.85
-17.70
-12.68
-4.41
5.33
13.96
18.89
18.47
12.48
2.24
-9.41
-18.77
-22.43
-18.84
-9.26
2.62
12.21
16.06
13.29
5.53
-4.33
-13.66
-20.70
-24.11
-22.34
-13.64
2.61
24.37
46.56
62.37
66.35
57.12
38.25
16.57
-1.17
-11.22
-14.09
-13.59
-14.11
-17.96
-24.12
-29.23
-29.84
-24.59
-15.05
-4.87
2.03
3.40
-0.37
-6.56
-11.45
-12.12
-7.82
-0.45
6.36
9.01
5.84
-2.12
-11.84
-19.94
-24.26
-24.59
-22.19
-18.60
-14.55
-9.88
-4.25
2.03
7.86
11.66
12.23
9.36
3.99
-2.06
-6.71
-8.15
-5.49
0.71
8.21
13.76
14.48
9.53
0.81
-7.85
-12.52
-11.44
-6.02
-0.22
1.80
-1.87
-9.62
-17.03
-19.32
-14.20
-3.33
8.25
14.73
12.51
2.13
-11.80
-22.68
-24.63
-14.56
6.89
36.04
67.56
95.78
115.49
122.24
113.33
89.02
53.99
17.35
-9.82
-19.33
-10.70
7.21
19.45
12.29
-19.59
-69.60
-121.74
-158.04
-166.08
-143.53
-98.24
-43.93
5.27
39.42
54.56
51.95
36.26
14.05
-7.36
-20.38
-18.17
3.45
43.51
94.50
143.99
178.05
186.56
166.73
123.54
67.12
9.19
-39.69
-71.40
-80.92
-67.50
-36.16
1.85
32.19
43.17
31.18
2.52
-30.18
-55.07
-66.72
-67.62
-64.47
-62.72
-62.91
-61.34
-53.47
-38.08
-19.39
-5.26
-2.76
-13.87
-34.01
-54.08
-65.57
-64.67
-53.39
-37.23
-21.62
-9.17
0.72
9.71
17.98
23.42
22.72
13.95
-1.23
-17.88
-30.07
-33.80
-28.76
-18.07
-6.51
1.36
2.97
-1.72
-10.34
-19.12
-24.37
-23.77
-17.16
-6.34
5.85
16.55
23.75
26.64
25.32
20.14
11.20
-1.66
-17.97
-35.64
-50.30
-56.37
-49.49
-29.22
-0.13
29.71
52.24
62.86
62.13
54.49
45.36
38.52
35.26
34.94
36.39
38.57
40.82
42.65
43.44
42.38
38.26
29.56
15.37
-3.45
-23.37
-38.95
-45.04
-39.37
-24.02
-4.79
11.30
18.95
16.65
6.64
-6.75
-19.43
-28.95
-34.61
-36.51
-34.79
-29.44
-20.91
-10.67
-1.20
4.61
4.43
-2.32
-13.93
-26.73
-36.48
-40.32
-38.03
-31.87
-25.36
-21.54
-21.98
-26.80
-34.95
-44.70
-54.01
-60.98
-64.12
-62.72
-56.99
-48.02
-37.59
-27.89
-21.13
-18.83
-21.19
-26.93
-33.82
-39.56
-42.52
-42.30
-39.60
-35.56
-30.91
-25.09
-15.99
-0.74
22.84
55.07
94.18
137.22
181.71
227.19
274.84
327.33
386.89
453.41
523.70
592.01
651.62
696.44
721.94
725.30
705.32
662.18
597.46
514.28
417.42
312.84
206.98
105.78
13.81
-66.09
-133.01
-187.52
-231.06
-265.22
-291.36
-310.45
-323.22
-330.38
-332.73
-331.28
-327.10
-321.14
-314.07
-306.19
-297.50
-287.86
-277.15
-265.43
-252.93
-240.02
-227.04
-214.26
-201.83
-189.76
-178.01
-166.53
-155.31
-144.39
-133.84
-123.72
-114.11
-105.03
-96.48
-88.44
-80.89
-73.79
-67.14
-60.91
-55.08
-49.66
-44.65
-40.05
-35.88
-32.11
-28.66
-25.54
-22.77
-20.33
-18.18
-16.31
-14.68
-13.26
-12.01
-10.91
-9.96
-9.11
-8.36
-7.69
-7.08
-6.53
-6.02
-5.55
-5.11
-4.72
-4.36
-4.02
-3.70
-3.39
-3.11
-2.84
-2.58
-2.34
-2.11
-1.91
-1.72
-1.53
-1.35
-1.18
-1.00
-0.82
-0.63
-0.44
-0.24
-0.02
0.21
0.46
0.73
1.01
1.33
1.68
2.05
2.46
2.89
3.37
3.88
4.44
5.03
5.68
6.38
7.12
7.92
8.77
9.67
10.64
11.66
12.74
13.89
15.09
16.36
17.70
19.12
20.61
22.19
23.83
25.50
27.20
28.89
30.49
31.86
32.81
33.15
32.67
31.17
28.48
24.49
19.21
12.71
5.23
-2.87
-11.14
-19.08
-26.29
-32.30
-36.76
-39.38
-40.15
-39.20
-36.69
-32.98
-28.48
-23.68
-18.99
-14.65
-10.72
-7.41
-4.78
-2.80
-1.36
-0.34
0.21
0.50
0.79
1.49
2.46
3.68
5.09
6.67
8.28
9.40
9.89
9.77
9.42
8.41
6.56
3.83
0.14
-4.60
-11.01
-19.12
-28.83
-39.50
-51.80
-65.78
-81.27
-97.95
-111.72
-122.77
-131.01
-139.61
-146.53
-151.13
-152.48
-150.06
-143.55
-133.09
-119.45
-102.82
-83.46
-57.50
-28.19
0.86
26.77
47.91
63.50
73.35
78.45
80.01
79.53
77.31
74.24
71.10
68.46
65.53
60.44
51.72
39.43
26.24
16.82
17.16
31.11
58.33
93.26
127.85
154.60
170.38
172.45
160.27
135.30
98.46
56.33
15.61
-17.49
-38.79
-47.72
-47.48
-42.84
-37.70
-33.66
-30.43
-27.23
-23.79
-20.69
-18.82
-19.06
-21.53
-25.96
-31.68
-37.23
-40.18
-37.19
-25.26
-3.54
25.30
55.71
81.12
97.21
102.12
97.36
86.33
72.24
56.77
40.10
22.12
3.14
-14.73
-29.61
-40.45
-47.53
-52.27
-56.33
-61.00
-66.36
-71.54
-75.24
-76.57
-75.21
-71.65
-66.84
-61.80
-57.03
-52.47
-47.35
-40.83
-32.52
-22.56
-11.75
-1.20
7.94
14.79
19.00
20.80
20.72
19.31
17.10
14.56
12.07
10.01
8.84
8.99
10.96
14.72
19.90
25.89
31.92
37.12
40.75
42.12
40.84
37.10
31.00
22.85
13.31
3.26
-6.39
-14.75
-21.10
-24.89
-25.47
-23.13
-18.59
-12.69
-6.43
-0.78
3.68
7.08
10.19
14.64
21.43
30.72
42.10
54.35
65.88
75.74
84.86
92.20
102.31
117.49
135.60
150.03
152.00
134.80
97.58
46.69
-7.17
-52.88
-83.24
-96.70
-93.48
-75.00
-44.75
-9.30
21.66
37.31
30.61
1.83
-39.86
-79.19
-99.80
-93.13
-63.85
-25.53
7.85
29.07
39.05
43.77
49.76
60.06
73.01
83.76
87.78
81.74
63.97
36.24
2.43
-32.05
-62.03
-84.60
-99.42
-107.93
-112.32
-114.07
-113.41
-110.29
-104.91
-98.69
-94.27
-94.30
-99.35
-106.81
-111.48
-108.11
-94.84
-74.68
-54.42
-40.80
-36.32
-37.56
-37.21
-28.77
-10.56
13.03
34.49
47.67
51.12
48.05
43.57
41.19
41.04
40.76
37.83
31.74
24.13
17.79
15.08
16.42
20.23
23.57
23.96
20.08
12.46
3.22
-5.00
-9.94
-10.27
-5.72
2.87
13.35
22.16
24.94
18.19
0.97
-23.85
-50.21
-70.86
-80.60
-78.44
-67.32
-53.31
-41.59
-34.36
-30.66
-27.99
-24.57
-20.26
-16.50
-15.02
-16.61
-20.71
-26.20
-32.09
-38.08
-43.70
-47.43
-46.34
-37.25
-18.46
8.67
39.48
67.69
87.96
98.16
99.68
96.00
90.59
85.15
79.68
73.54
66.69
60.17
55.63
54.15
55.55
58.34
60.49
60.22
56.97
51.57
45.86
41.91
41.15
43.80
48.69
53.83
57.18
57.72
55.58
52.14
49.21
48.32
50.23
55.04
62.40
71.40
80.33
86.20
85.26
74.44
53.13
24.27
-6.27
-31.86
-48.01
-53.95
-52.45
-47.81
-43.44
-40.42
-37.77
-34.11
-29.17
-24.52
-22.54
-25.18
-32.80
-43.99
-56.26
-66.97
-74.78
-79.35
-82.33
-85.48
-90.05
-96.26
-103.65
-111.51
-119.11
-125.59
-128.69
-125.63
-113.68
-91.90
-62.42
-30.14
-1.14
19.87
31.20
34.54
33.17
30.20
27.16
23.97
20.08
15.54
11.33
8.71
8.32
9.51
10.81
10.67
8.14
3.55
-1.82
-6.27
-8.63
-8.67
-7.12
-5.25
-4.15
-4.15
-4.56
-4.00
-1.04
4.95
13.52
23.27
32.48
39.79
44.84
48.32
51.57
55.86
61.49
67.71
73.00
75.98
75.86
72.97
68.61
64.54
62.57
63.91
69.37
78.99
91.58
104.00
111.66
109.81
95.22
70.20
40.62
13.91
-4.16
-11.52
-10.67
-6.49
-3.78
-4.43
-7.79
-12.40
-17.22
-22.62
-29.52
-39.03
-50.40
-62.68
-73.88
-81.70
-84.90
-83.48
-79.89
-75.27
-71.45
-69.74
-70.61
-73.31
-76.45
-78.82
-78.70
-77.30
-75.79
-75.58
-77.49
-81.75
-88.07
-96.08
-105.44
-115.05
-122.65
-124.25
-116.03
-96.12
-66.33
-31.94
0.05
23.66
36.34
39.27
36.29
31.21
26.28
21.92
17.88
14.30
12.24
13.12
17.46
24.65
32.96
40.41
45.56
48.39
50.00
52.00
55.67
61.13
67.57
73.58
77.63
78.66
76.58
72.27
67.58
65.10
66.92
73.55
83.13
91.00
91.13
78.73
52.62
15.22
-26.26
-64.33
-94.38
-113.79
-121.62
-117.90
-103.39
-80.43
-53.49
-28.69
-12.53
-8.70
-16.51
-31.66
-48.60
-62.85
-72.19
-76.45
-76.30
-72.22
-64.59
-53.63
-40.07
-25.05
-9.75
4.70
17.68
29.06
39.23
48.19
55.81
61.83
65.98
68.20
68.77
68.40
65.89
62.95
60.61
59.16
58.33
57.58
56.40
54.54
52.03
49.14
46.45
43.98
41.59
39.06
36.30
33.47
30.77
28.65
27.32
26.92
26.95
26.80
26.02
24.63
23.16
22.19
22.38
23.88
26.41
29.10
31.05
31.84
31.61
31.65
31.80
32.02
32.12
32.19
32.77
34.48
36.97
38.19
34.69
22.51
-0.09
-31.34
-66.11
-97.83
-120.67
-131.91
-132.54
-124.01
-108.13
-86.15
-59.39
-29.82
-0.35
25.50
44.34
54.20
54.86
47.39
33.90
16.62
-2.98
-24.31
-47.14
-70.18
-89.75
-99.73
-93.68
-68.03
-25.20
25.95
73.04
104.79
115.41
106.31
84.29
57.67
32.93
12.82
-2.69
-14.25
-21.40
-22.39
-15.72
-1.90
15.75
32.20
42.49
44.05
37.33
25.27
11.65
-0.60
-10.49
-18.72
-26.53
-34.69
-42.93
-50.29
-55.86
-59.29
-60.94
-61.56
-61.87
-62.18
-62.44
-62.26
-61.15
-58.65
-54.49
-48.70
-41.65
-34.04
-26.75
-20.63
-16.28
-13.87
-13.02
-12.91
-12.47
-10.75
-7.29
-2.23
3.70
9.52
14.36
17.67
19.36
19.65
19.00
18.10
17.78
18.82
21.68
26.14
31.31
35.84
38.53
38.81
37.06
34.34
31.88
30.54
30.43
31.02
31.44
30.91
29.10
26.23
22.93
19.98
18.00
17.16
17.24
17.72
18.12
18.24
18.18
18.22
18.53
18.88
18.59
16.84
13.04
7.28
0.48
-5.97
-10.70
-12.92
-12.65
-10.57
-7.65
-4.71
-2.18
-0.12
1.63
3.22
4.62
5.67
6.13
5.84
4.84
3.38
1.93
1.03
1.09
2.21
4.22
6.80
9.71
12.89
16.40
20.36
24.81
29.68
34.86
40.14
45.33
50.23
54.77
59.04
63.22
67.33
71.10
73.82
74.62
72.79
68.06
60.60
50.59
37.78
21.40
0.55
-24.95
-53.91
-83.75
-111.39
-134.36
-151.80
-164.48
-174.05
-181.81
-187.91
-191.37
-190.76
-185.13
-174.58
-160.20
-143.64
-126.69
-111.07
-98.43
-90.16
-86.99
-88.58
-93.19
-98.03
-99.94
-96.37
-86.07
-69.34
-47.81
-23.75
0.41
22.74
41.98
57.65
70.04
79.92
88.25
95.91
103.50
111.29
119.18
126.64
132.70
136.18
136.04
131.82
123.92
113.58
102.42
91.91
82.73
74.71
66.93
58.29
48.05
36.16
23.29
10.52
-1.10
-10.93
-18.89
-25.28
-30.57
-35.07
-38.81
-41.58
-43.04
-42.87
-40.90
-37.16
-31.96
-25.91
-19.86
-14.79
-11.60
-10.93
-12.98
-17.49
-23.71
-30.45
-36.00
-38.32
-35.46
-26.32
-11.35
7.13
25.45
39.60
46.65
45.58
37.52
25.05
11.14
-1.85
-12.57
-20.71
-26.45
-30.09
-31.79
-31.62
-29.71
-26.30
-21.75
-16.53
-11.25
-6.60
-3.14
-1.10
-0.12
0.65
2.14
4.96
8.95
13.34
17.22
20.17
22.49
24.98
28.39
33.02
38.51
44.02
48.42
50.50
49.14
43.59
33.91
21.12
7.26
-5.21
-14.17
-18.34
-17.23
-10.70
1.36
18.89
40.70
64.08
84.87
98.40
101.04
91.69
72.37
47.64
23.04
2.65
-11.89
-21.59
-29.19
-37.47
-47.71
-58.98
-68.58
-73.31
-71.96
-65.25
-55.62
-46.23
-39.60
-36.80
-37.10
-38.44
-38.33
-36.25
-32.80
-29.34
-27.34
-27.71
-30.74
-36.56
-45.69
-54.31
-60.24
-60.98
-53.70
-36.42
-9.50
23.39
55.92
80.73
97.06
106.21
111.28
115.23
118.74
119.01
110.91
88.77
50.12
-2.32
-62.04
-119.61
-165.96
-195.53
-207.86
-207.06
-199.47
-190.78
-183.95
-179.76
-176.75
-172.59
-165.23
-153.49
-137.08
-116.41
-92.43
-66.64
-41.73
-20.65
-5.85
1.53
2.00
-2.43
-9.42
-17.39
-25.90
-35.82
-48.03
-62.29
-76.96
-89.35
-96.57
-96.54
-88.48
-72.84
-50.88
-24.00
6.80
41.23
79.23
119.92
160.43
195.72
219.90
228.60
221.24
201.77
177.20
154.64
138.49
129.22
124.52
121.68
119.54
118.97
121.56
127.76
135.97
142.95
145.36
141.40
131.42
117.58
102.89
89.91
79.92
72.72
67.13
61.82
55.87
49.26
42.76
37.52
34.59
34.54
37.34
42.42
48.85
55.62
61.89
66.99
70.40
71.67
70.41
66.48
59.98
51.20
40.58
28.74
16.30
3.90
-7.83
-18.37
-27.12
-34.03
-39.90
-46.17
-54.29
-64.99
-77.82
-91.16
-102.77
-109.77
-110.25
-103.84
-91.55
-74.98
-55.74
-35.42
-15.62
1.93
16.49
27.30
33.47
34.49
31.17
25.82
21.69
21.84
28.07
41.65
61.60
84.48
105.73
121.31
128.77
127.04
115.85
87.90
42.18
-14.42
-69.92
-114.21
-143.18
-157.86
-161.91
-159.54
-154.26
-147.09
-138.32
-128.74
-120.02
-114.10
-112.31
-114.49
-118.28
-119.61
-114.25
-99.60
-77.59
-54.05
-35.64
-26.49
-26.87
-34.08
-44.69
-55.51
-65.15
-72.83
-76.91
-74.32
-61.79
-38.00
-4.86
33.22
72.47
107.20
133.54
150.20
158.09
159.13
155.03
146.53
133.52
116.38
95.19
71.45
48.89
33.23
30.33
43.55
72.09
111.03
153.79
192.23
219.39
230.93
225.49
204.34
170.20
126.60
72.54
16.04
-31.04
-60.10
-70.27
-66.28
-53.73
-37.20
-20.08
-4.71
8.21
16.33
19.76
19.36
16.29
12.16
7.70
2.28
-5.84
-17.96
-35.87
-61.40
-90.84
-121.73
-152.22
-181.60
-210.01
-237.35
-261.74
-280.63
-291.78
-294.45
-289.91
-279.23
-262.25
-237.37
-202.84
-159.12
-111.11
-67.68
-38.04
-26.63
-28.91
-33.08
-26.21
-0.98
40.99
90.47
135.28
165.70
177.68
173.03
155.88
129.02
92.92
47.64
-1.44
-42.57
-64.80
-65.84
-51.38
-29.89
-8.50
8.60
20.23
27.36
31.39
33.01
32.41
30.03
26.44
22.01
17.01
12.19
9.20
9.79
14.72
23.51
34.67
46.05
55.52
61.73
64.75
65.94
66.99
68.97
72.13
76.14
79.99
82.02
80.21
73.03
60.37
43.77
26.00
10.13
-1.59
-8.39
-11.01
-10.89
-9.30
-6.77
-3.37
0.66
4.68
7.83
9.52
9.85
9.51
9.53
10.81
13.63
17.57
21.71
25.01
26.71
26.52
24.85
22.22
19.21
16.12
12.84
9.06
4.48
-1.03
-7.26
-13.36
-19.00
-23.65
-27.04
-29.13
-30.16
-30.38
-30.13
-29.62
-28.90
-28.01
-26.88
-25.48
-23.86
-22.33
-20.81
-19.39
-18.18
-17.22
-16.54
-16.03
-15.60
-15.14
-14.63
-14.05
-13.52
-13.16
-13.09
-13.38
-13.93
-14.61
-15.20
-15.61
-15.80
-15.94
-16.32
-17.20
-18.69
-20.66
-22.83
-24.82
-26.38
-27.51
-28.51
-29.87
-32.00
-35.05
-38.75
-42.60
-46.02
-48.63
-50.41
-51.59
-52.47
-53.17
-53.91
-54.34
-54.50
-54.51
-54.08
-52.20
-47.10
-36.90
-20.88
-0.25
21.87
41.48
55.36
62.53
64.30
63.44
62.52
62.68
63.29
62.75
59.76
54.11
46.99
40.29
35.68
33.93
34.48
35.85
36.82
37.57
39.71
45.07
53.85
63.56
70.28
70.57
63.71
52.36
41.00
32.94
27.92
22.15
10.56
-8.89
-33.81
-58.13
-75.46
-82.15
-78.89
-69.39
-56.33
-43.75
-32.38
-21.20
-9.63
1.22
8.97
11.61
9.01
2.99
-3.71
-8.72
-11.49
-13.40
-16.88
-24.17
-36.39
-52.83
-70.94
-86.53
-94.10
-88.66
-67.54
-31.69
13.85
60.96
100.77
125.88
132.72
122.74
100.96
73.92
47.46
25.55
10.54
5.85
14.80
40.36
83.82
142.57
209.14
272.24
320.63
347.66
353.83
345.94
333.39
323.56
318.60
315.34
307.84
290.79
261.78
221.70
173.34
119.89
63.66
5.71
-53.55
-113.46
-172.18
-226.28
-271.63
-304.79
-324.46
-332.19
-331.91
-328.38
-325.25
-323.85
-323.23
-321.22
-315.81
-306.07
-292.25
-275.32
-256.31
-235.83
-214.06
-191.03
-166.96
-142.54
-118.76
-96.65
-76.90
-59.68
-44.61
-31.16
-19.00
-8.19
0.84
7.57
11.78
13.77
14.31
14.40
14.93
16.47
19.16
22.78
26.91
31.08
34.86
37.87
39.78
40.38
39.55
37.27
33.71
29.17
24.07
18.82
13.79
9.24
5.27
1.86
-1.14
-3.97
-6.86
-9.93
-13.08
-15.96
-18.00
-18.57
-17.22
-13.82
-8.65
-2.30
4.44
10.78
16.16
20.25
22.93
24.31
24.58
24.02
22.96
21.75
20.75
20.18
20.13
20.48
21.00
21.47
21.76
21.86
21.88
21.91
21.94
21.84
21.43
20.55
19.12
17.15
14.73
12.00
9.12
6.34
3.84
1.80
0.15
-1.35
-3.09
-5.37
-8.24
-11.38
-14.13
-15.72
-15.62
-13.66
-10.11
-5.56
-0.68
3.90
7.71
10.48
12.12
12.71
12.53
11.91
11.23
10.78
10.70
10.95
11.38
11.84
12.17
12.30
12.21
11.91
11.46
10.99
10.66
10.67
11.14
12.00
13.01
13.77
13.91
13.24
11.75
9.73
7.53
5.47
3.73
2.31
1.13
0.02
-1.18
-2.68
-4.52
-6.63
-8.68
-10.12
-10.38
-9.04
-6.06
-1.76
3.24
8.28
12.76
16.37
18.96
20.57
21.36
21.55
21.36
20.98
20.52
20.00
19.38
18.62
17.71
16.74
15.85
15.21
14.96
15.20
15.91
16.97
18.11
19.03
19.43
19.10
18.05
16.41
14.43
12.31
10.18
8.06
5.87
3.55
1.10
-1.42
-3.87
-6.13
-8.19
-10.13
-12.17
-14.53
-17.34
-20.59
-24.01
-27.18
-29.48
-30.37
-29.43
-26.59
-22.15
-16.74
-11.08
-5.83
-1.43
1.97
4.41
6.06
7.11
7.76
8.21
8.60
9.05
9.59
10.20
10.79
11.35
11.85
12.34
12.82
13.23
13.48
13.42
12.96
12.07
10.83
9.38
7.89
6.51
5.29
4.18
3.10
1.92
0.58
-0.87
-2.31
-3.60
-4.61
-5.33
-5.84
-6.36
-7.12
-8.38
-10.23
-12.54
-14.89
-16.66
-17.17
-15.94
-12.85
-8.22
-2.72
2.83
7.76
11.67
14.49
16.36
17.51
18.07
18.07
17.44
16.16
14.38
12.39
10.64
9.54
9.34
10.02
11.35
12.96
14.46
15.53
15.88
15.32
13.72
11.11
7.69
3.78
-0.20
-3.93
-7.21
-9.99
-12.29
-14.07
-15.27
-15.84
-15.81
-15.42
-15.08
-15.32
-16.59
-19.18
-23.07
-27.95
-33.22
-38.07
-41.73
-43.56
-43.32
-41.15
-37.52
-33.07
-28.44
-24.12
-20.49
-17.90
-16.92
-18.31
-22.88
-31.22
-43.29
-58.23
-74.44
-89.77
-101.93
-108.70
-108.32
-99.97
-84.12
-62.74
-38.82
-15.36
5.78
24.50
42.07
59.90
78.04
94.61
106.36
110.25
105.01
91.74
73.32
52.92
32.79
13.74
-4.29
-21.53
-37.75
-52.32
-64.62
-74.40
-81.68
-86.29
-87.52
-84.01
-74.43
-58.26
-36.40
-10.92
15.78
41.87
66.81
91.14
115.91
141.80
168.79
196.33
223.75
250.52
276.35
300.96
324.07
345.41
365.00
382.93
398.97
411.86
419.10
417.35
403.60
376.32
335.99
284.75
225.51
161.24
94.86
29.67
-30.47
-81.61
-121.06
-148.54
-166.57
-179.49
-191.54
-205.14
-220.12
-234.32
-245.01
-250.33
-249.83
-244.24
-234.76
-222.41
-207.91
-191.93
-175.42
-159.61
-145.69
-134.34
-125.36
-117.78
-110.25
-101.80
-92.26
-82.23
-72.68
-64.32
-57.25
-51.01
-44.99
-38.82
-32.60
-26.72
-21.68
-17.75
-15.01
-13.28
-12.35
-12.04
-12.25
-12.88
-13.94
-15.42
-17.33
-19.58
-22.02
-24.35
-26.35
-27.88
-29.01
-30.02
-31.34
-33.43
-36.54
-40.56
-44.92
-48.74
-50.98
-50.94
-48.37
-43.59
-37.26
-30.20
-23.11
-16.50
-10.62
-5.40
-0.26
6.03
15.15
28.88
48.41
73.80
103.89
136.51
169.25
200.06
227.67
251.57
271.59
287.50
298.65
304.02
302.40
292.82
274.90
249.07
216.55
179.14
138.97
98.05
58.06
20.17
-14.96
-47.06
-76.08
-101.94
-124.39
-143.03
-157.54
-167.98
-175.01
-179.94
-184.41
-189.83
-196.99
-206.00
-216.51
-228.01
-240.03
-251.92
-262.55
-270.21
-272.86
-268.88
-257.62
-239.78
-217.14
-191.97
-166.45
-142.25
-120.41
-101.35
-84.92
-70.57
-57.53
-45.29
-33.87
-23.90
-16.27
-11.56
-9.65
-9.67
-10.34
-10.56
-9.75
-7.92
-5.48
-2.97
-0.81
0.69
1.38
1.19
0.19
-1.45
-3.48
-5.57
-7.32
-8.14
-7.36
-4.35
1.09
8.36
16.07
22.45
25.99
26.12
23.39
19.16
14.99
11.90
10.05
8.88
7.57
5.51
2.62
-0.81
-4.40
-7.87
-11.16
-14.33
-17.43
-20.59
-24.00
-28.17
-33.73
-41.34
-51.32
-63.35
-76.22
-88.00
-96.55
-100.10
-98.07
-91.30
-81.91
-72.47
-65.08
-60.45
-57.72
-54.95
-50.16
-42.19
-31.08
-17.87
-3.84
10.08
23.71
37.39
51.50
66.02
80.23
92.89
102.69
108.81
111.25
110.77
108.40
104.91
100.35
94.16
85.74
75.21
63.81
53.74
47.26
45.55
48.10
52.67
56.30
56.48
52.17
44.04
33.93
24.04
16.10
11.04
8.90
9.03
10.43
12.04
13.18
13.88
15.06
18.36
25.69
38.32
56.01
76.35
94.73
105.44
103.70
87.68
59.74
26.24
-4.25
-23.82
-27.75
-15.87
7.91
37.46
66.71
91.48
109.98
122.32
129.42
132.02
130.20
123.60
111.97
95.75
76.34
55.59
35.10
15.67
-2.65
-20.10
-36.43
-50.64
-61.16
-66.36
-65.17
-57.35
-43.60
-25.46
-5.34
13.60
27.85
34.31
31.45
20.14
3.77
-12.69
-24.27
-27.63
-21.85
-8.17
10.98
33.08
55.98
77.73
96.05
108.22
111.63
104.77
88.17
64.47
37.63
11.53
-11.20
-29.65
-44.33
-56.52
-67.53
-78.40
-89.82
-102.17
-115.48
-129.34
-142.87
-154.80
-163.72
-168.43
-168.17
-162.68
-152.08
-136.91
-118.00
-96.60
-74.44
-53.51
-35.66
-22.14
-13.18
-8.01
-5.23
-3.42
-1.63
0.46
2.84
5.53
8.89
13.43
19.44
26.51
33.68
39.62
43.26
44.13
42.45
38.67
33.09
25.78
16.90
7.27
-1.50
-7.41
-9.03
-6.36
-0.98
4.56
7.90
7.74
3.96
-2.94
-12.69
-25.43
-41.24
-59.39
-77.74
-93.16
-102.55
-103.96
-97.18
-83.44
-64.62
-42.57
-18.96
4.49
25.56
41.67
50.40
50.39
42.00
27.29
9.27
-9.23
-26.55
-42.55
-58.27
-74.99
-93.35
-112.97
-132.70
-151.28
-167.96
-182.41
-194.10
-201.70
-202.93
-195.41
-178.04
-151.81
-119.63
-85.04
-50.83
-18.48
11.35
37.62
58.25
70.64
73.07
66.24
53.59
40.25
30.99
28.47
32.76
42.16
54.69
69.47
87.03
108.93
136.80
171.42
212.25
257.37
303.93
348.79
389.23
423.44
450.82
471.77
487.24
497.96
503.75
503.24
494.17
474.39
443.02
401.43
353.39
304.14
258.80
220.61
190.15
165.70
144.55
124.43
104.27
83.89
63.20
41.39
17.08
-10.83
-42.13
-74.84
-105.81
-132.07
-152.07
-166.18
-176.27
-184.55
-192.58
-200.80
-208.69
-215.30
-219.87
-222.07
-222.16
-220.86
-218.83
-216.29
-212.64
-206.37
-195.60
-178.83
-155.71
-127.25
-95.40
-62.05
-28.24
6.23
42.13
79.98
119.02
157.03
190.72
216.89
233.26
239.01
234.35
219.98
196.53
164.49
124.66
78.49
28.06
-24.49
-77.66
-130.90
-183.98
-235.83
-283.35
-321.45
-344.48
-348.67
-334.23
-305.75
-270.62
-236.21
-207.28
-185.06
-168.07
-154.02
-141.26
-129.35
-118.28
-107.79
-97.10
-85.49
-73.23
-61.76
-53.21
-49.27
-50.47
-56.09
-64.71
-74.77
-84.83
-93.39
-98.74
-99.22
-93.80
-82.56
-66.65
-47.86
-27.80
-7.65
11.70
29.24
43.62
53.55
58.56
59.54
58.59
58.31
60.78
66.80
75.85
86.48
97.08
106.44
114.01
119.98
125.15
130.74
138.01
147.73
159.69
172.49
183.80
191.19
193.11
189.76
183.11
176.39
172.88
174.63
181.67
192.09
202.76
210.37
212.31
207.03
194.10
173.98
147.98
118.17
87.18
57.59
31.16
8.09
-13.23
-35.63
-62.00
-94.04
-131.34
-171.47
-210.67
-245.15
-272.18
-290.72
-301.27
-305.34
-304.57
-300.21
-292.95
-282.97
-270.03
-253.92
-234.47
-211.59
-185.34
-156.20
-125.16
-93.63
-62.92
-33.78
-6.29
20.22
46.92
74.98
104.98
136.50
167.82
196.71
221.19
239.59
251.01
255.42
253.33
245.44
232.42
214.33
191.71
165.95
137.84
107.75
76.12
43.45
10.27
-23.07
-57.59
-93.65
-129.74
-165.22
-199.55
-231.57
-260.08
-284.45
-304.70
-323.12
-340.72
-355.66
-368.02
-378.71
-387.87
-394.74
-397.81
-395.18
-387.29
-373.25
-349.48
-315.99
-275.15
-229.55
-181.88
-134.75
-76.35
-8.79
46.03
88.10
125.03
160.24
195.09
228.92
259.64
284.78
300.23
305.04
303.13
296.61
286.30
273.28
258.62
243.24
227.80
210.76
191.57
172.23
152.79
132.80
113.07
95.41
81.87
73.94
70.74
70.99
74.32
79.05
83.51
87.26
90.73
94.53
98.69
101.95
103.06
101.92
98.61
93.78
88.67
84.31
80.95
77.95
74.06
68.21
60.01
49.13
35.14
17.58
-3.77
-28.41
-54.68
-79.99
-101.45
-116.77
-124.94
-126.22
-121.82
-113.25
-101.82
-88.59
-74.41
-60.18
-46.77
-34.96
-25.22
-17.72
-12.34
-8.82
-6.74
-5.70
-5.37
-5.49
-5.81
-6.02
-5.56
-3.67
0.36
6.94
15.96
26.85
38.73
50.61
61.64
71.11
78.47
83.34
85.48
84.82
81.46
75.82
68.66
60.99
53.95
48.40
44.66
42.46
41.06
39.72
38.01
35.96
33.86
31.86
29.85
27.40
24.04
19.50
13.77
6.89
-1.19
-10.75
-22.09
-35.25
-49.89
-65.31
-80.79
-95.93
-110.71
-125.31
-139.63
-153.00
-164.13
-171.63
-174.55
-172.84
-167.39
-159.58
-150.73
-141.61
-132.33
-122.60
-112.19
-101.07
-89.79
-79.23
-70.04
-62.25
-55.20
-47.80
-39.29
-29.88
-20.48
-12.45
-6.50
-2.04
2.67
9.53
19.51
31.85
44.15
54.24
60.66
63.48
64.06
64.06
64.66
66.16
68.25
69.83
71.71
74.39
78.47
84.38
92.11
101.32
111.41
121.75
130.09
137.33
142.69
145.43
145.11
141.79
136.20
129.53
123.11
115.61
110.39
107.92
108.37
111.64
117.13
123.44
128.33
129.15
120.33
104.05
80.79
52.38
21.01
-11.89
-46.24
-83.08
-102.98
-130.79
-161.45
-192.33
-220.46
-243.52
-260.53
-272.00
-279.43
-284.70
-292.50
-299.99
-306.47
-310.22
-309.11
-301.21
-285.44
-261.84
-231.36
-197.98
-160.68
-120.92
-80.09
-39.41
0.07
37.62
72.74
104.81
131.23
152.37
167.29
176.23
181.03
184.71
190.34
199.67
212.34
225.25
235.87
241.19
239.34
229.92
213.59
191.50
164.98
135.31
103.55
71.25
39.54
9.34
-18.54
-43.38
-64.45
-81.25
-93.62
-102.01
-107.30
-110.46
-112.16
-112.39
-110.61
-106.09
-98.49
-88.31
-77.03
-66.74
-59.32
-55.73
-55.53
-57.03
-57.95
-56.35
-51.40
-43.49
-33.88
-23.88
-14.23
-4.89
4.65
14.78
25.68
37.34
49.83
63.39
78.09
93.42
107.99
119.70
126.46
127.10
121.86
112.28
100.49
88.19
76.13
63.99
50.83
35.70
18.38
-0.47
-19.50
-37.11
-52.06
-63.79
-72.53
-78.99
-84.11
-88.33
-91.37
-92.59
-91.40
-87.77
-82.31
-76.09
-70.18
-65.54
-62.19
-59.44
-56.54
-53.34
-50.45
-48.63
-48.29
-49.21
-51.33
-53.90
-56.15
-57.97
-60.05
-63.56
-69.04
-76.12
-84.01
-93.02
-102.65
-112.07
-120.51
-127.69
-134.04
-139.46
-143.22
-144.40
-143.39
-139.27
-130.54
-116.03
-95.55
-70.25
-41.04
-8.36
34.18
83.65
131.09
167.76
191.18
207.44
221.10
234.08
247.03
260.70
270.01
274.06
274.36
273.38
272.82
272.52
271.52
268.54
262.26
250.85
235.09
217.39
200.74
187.23
177.05
169.27
162.16
153.61
140.90
123.16
101.00
76.23
51.00
26.92
5.08
-14.31
-31.95
-49.39
-67.40
-85.78
-103.50
-119.22
-132.12
-142.07
-149.56
-155.36
-160.03
-163.22
-164.15
-162.34
-158.21
-153.20
-148.99
-146.57
-145.73
-145.26
-143.62
-139.87
-134.14
-127.34
-120.49
-114.11
-108.15
-102.29
-96.41
-90.90
-86.41
-83.53
-82.33
-82.33
-82.68
-82.46
-81.08
-78.29
-74.16
-68.93
-62.85
-56.19
-49.22
-42.27
-35.67
-29.62
-24.02
-18.43
-12.13
-4.44
5.01
15.97
27.63
38.84
48.47
55.84
60.85
63.92
65.71
66.93
68.13
69.79
72.28
75.88
80.67
86.47
92.73
98.73
103.82
107.58
110.08
111.72
112.95
114.00
114.54
113.69
110.32
103.46
92.66
78.12
60.58
41.12
21.00
1.42
-16.68
-32.84
-47.19
-60.15
-71.97
-82.23
-89.73
-93.03
-91.39
-85.49
-77.54
-70.51
-66.84
-67.45
-71.50
-77.06
-82.10
-85.30
-86.23
-85.14
-82.56
-79.03
-75.08
-71.16
-67.65
-64.63
-61.84
-58.71
-54.72
-49.77
-44.40
-39.85
-37.64
-39.13
-44.97
-54.86
-67.58
-81.35
-94.34
-105.18
-113.28
-119.02
-123.65
-128.98
-136.89
-148.56
-163.99
-181.48
-197.49
-207.05
-204.83
-186.95
-152.65
-105.31
-51.67
0.26
44.08
77.29
101.86
122.95
146.12
174.52
207.59
241.44
270.87
291.55
301.50
301.30
293.22
280.22
265.26
251.08
240.19
234.52
234.85
240.07
247.20
252.34
252.27
245.83
234.16
219.67
204.43
189.12
172.90
154.29
132.33
107.14
79.94
52.40
26.16
2.50
-17.78
-34.49
-48.17
-60.13
-72.27
-86.30
-103.03
-121.72
-140.26
-155.73
-165.49
-168.08
-163.67
-154.07
-142.13
-131.04
-123.47
-120.97
-123.61
-130.10
-138.25
-145.58
-150.04
-150.51
-146.95
-140.27
-131.94
-123.47
-115.92
-109.67
-104.34
-99.10
-93.01
-85.42
-76.28
-66.01
-55.18
-44.21
-33.21
-22.12
-11.18
-1.00
7.62
14.18
18.88
22.60
26.44
30.98
36.02
40.65
43.89
45.20
44.74
43.13
41.04
38.80
36.32
33.33
29.74
25.87
22.41
20.18
19.67
20.77
22.68
24.19
24.13
21.77
17.20
11.28
5.16
-0.14
-4.24
-7.39
-10.11
-12.80
-15.40
-17.42
-18.38
-18.32
-17.97
-18.67
-21.89
-28.69
-39.36
-53.45
-70.00
-87.78
-105.50
-121.78
-135.36
-145.37
-151.76
-155.60
-158.85
-163.63
-171.34
-181.85
-193.61
-204.44
-212.80
-218.57
-222.91
-227.06
-230.94
-232.50
-228.44
-216.00
-194.82
-167.48
-138.62
-112.92
-93.16
-79.48
-69.68
-60.42
-48.34
-30.66
-5.36
28.40
69.54
114.70
158.63
195.80
222.44
238.11
245.71
250.03
255.56
264.92
278.43
294.95
313.02
331.43
349.06
364.38
375.33
379.74
376.42
365.99
350.87
334.38
319.45
307.63
298.72
291.18
283.19
273.72
263.02
252.42
243.50
237.04
232.46
228.02
221.78
212.75
201.51
189.97
180.38
174.16
171.60
172.30
176.14
183.86
196.69
215.00
236.83
257.67
271.88
274.98
265.74
246.33
220.69
192.16
162.28
131.61
101.62
76.06
59.99
56.71
64.57
76.31
81.70
72.43
46.28
7.92
-33.93
-71.23
-100.13
-121.61
-139.15
-155.91
-173.14
-190.78
-209.20
-230.31
-256.90
-290.43
-329.10
-367.27
-397.43
-413.28
-412.28
-396.39
-370.72
-341.08
-311.83
-285.18
-261.68
-241.36
-224.25
-210.22
-198.49
-187.55
-175.87
-162.74
-148.78
-135.43
-124.01
-114.80
-107.06
-99.90
-93.18
-87.88
-85.39
-86.46
-90.40
-95.27
-98.83
-99.70
-97.71
-93.44
-87.59
-80.53
-72.58
-64.42
-57.02
-51.20
-47.12
-44.23
-41.81
-39.67
-38.21
-37.75
-37.61
-35.86
-30.11
-19.11
-3.89
12.47
26.41
35.82
41.09
44.47
48.45
54.15
60.83
66.62
69.75
69.49
66.21
60.78
53.85
45.61
36.01
25.23
13.87
2.59
-8.32
-19.10
-30.09
-41.09
-51.01
-58.18
-61.27
-60.13
-55.92
-50.39
-44.82
-39.38
-33.40
-26.29
-18.24
-10.25
-3.36
2.08
6.38
9.76
11.37
9.35
2.02
-10.31
-24.52
-35.39
-37.96
-30.03
-13.27
7.53
27.04
41.83
51.51
58.06
63.77
69.38
73.41
73.05
65.93
51.79
32.87
13.14
-3.41
-14.39
-19.75
-21.34
-21.63
-22.50
-24.65
-27.84
-31.70
-36.19
-41.57
-47.92
-54.66
-60.62
-64.56
-65.97
-65.41
-64.25
-63.93
-65.30
-68.45
-73.01
-78.66
-85.21
-92.41
-99.57
-105.43
-108.46
-107.41
-101.91
-92.70
-81.35
-69.73
-59.36
-50.99
-44.55
-39.37
-34.61
-29.66
-24.42
-19.27
-14.87
-11.73
-9.87
-8.67
-7.19
-4.53
-0.21
5.73
12.93
21.09
30.07
40.00
51.02
63.16
76.29
90.11
104.17
117.73
129.78
139.24
145.39
148.26
148.73
148.02
147.04
145.65
142.45
135.23
121.89
101.56
75.25
45.81
17.13
-7.21
-25.23
-37.15
-45.00
-51.61
-59.25
-68.81
-79.86
-91.39
-102.73
-114.00
-125.90
-138.94
-153.03
-167.50
-181.68
-195.45
-209.29
-223.67
-238.28
-251.45
-260.44
-262.60
-256.54
-242.95
-224.28
-203.46
-182.27
-160.42
-135.88
-106.22
-70.25
-28.86
15.08
57.82
96.07
127.97
153.37
173.29
188.90
200.60
207.92
210.02
206.68
198.90
188.78
178.80
170.90
166.14
164.94
167.76
175.26
187.89
204.87
223.57
240.08
250.79
254.13
251.18
244.89
238.21
232.67
228.06
223.26
217.31
209.85
200.87
190.31
177.88
163.36
146.80
128.60
109.07
88.18
65.67
41.75
17.67
-4.29
-21.63
-32.69
-37.31
-36.84
-33.27
-28.51
-23.75
-19.48
-15.89
-13.14
-11.26
-9.82
-7.67
-3.14
5.37
18.68
36.28
56.36
76.56
95.14
111.67
127.14
143.14
160.70
179.60
198.39
215.23
228.77
238.59
244.88
247.83
247.20
242.40
233.00
219.03
201.00
179.42
154.23
124.67
89.65
48.71
2.65
-46.29
-94.81
-139.50
-177.75
-208.36
-231.65
-249.01
-262.08
-272.23
-279.96
-285.03
-286.83
-284.95
-279.64
-271.96
-263.41
-255.42
-248.88
-243.88
-239.86
-235.95
-231.34
-225.61
-218.83
-211.50
-204.30
-197.73
-191.85
-186.15
-179.74
-171.84
-162.28
-151.81
-142.00
-134.61
-130.84
-130.77
-133.32
-136.70
-139.05
-139.01
-136.05
-130.65
-124.10
-118.16
-114.43
-113.70
-115.52
-118.25
-119.68
-117.93
-112.37
-103.75
-93.95
-85.14
-78.91
-75.82
-75.14
-74.94
-72.46
-64.71
-49.57
-26.73
1.91
32.74
61.88
86.73
106.91
124.02
140.35
157.36
174.78
190.74
202.89
209.52
210.34
206.36
199.08
189.76
179.01
166.91
153.58
139.55
125.77
113.34
102.94
94.44
87.01
79.67
71.96
64.33
58.03
54.49
54.62
58.30
64.48
71.53
78.08
83.32
87.10
89.74
91.63
93.06
94.20
95.23
96.39
97.93
99.82
101.74
102.96
102.71
100.46
96.26
90.72
84.78
79.30
74.69
70.89
67.47
63.97
60.07
55.77
51.32
47.06
43.34
40.35
38.02
36.02
33.79
30.69
26.18
20.04
12.33
3.31
-6.78
-17.80
-29.66
-42.19
-54.90
-67.09
-77.96
-86.99
-94.02
-99.28
-103.25
-106.40
-109.03
-111.22
-112.80
-113.51
-113.10
-111.42
-108.48
-104.36
-99.12
-92.82
-85.52
-77.42
-68.90
-60.49
-52.63
-45.59
-39.35
-33.72
-28.50
-23.62
-19.11
-14.98
-11.12
-7.27
-3.17
1.27
5.97
10.72
15.42
20.09
24.86
29.79
34.78
39.53
43.68
47.01
49.56
51.62
53.50
55.48
57.58
59.71
61.66
63.23
64.13
63.95
62.14
58.09
51.47
42.52
32.20
22.15
14.11
9.38
8.21
9.71
12.20
13.90
13.68
11.29
7.20
2.03
-4.10
-11.75
-21.91
-35.41
-52.71
-74.13
-100.26
-131.98
-169.67
-212.09
-255.62
-294.86
-324.55
-341.94
-348.28
-348.28
-347.84
-351.25
-359.39
-369.95
-379.46
-385.72
-389.13
-392.25
-397.99
-407.55
-419.29
-428.99
-431.13
-420.78
-394.88
-352.91
-296.51
-228.59
-152.43
-70.85
14.25
102.01
192.08
283.75
374.89
461.40
537.70
598.17
638.85
658.68
659.38
644.27
616.89
580.03
535.84
486.66
435.62
386.35
341.90
303.49
270.11
239.32
208.74
177.30
145.43
114.28
84.57
55.92
27.14
-2.68
-33.27
-62.96
-89.33
-110.28
-124.92
-133.62
-137.42
-137.41
-134.20
-127.98
-118.93
-107.51
-94.64
-81.44
-68.96
-58.02
-49.03
-42.07
-36.98
-33.44
-31.10
-29.73
-29.35
-30.08
-32.00
-34.99
-38.55
-41.95
-44.45
-45.59
-45.36
-44.14
-42.41
-40.52
-38.54
-36.27
-33.60
-30.53
-27.33
-24.32
-21.71
-19.41
-17.17
-14.72
-12.00
-9.23
-6.81
-5.13
-4.47
-4.91
-6.41
-8.85
-11.99
-15.36
-18.27
-19.88
-19.46
-16.68
-11.74
-5.33
1.67
8.41
14.34
19.21
22.98
25.70
27.38
27.98
27.44
25.82
23.32
20.33
17.28
14.52
12.18
10.24
8.59
7.23
6.33
6.16
6.87
8.37
10.33
12.36
14.10
15.44
16.35
16.82
16.80
16.17
14.85
12.84
10.24
7.12
3.53
-0.56
-5.06
-9.67
-13.78
-16.69
-17.71
-16.44
-12.87
-7.39
-0.68
6.44
13.12
18.74
22.93
25.60
26.87
26.98
26.23
24.84
23.00
20.91
18.75
16.73
15.02
13.73
12.87
12.34
12.01
11.73
11.37
10.84
10.11
9.20
8.18
7.14
6.15
5.28
4.49
3.72
2.84
1.74
0.37
-1.24
-3.00
-4.76
-6.38
-7.82
-9.12
-10.45
-12.04
-14.14
-16.84
-20.00
-23.16
-25.60
-26.53
-25.34
-21.84
-16.39
-9.76
-2.96
3.12
7.90
11.23
13.29
14.48
15.23
15.85
16.50
17.24
18.04
18.86
19.67
20.48
21.24
21.90
22.42
22.79
23.06
23.25
23.37
23.39
23.24
22.86
22.20
21.23
19.94
18.33
16.44
14.37
12.27
10.32
8.64
7.28
6.15
5.13
4.09
2.97
1.78
0.54
-0.79
-2.36
-4.42
-7.10
-10.33
-13.68
-16.40
-17.68
-16.91
-13.92
-9.06
-3.14
2.86
8.07
12.00
14.56
16.02
16.79
17.27
17.78
18.43
19.26
20.16
20.93
21.20
20.61
18.76
15.44
10.66
4.71
-1.99
-8.94
-15.72
-22.01
-27.52
-32.01
-35.26
-37.12
-37.51
-36.48
-34.19
-30.91
-26.97
-22.75
-18.61
-14.88
-11.84
-9.70
-8.63
-8.79
-10.22
-12.82
-16.24
-19.88
-22.97
-24.73
-24.57
-22.30
-18.21
-12.93
-7.32
-2.15
2.03
4.98
6.76
7.56
7.65
7.29
6.71
6.10
5.61
5.28
5.16
5.21
5.42
5.73
6.09
6.41
6.57
6.50
6.24
5.98
5.97
6.37
7.17
8.13
8.86
9.02
8.46
7.27
5.71
4.10
2.67
1.48
0.48
-0.49
-1.59
-2.99
-4.83
-7.21
-10.05
-13.02
-15.56
-16.98
-16.73
-14.61
-10.90
-6.27
-1.50
2.76
6.19
8.80
10.72
12.12
13.10
13.72
14.08
14.40
14.90
15.75
16.95
18.24
19.25
19.60
19.04
17.51
15.16
12.24
8.97
5.53
1.94
-1.82
-5.85
-10.08
-14.38
-18.38
-21.59
-23.51
-23.70
-21.96
-18.37
-13.34
-7.42
-1.25
4.76
10.37
15.62
20.60
25.30
29.42
32.33
33.23
31.43
26.64
19.11
9.71
-0.39
-10.05
-18.47
-25.34
-30.76
-35.08
-38.60
-41.48
-43.64
-44.71
-44.05
-40.86
-34.32
-23.97
-10.01
6.53
23.95
40.22
53.53
62.70
67.26
67.42
63.70
56.80
47.52
36.85
26.16
17.17
11.77
11.59
17.51
29.42
46.09
65.39
84.65
101.00
111.86
115.28
110.31
97.21
77.47
53.46
28.03
3.92
-16.75
-32.79
-43.96
-50.88
-54.79
-57.28
-59.99
-64.25
-70.73
-79.30
-89.13
-99.10
-108.20
-115.58
-120.44
-121.90
-119.21
-112.03
-100.82
-86.91
-72.21
-58.62
-47.47
-39.25
-33.57
-29.34
-24.97
-18.79
-9.43
3.67
19.98
37.83
54.90
69.04
79.14
85.55
89.64
92.96
96.56
100.89
105.71
110.46
114.54
117.55
119.60
120.94
121.57
121.21
119.58
116.64
112.78
108.84
106.02
105.82
108.82
113.80
118.33
120.30
119.06
115.65
111.84
108.58
105.61
100.23
87.81
64.08
27.78
-18.91
-71.48
-124.93
-174.73
-215.43
-241.20
-247.18
-230.67
-192.42
-138.18
-78.06
-23.74
9.51
15.11
1.82
-14.14
-21.30
-17.50
-7.78
1.51
6.88
8.77
11.08
17.21
26.52
35.21
39.34
36.62
27.83
16.11
5.38
-0.78
-1.02
2.19
3.84
2.33
-3.63
-13.76
-27.14
-43.12
-60.68
-78.29
-93.89
-104.76
-108.33
-104.46
-95.80
-87.41
-84.93
-91.13
-105.28
-124.70
-147.04
-171.38
-198.16
-226.40
-252.02
-268.54
-268.07
-245.29
-200.80
-141.38
-77.08
-17.50
31.84
69.94
97.60
117.63
132.16
141.53
144.00
136.81
117.39
84.75
40.31
-13.24
-68.61
-116.99
-150.63
-165.79
-163.29
-147.63
-124.67
-89.58
-46.28
-4.02
26.83
41.68
42.29
34.98
28.83
32.97
52.84
85.78
126.67
167.06
198.45
215.35
216.97
206.87
190.78
173.94
149.56
121.07
92.00
64.74
40.42
19.53
2.42
-10.67
-19.65
-25.90
-29.18
-30.77
-32.31
-35.24
-40.09
-46.24
-52.07
-55.51
-55.05
-48.53
-36.49
-21.83
-8.95
-3.10
-8.67
-27.62
-57.65
-92.24
-120.83
-133.66
-124.57
-93.28
-45.92
6.90
53.81
86.67
102.78
105.39
99.76
90.48
79.67
67.14
52.11
35.40
20.30
8.99
5.08
9.85
21.26
34.57
44.41
47.22
42.74
33.75
24.20
17.66
15.32
15.84
16.89
16.73
15.18
13.15
11.37
9.32
5.77
-0.74
-10.40
-21.61
-31.70
-38.29
-40.35
-38.11
-32.05
-21.69
-6.02
15.27
40.74
66.70
88.38
101.67
104.77
98.50
85.86
70.66
56.85
47.95
46.59
54.31
71.10
95.12
122.55
147.95
164.92
167.19
150.21
112.78
58.16
-6.59
-72.95
-133.76
-185.25
-226.99
-260.24
-286.03
-304.54
-315.86
-321.08
-322.63
-322.86
-322.48
-320.05
-313.46
-302.04
-287.59
-273.14
-260.49
-248.38
-233.12
-211.70
-184.61
-156.33
-132.75
-117.14
-107.54
-97.32
-78.49
-45.54
2.54
62.70
129.77
197.65
259.60
308.03
335.37
336.52
311.81
268.24
217.82
173.19
143.00
129.17
127.57
131.25
134.10
133.09
128.27
121.30
113.86
106.94
101.01
96.43
93.62
92.83
93.62
94.56
93.55
88.31
77.35
60.77
40.46
19.56
1.45
-11.70
-19.53
-23.48
-25.64
-27.57
-29.48
-30.42
-29.29
-25.91
-21.45
-17.94
-17.15
-19.52
-24.00
-28.73
-32.21
-34.06
-34.98
-35.85
-36.74
-36.51
-33.36
-26.18
-15.54
-3.82
5.91
11.65
13.74
14.86
18.59
27.38
41.00
56.56
69.85
76.82
74.84
63.08
42.37
15.38
-12.89
-35.11
-42.92
-30.04
4.08
52.17
100.24
132.43
137.31
112.67
66.14
11.58
-36.92
-70.18
-85.83
-86.93
-78.77
-65.92
-51.20
-36.26
-22.70
-12.75
-8.57
-10.95
-18.45
-27.55
-33.78
-33.71
-26.35
-13.51
1.02
12.95
19.16
18.75
13.17
5.38
-1.44
-5.09
-4.98
-2.04
1.99
5.47
7.52
8.22
8.32
8.63
9.59
11.06
12.42
12.95
12.13
9.83
6.33
2.13
-2.21
-6.29
-9.82
-12.71
-14.94
-16.54
-17.56
-18.09
-18.27
-18.34
-18.56
-19.17
-20.30
-21.95
-23.96
-26.05
-27.84
-28.90
-28.74
-26.93
-23.18
-17.60
-10.71
-3.42
3.23
8.41
11.70
13.17
13.24
12.40
11.07
9.56
8.10
6.93
6.29
6.29
6.85
7.67
8.33
8.48
7.92
6.77
5.30
3.87
2.76
2.09
1.75
1.48
1.00
0.11
-1.25
-2.97
-4.90
-6.87
-8.80
-10.67
-12.52
-14.46
-16.54
-18.71
-20.78
-22.41
-23.17
-22.72
-20.95
-18.02
-14.36
-10.47
-6.77
-3.48
-0.64
1.75
3.67
5.02
5.67
5.58
4.85
3.75
2.61
1.72
1.19
0.96
0.81
0.54
0.04
-0.68
-1.52
-2.29
-2.92
-3.41
-3.83
-4.34
-5.03
-5.93
-6.96
-7.98
-8.84
-9.43
-9.72
-9.76
-9.65
-9.49
-9.46
-9.72
-10.31
-11.15
-11.90
-12.13
-11.42
-9.56
-6.66
-3.08
0.70
4.26
7.34
9.82
11.65
12.83
13.43
13.64
13.75
14.05
14.68
15.59
16.53
17.31
17.81
18.15
18.48
18.96
19.55
20.14
20.60
20.87
20.99
21.03
20.95
20.56
19.56
17.66
14.70
10.82
6.34
1.74
-2.53
-6.23
-9.35
-12.14
-14.96
-18.02
-21.26
-24.24
-26.28
-26.71
-25.19
-21.84
-17.22
-12.19
-7.55
-3.82
-1.16
0.61
1.86
2.95
4.23
5.91
8.03
10.39
12.57
14.02
14.25
13.12
10.87
8.16
5.72
4.10
3.38
3.24
3.17
2.73
1.78
0.39
-1.36
-3.50
-6.14
-9.33
-12.82
-16.06
-18.34
-19.18
-18.56
-17.04
-15.45
-14.60
-14.91
-16.29
-18.19
-19.83
-20.37
-19.25
-16.24
-11.60
-5.93
-0.04
5.30
9.65
12.88
15.22
17.01
18.56
19.99
21.24
22.11
22.34
21.77
20.38
18.29
15.72
12.82
9.51
5.45
0.16
-6.73
-15.18
-24.62
-34.05
-42.39
-48.82
-52.96
-54.87
-54.83
-53.19
-50.28
-46.46
-42.16
-37.92
-34.25
-31.48
-29.54
-27.94
-25.94
-22.72
-17.80
-11.12
-3.17
5.27
13.35
20.47
26.45
31.46
35.84
39.84
43.49
46.54
48.65
49.49
48.97
47.23
44.62
41.65
38.85
36.66
35.27
34.52
33.99
33.09
31.43
28.97
26.12
23.56
21.93
21.48
22.00
22.92
23.51
23.24
21.87
19.45
16.20
12.30
7.86
2.93
-2.37
-7.81
-13.02
-17.53
-20.87
-22.79
-23.34
-22.84
-21.88
-21.13
-21.16
-22.31
-24.61
-27.75
-31.14
-33.99
-35.47
-34.90
-31.97
-26.82
-20.02
-12.48
-5.21
0.98
5.64
8.90
11.31
13.75
16.94
21.21
26.29
31.35
35.36
37.42
37.11
34.53
30.30
25.18
19.93
15.11
11.05
7.95
5.81
4.53
3.83
3.33
2.53
1.00
-1.54
-5.05
-9.20
-13.43
-17.09
-19.68
-20.89
-20.73
-19.46
-17.52
-15.43
-13.67
-12.56
-12.26
-12.73
-13.75
-15.03
-16.21
-16.99
-17.19
-16.73
-15.75
-14.49
-13.30
-12.53
-12.44
-13.08
-14.33
-15.88
-17.32
-18.30
-18.58
-18.14
-17.17
-16.01
-15.04
-14.50
-14.41
-14.54
-14.51
-13.96
-12.65
-10.63
-8.17
-5.73
-3.70
-2.26
-1.28
-0.42
0.81
2.71
5.40
8.77
12.50
16.26
19.73
22.65
24.83
26.18
26.72
26.58
26.01
25.34
24.87
24.79
25.12
25.70
26.32
26.73
26.74
26.29
25.41
24.25
22.98
21.77
20.76
20.03
19.65
19.66
20.06
20.70
21.34
21.64
21.22
19.88
17.59
14.59
11.24
7.96
5.10
2.89
1.35
0.38
-0.26
-0.83
-1.51
-2.43
-3.62
-5.12
-6.99
-9.20
-11.58
-13.68
-14.84
-14.42
-12.08
-7.98
-2.77
2.64
7.45
11.11
13.49
14.71
15.04
14.71
13.91
12.82
11.65
10.58
9.77
9.20
8.77
8.33
7.78
7.20
6.79
6.78
7.28
8.22
9.29
10.10
10.31
9.78
8.61
7.10
5.57
4.27
3.22
2.27
1.13
-0.45
-2.64
-5.41
-8.57
-11.83
-14.91
-17.60
-19.80
-21.48
-22.72
-23.59
-24.15
-24.40
-24.26
-23.51
-21.97
-19.48
-16.08
-11.99
-7.64
-3.47
0.12
2.93
4.94
6.27
7.11
7.66
8.05
8.44
8.94
9.68
10.75
12.14
13.68
15.12
16.22
16.85
17.07
17.18
17.55
18.44
19.87
21.55
23.00
23.64
23.09
21.24
18.27
14.57
10.58
6.60
2.76
-0.99
-4.79
-8.73
-12.86
-17.16
-21.56
-25.94
-30.05
-33.45
-35.58
-35.95
-34.32
-30.93
-26.48
-21.87
-17.95
-15.20
-13.73
-13.26
-13.39
-13.78
-14.12
-14.19
-13.75
-12.55
-10.35
-7.13
-3.06
1.39
5.69
9.33
12.13
14.21
15.90
17.49
19.01
20.14
20.33
19.14
16.46
12.63
8.24
3.93
0.14
-2.97
-5.41
-7.21
-8.37
-8.79
-8.48
-7.60
-6.47
-5.47
-4.79
-4.38
-3.89
-2.83
-0.74
2.62
7.23
12.73
18.50
23.78
27.74
29.69
29.21
26.27
21.17
14.47
6.74
-1.58
-10.20
-18.88
-27.23
-34.73
-40.65
-44.40
-45.64
-44.47
-41.37
-37.01
-32.06
-27.01
-22.17
-17.72
-13.88
-10.98
-9.35
-9.25
-10.75
-13.64
-17.55
-22.11
-27.19
-32.85
-39.36
-46.78
-54.91
-63.12
-70.65
-76.84
-81.57
-85.27
-88.75
-92.69
-97.28
-102.00
-105.78
-107.44
-106.05
-101.23
-93.22
-82.84
-71.31
-59.94
-49.79
-41.39
-34.51
-28.32
-21.74
-13.98
-4.84
5.07
14.64
22.48
27.40
28.59
26.04
20.77
15.01
11.96
14.97
26.47
47.02
75.14
108.01
142.71
177.44
211.92
247.04
283.72
321.90
360.09
395.50
424.71
444.44
452.20
446.63
427.75
397.10
357.75
313.94
270.11
229.96
195.31
165.73
139.22
113.66
88.20
63.88
43.04
27.49
17.07
8.94
-1.63
-19.30
-46.79
-83.70
-126.97
-171.87
-213.30
-246.59
-268.16
-276.33
-272.41
-261.60
-252.43
-254.03
-272.24
-306.23
-347.76
-383.98
-402.32
-395.20
-362.23
-308.92
-243.34
-172.93
-103.11
-37.84
19.19
64.14
94.18
108.91
111.28
106.91
101.78
99.84
101.60
104.56
104.89
99.66
88.33
72.84
56.52
42.46
32.25
25.75
21.52
17.89
13.64
8.34
2.10
-4.75
-11.80
-18.66
-24.97
-30.45
-35.00
-38.69
-41.66
-43.99
-45.70
-46.78
-47.40
-47.86
-48.44
-49.16
-49.72
-49.76
-49.14
-48.12
-47.30
-47.22
-48.02
-49.32
-50.45
-50.81
-50.20
-48.83
-47.16
-45.56
-44.10
-42.55
-40.58
-37.97
-34.75
-31.23
-27.81
-24.88
-22.60
-20.93
-19.68
-18.68
-17.78
-16.89
-15.73
-13.84
-10.57
-5.39
1.71
10.07
18.35
25.10
29.27
30.69
30.08
28.70
27.86
28.56
31.39
36.58
44.24
54.34
66.60
80.39
94.56
107.58
117.81
124.01
125.74
123.57
118.84
113.04
107.12
101.04
93.96
84.89
73.51
60.52
47.37
35.60
26.15
19.12
14.03
10.22
7.09
4.16
0.93
-3.15
-8.50
-15.08
-22.28
-29.04
-34.34
-37.57
-38.84
-38.79
-38.28
-37.90
-37.74
-37.40
-36.27
-33.83
-30.02
-25.15
-19.81
-14.57
-9.97
-6.57
-5.12
-6.48
-11.19
-19.13
-29.20
-39.65
-48.64
-54.80
-57.57
-57.00
-53.56
-48.11
-42.07
-37.59
-37.06
-42.29
-53.29
-67.67
-80.83
-87.14
-81.66
-61.87
-28.62
13.79
58.64
98.57
127.45
141.96
142.12
130.75
112.23
91.06
70.89
54.37
43.28
38.71
40.91
48.91
60.47
72.54
82.20
87.64
88.67
86.53
83.15
80.30
78.95
79.04
79.58
78.97
75.42
67.42
54.32
36.50
15.34
-7.31
-29.73
-50.68
-69.36
-84.92
-96.31
-102.50
-103.25
-99.68
-94.27
-89.89
-88.70
-91.33
-97.03
-104.44
-112.36
-120.03
-126.74
-131.36
-132.16
-127.45
-116.47
-100.06
-80.59
-61.04
-43.85
-30.15
-19.80
-11.95
-5.82
-1.13
1.97
3.27
2.81
0.98
-1.53
-4.05
-6.28
-8.49
-11.45
-16.19
-23.51
-33.56
-45.64
-58.29
-69.75
-78.70
-84.63
-87.90
-89.16
-88.94
-87.10
-82.83
-75.07
-63.08
-46.77
-26.89
-4.92
17.02
36.43
51.00
59.49
62.15
60.73
57.69
55.17
54.12
53.91
52.72
48.74
41.20
30.57
17.68
2.86
-14.50
-35.21
-59.05
-84.53
-107.86
-123.45
-125.93
-112.72
-85.72
-51.03
-16.88
9.00
20.01
13.33
-9.19
-41.68
-76.55
-106.50
-125.40
-128.63
-113.67
-83.60
-45.01
-5.66
27.95
51.75
64.73
69.15
69.12
67.86
62.03
45.03
11.48
-38.81
-100.89
-167.01
-229.41
-282.57
-303.41
-277.90
-210.07
-121.23
-33.81
40.45
99.66
145.65
180.22
204.39
215.80
213.32
199.67
181.49
165.75
156.46
153.80
155.35
157.97
156.57
148.09
133.13
115.99
101.25
91.16
84.85
79.78
73.20
61.85
44.11
20.96
-3.58
-24.94
-39.70
-45.84
-42.86
-31.27
-13.17
8.88
32.89
58.84
87.39
118.72
151.43
181.86
204.29
212.09
200.29
163.38
103.74
29.97
-45.69
-111.30
-158.70
-185.34
-193.83
-189.63
-178.32
-163.19
-145.90
-127.18
-107.77
-88.86
-71.74
-57.38
-46.01
-37.06
-29.12
-21.25
-13.41
-6.36
-1.19
1.35
1.38
-0.01
-1.20
-0.34
3.53
10.16
18.29
26.20
32.35
35.89
36.86
35.94
34.22
32.61
31.60
31.22
31.19
31.20
30.97
30.44
29.63
28.74
27.89
27.19
26.67
26.31
26.05
25.84
25.67
25.56
25.55
25.64
25.68
25.42
24.51
22.63
19.57
15.35
10.21
4.55
-1.12
-6.25
-10.34
-13.00
-14.03
-13.46
-11.53
-8.68
-5.42
-2.16
0.86
3.57
5.95
8.00
9.61
10.63
10.94
10.54
9.60
8.38
7.13
6.01
5.06
4.27
3.60
3.10
2.83
2.85
3.09
3.40
3.52
3.24
2.48
1.26
-0.20
-1.68
-2.98
-4.01
-4.77
-5.32
-5.80
-6.35
-7.13
-8.26
-9.72
-11.33
-12.71
-13.34
-12.77
-10.79
-7.60
-3.77
-0.03
2.96
4.87
5.77
6.02
6.08
6.31
6.74
7.21
7.40
7.13
6.41
5.48
4.69
4.34
4.55
5.24
6.14
6.93
7.34
7.18
6.34
4.78
2.47
-0.53
-4.02
-7.65
-11.00
-13.62
-15.24
-15.86
-15.74
-15.35
-15.20
-15.63
-16.70
-18.14
-19.38
-19.80
-18.87
-16.37
-12.41
-7.44
-2.04
3.12
7.47
10.69
12.70
13.69
14.06
14.25
14.58
15.21
16.08
17.05
17.94
18.68
19.19
19.40
19.19
18.41
17.00
15.01
12.67
10.20
7.74
5.29
2.70
-0.15
-3.32
-6.72
-10.17
-13.43
-16.33
-18.77
-20.73
-22.30
-23.60
-24.82
-26.10
-27.56
-29.10
-30.39
-30.88
-29.97
-27.14
-22.26
-15.58
-7.78
0.23
7.62
13.79
18.52
21.87
24.10
25.45
26.03
25.77
24.50
22.03
18.27
13.36
7.67
1.70
-4.01
-9.06
-13.28
-16.76
-19.76
-22.51
-25.08
-27.28
-28.76
-29.16
-28.29
-26.19
-23.06
-19.15
-14.64
-9.71
-4.54
0.50
4.98
8.43
10.57
11.33
10.82
9.23
6.76
3.54
-0.21
-4.11
-7.60
-10.07
-11.04
-10.29
-8.08
-5.03
-1.90
0.57
1.99
2.28
1.74
0.70
-0.52
-1.84
-3.25
-4.71
-6.04
-6.89
-6.93
-5.95
-4.06
-1.51
1.34
4.28
7.22
10.17
13.09
15.80
18.07
19.60
20.24
19.94
18.83
17.12
15.02
12.83
10.88
9.63
9.48
10.65
12.90
15.59
17.82
18.81
18.17
15.93
12.33
7.65
2.19
-3.59
-8.81
-12.35
-13.21
-10.95
-6.01
0.53
7.33
13.37
18.09
21.22
22.51
21.58
18.12
12.13
4.17
-4.78
-13.58
-21.28
-27.27
-31.24
-33.11
-32.93
-30.95
-27.58
-23.48
-19.37
-16.02
-14.01
-13.68
-14.99
-17.58
-20.92
-24.50
-27.97
-31.30
-34.60
-38.02
-41.61
-45.23
-48.62
-51.43
-53.22
-53.51
-51.82
-47.85
-41.71
-34.00
-25.75
-18.07
-11.83
-7.43
-4.87
-3.92
-4.31
-5.79
-8.00
-10.44
-12.46
-13.48
-13.14
-11.51
-8.86
-5.59
-1.97
1.80
5.56
9.03
11.88
13.77
14.58
14.40
13.51
12.20
10.65
8.82
6.60
3.84
0.47
-3.57
-8.34
-13.91
-20.24
-27.12
-34.02
-40.18
-44.73
-47.02
-46.89
-44.74
-41.50
-38.37
-36.42
-36.31
-38.04
-41.05
-44.47
-47.49
-49.68
-51.08
-52.06
-53.01
-54.04
-54.92
-55.27
-54.75
-53.22
-50.56
-46.44
-40.06
-30.28
-16.12
2.81
25.90
51.82
78.97
105.85
131.20
153.66
171.50
182.59
184.96
177.72
161.71
139.66
115.56
93.56
76.91
67.25
64.55
67.47
73.95
81.84
89.27
94.94
98.06
98.28
95.58
90.26
82.93
74.48
66.00
58.49
52.60
48.58
46.33
45.59
45.98
46.96
47.66
46.96
43.58
36.52
25.34
10.31
-7.78
-27.85
-48.74
-69.37
-88.64
-105.50
-119.09
-128.80
-134.40
-135.94
-133.60
-127.63
-118.36
-106.34
-92.44
-77.81
-63.62
-50.89
-40.20
-31.75
-25.42
-21.02
-18.33
-17.20
-17.44
-18.78
-20.81
-22.97
-24.58
-25.05
-24.00
-21.40
-17.54
-12.94
-8.21
-3.88
-0.32
2.21
3.56
3.64
2.43
0.05
-3.24
-6.98
-10.73
-14.12
-16.99
-19.35
-21.20
-22.43
-22.66
-21.44
-18.44
-13.72
-7.84
-1.71
3.74
7.82
10.32
11.46
11.71
11.53
11.27
11.02
10.77
10.42
9.94
9.39
8.96
8.76
8.80
8.89
8.72
8.08
6.92
5.49
4.14
3.17
2.61
2.30
1.95
1.39
0.68
0.02
-0.40
-0.56
-0.71
-1.26
-2.59
-4.82
-7.70
-10.65
-12.91
-13.84
-13.14
-10.97
-7.90
-4.69
-2.00
-0.23
0.66
0.97
1.11
1.36
1.79
2.29
2.68
2.86
2.92
3.03
3.35
3.98
4.84
5.80
6.73
7.57
8.30
8.94
9.41
9.60
9.39
8.74
7.73
6.57
5.44
4.45
3.52
2.46
1.00
-1.08
-3.77
-6.76
-9.45
-11.12
-11.16
-9.35
-5.92
-1.55
2.97
6.95
10.04
12.21
13.60
14.36
14.58
14.32
13.69
12.90
12.21
11.83
11.80
11.98
12.19
12.25
12.13
11.88
11.62
11.40
11.14
10.71
9.94
8.67
6.84
4.55
2.01
-0.46
-2.54
-4.08
-5.12
-5.99
-7.09
-8.80
-11.19
-13.99
-16.60
-18.24
-18.25
-16.29
-12.45
-7.30
-1.68
3.53
7.70
10.64
12.54
13.83
14.90
15.96
16.93
17.63
17.91
17.81
17.53
17.32
17.33
17.50
17.59
17.33
16.57
15.39
14.04
12.86
12.03
11.53
11.02
10.10
8.50
6.24
3.65
1.18
-0.82
-2.28
-3.44
-4.64
-6.21
-8.32
-10.96
-13.94
-17.01
-19.73
-21.62
-22.16
-21.02
-18.16
-13.95
-9.00
-4.02
0.42
4.01
6.68
8.54
9.80
10.62
11.17
11.55
11.79
11.87
11.74
11.42
11.01
10.66
10.40
10.22
9.98
9.55
8.90
8.09
7.27
6.59
6.07
5.60
5.04
4.26
3.24
2.08
0.87
-0.28
-1.37
-2.42
-3.45
-4.46
-5.40
-6.23
-6.97
-7.73
-8.68
-9.99
-11.77
-13.92
-16.16
-17.96
-18.71
-17.92
-15.38
-11.32
-6.32
-1.16
3.41
6.97
9.39
10.87
11.72
12.19
12.44
12.44
12.15
11.58
10.86
10.22
9.91
10.06
10.64
11.44
12.16
12.55
12.47
11.96
11.13
10.12
8.99
7.74
6.34
4.78
3.13
1.54
0.15
-0.90
-1.59
-2.02
-2.39
-2.96
-3.95
-5.51
-7.67
-10.38
-13.41
-16.42
-18.90
-20.24
-19.92
-17.67
-13.69
-8.61
-3.31
1.36
4.92
7.30
8.80
9.81
10.63
11.35
11.93
12.28
12.43
12.51
12.64
12.91
13.27
13.60
13.77
13.72
13.51
13.25
13.03
12.80
12.42
11.68
10.48
8.86
7.02
5.20
3.56
2.05
0.51
-1.19
-3.04
-4.91
-6.57
-7.90
-8.92
-9.81
-10.81
-12.15
-13.93
-16.09
-18.43
-20.55
-21.93
-22.09
-20.71
-17.79
-13.65
-8.90
-4.20
-0.11
3.04
5.17
6.38
6.89
6.99
6.89
6.79
6.79
6.90
7.12
7.37
7.62
7.81
7.88
7.80
7.52
7.06
6.45
5.75
5.07
4.43
3.84
3.20
2.36
1.21
-0.26
-1.96
-3.67
-5.20
-6.50
-7.65
-8.79
-10.05
-11.39
-12.74
-14.02
-15.29
-16.81
-18.82
-21.37
-24.13
-26.43
-27.45
-26.59
-23.74
-19.28
-13.98
-8.65
-3.90
-0.03
2.94
5.14
6.71
7.74
8.28
8.40
8.25
8.01
7.85
7.91
8.22
8.69
9.17
9.48
9.49
9.19
8.71
8.20
7.84
7.66
7.59
7.44
6.99
6.12
4.76
3.06
1.23
-0.46
-1.84
-2.94
-3.95
-5.19
-6.96
-9.38
-12.43
-15.89
-19.43
-22.68
-25.17
-26.38
-25.85
-23.26
-18.67
-12.52
-5.61
1.13
6.88
11.10
13.60
14.48
13.99
12.50
10.38
7.96
5.57
3.41
1.68
0.52
0.06
0.37
1.40
2.96
4.75
6.47
7.92
9.08
10.00
10.73
11.17
11.08
10.22
8.54
6.25
3.82
1.74
0.30
-0.58
-1.22
-2.12
-3.63
-5.88
-8.73
-11.86
-14.87
-17.34
-18.86
-19.09
-17.83
-15.07
-11.11
-6.47
-1.78
2.45
5.90
8.51
10.35
11.55
12.26
12.59
12.68
12.68
12.72
12.86
13.03
13.10
12.97
12.58
11.97
11.27
10.61
10.09
9.72
9.45
9.17
8.70
7.86
6.47
4.44
1.83
-1.18
-4.31
-7.27
-9.87
-12.04
-13.83
-15.40
-17.02
-18.95
-21.37
-24.24
-27.16
-29.52
-30.59
-29.84
-27.10
-22.69
-17.32
-11.83
-6.94
-3.09
-0.37
1.37
2.39
2.92
3.12
3.11
3.00
2.94
3.09
3.60
4.48
5.58
6.66
7.44
7.74
7.59
7.15
6.65
6.26
6.02
5.86
5.59
5.04
4.10
2.71
0.91
-1.16
-3.36
-5.50
-7.45
-9.17
-10.74
-12.31
-14.05
-16.12
-18.53
-21.12
-23.53
-25.23
-25.64
-24.29
-20.97
-15.85
-9.47
-2.64
3.78
9.10
12.89
15.12
16.01
15.99
15.50
14.91
14.47
14.29
14.39
14.75
15.30
15.89
16.38
16.59
16.45
15.99
15.32
14.57
13.71
12.58
10.88
8.39
5.12
1.31
-2.53
-5.91
-8.45
-10.08
-10.99
-11.54
-12.16
-13.13
-14.57
-16.34
-18.04
-19.16
-19.12
-17.55
-14.33
-9.74
-4.43
0.81
5.18
8.11
9.43
9.29
8.14
6.50
4.85
3.47
2.47
1.88
1.66
1.81
2.33
3.18
4.27
5.47
6.65
7.75
8.72
9.46
9.82
9.55
8.35
6.07
2.80
-1.14
-5.24
-8.99
-12.06
-14.40
-16.27
-18.04
-20.14
-22.78
-25.90
-29.03
-31.44
-32.25
-30.75
-26.63
-20.16
-12.13
-3.56
4.56
11.56
17.15
21.35
24.32
26.25
27.28
27.59
27.36
26.86
26.33
25.98
25.84
25.85
25.83
25.57
24.93
23.85
22.45
20.85
19.20
17.49
15.61
13.32
10.43
6.89
2.82
-1.47
-5.66
-9.51
-12.92
-15.98
-18.78
-21.41
-23.88
-26.16
-28.16
-29.78
-30.83
-30.98
-29.84
-27.08
-22.63
-16.80
-10.23
-3.76
1.84
6.11
8.96
10.58
11.29
11.35
10.90
10.01
8.79
7.44
6.28
5.56
5.40
5.73
6.36
7.10
7.88
8.72
9.65
10.63
11.48
11.96
11.81
10.97
9.48
7.48
5.15
2.66
0.16
-2.21
-4.32
-6.10
-7.58
-8.91
-10.31
-12.04
-14.30
-17.06
-20.11
-22.97
-25.01
-25.62
-24.36
-21.17
-16.45
-10.93
-5.47
-0.80
2.71
5.07
6.62
7.76
8.79
9.86
10.91
11.86
12.68
13.40
14.10
14.88
15.81
16.89
18.09
19.32
20.46
21.31
21.66
21.35
20.27
18.42
15.86
12.74
9.20
5.46
1.69
-1.91
-5.28
-8.50
-11.77
-15.35
-19.32
-23.49
-27.29
-29.97
-30.78
-29.27
-25.52
-20.15
-14.10
-8.35
-3.67
-0.31
1.89
3.37
4.61
5.89
7.25
8.52
9.46
9.88
9.76
9.21
8.40
7.50
6.61
5.78
5.00
4.30
3.72
3.34
3.15
3.10
3.06
2.87
2.52
2.09
1.85
2.09
3.07
4.75
6.82
8.71
9.69
9.11
6.71
2.74
-1.99
-6.36
-9.28
-10.09
-8.75
-5.73
-1.83
2.23
5.98
9.27
12.19
14.90
17.56
20.28
23.06
25.85
28.49
30.82
32.60
33.70
34.03
33.60
32.47
30.73
28.53
26.04
23.47
21.02
18.80
16.81
15.00
13.27
11.59
10.03
8.78
8.06
8.06
8.81
10.15
11.74
13.12
13.86
13.67
12.44
10.28
7.42
4.11
0.57
-3.07
-6.72
-10.25
-13.51
-16.26
-18.27
-19.40
-19.65
-19.22
-18.46
-17.80
-17.68
-18.41
-19.99
-22.15
-24.30
-25.70
-25.70
-24.01
-20.79
-16.60
-12.19
-8.20
-5.00
-2.61
-0.76
0.91
2.75
4.92
7.45
10.18
12.89
15.33
17.30
18.63
19.25
19.19
18.56
17.61
16.64
15.92
15.57
15.52
15.46
15.07
14.11
12.59
10.76
8.96
7.45
6.30
5.38
4.53
3.62
2.65
1.72
0.90
0.17
-0.60
-1.55
-2.79
-4.26
-5.81
-7.28
-8.55
-9.65
-10.63
-11.53
-12.37
-13.20
-14.07
-15.16
-16.67
-18.74
-21.26
-23.88
-25.99
-26.91
-26.14
-23.49
-19.20
-13.91
-8.40
-3.43
0.48
3.21
4.98
6.16
7.16
8.20
9.32
10.43
11.39
12.14
12.66
12.98
13.10
13.00
12.60
11.85
10.81
9.67
8.66
7.99
7.77
7.88
8.08
8.06
7.62
6.71
5.48
4.17
2.95
1.89
0.92
-0.12
-1.32
-2.68
-4.13
-5.58
-7.05
-8.58
-10.33
-12.39
-14.74
-17.19
-19.45
-21.18
-22.15
-22.36
-21.99
-21.41
-20.99
-20.94
-21.15
-21.26
-20.73
-19.10
-16.20
-12.20
-7.61
-3.03
0.97
4.03
6.02
7.05
7.34
7.19
6.82
6.39
5.99
5.67
5.42
5.24
5.12
5.02
4.82
4.45
3.81
2.90
1.76
0.49
-0.79
-1.98
-3.01
-3.86
-4.47
-4.83
-4.95
-4.86
-4.65
-4.41
-4.23
-4.17
-4.21
-4.32
-4.42
-4.47
-4.53
-4.68
-5.06
-5.79
-6.93
-8.41
-10.02
-11.43
-12.21
-12.01
-10.63
-8.09
-4.72
-1.04
2.38
5.08
6.82
7.62
7.69
7.30
6.67
5.91
5.08
4.22
3.40
2.73
2.37
2.36
2.72
3.29
3.92
4.40
4.61
4.53
4.19
3.72
3.23
2.83
2.55
2.39
2.25
2.02
1.58
0.83
-0.27
-1.68
-3.31
-5.01
-6.74
-8.49
-10.31
-12.21
-14.03
-15.46
-16.05
-15.46
-13.59
-10.66
-7.22
-3.86
-1.09
0.86
1.99
2.49
2.61
2.56
2.48
2.43
2.41
2.44
2.50
2.63
2.83
3.09
3.29
3.30
2.93
2.03
0.59
-1.26
-3.23
-4.99
-6.28
-6.97
-7.14
-6.93
-6.50
-5.91
-5.10
-4.01
-2.59
-0.98
0.54
1.62
1.96
1.39
-0.08
-2.31
-4.99
-7.78
-10.29
-12.08
-12.81
-12.31
-10.66
-8.20
-5.44
-2.84
-0.69
0.95
2.23
3.31
4.29
5.12
5.67
5.87
5.81
5.70
5.83
6.40
7.38
8.55
9.59
10.20
10.26
9.87
9.22
8.50
7.74
6.81
5.53
3.80
1.69
-0.60
-2.81
-4.73
-6.31
-7.54
-8.47
-9.10
-9.43
-9.51
-9.49
-9.62
-10.18
-11.30
-12.86
-14.48
-15.57
-15.59
-14.20
-11.49
-7.91
-4.14
-0.83
1.60
3.11
3.89
4.24
4.42
4.49
4.47
4.31
4.08
3.90
3.87
4.06
4.42
4.85
5.26
5.59
5.81
5.93
5.92
5.74
5.38
4.87
4.28
3.68
3.07
2.40
1.58
0.62
-0.45
-1.53
-2.54
-3.43
-4.23
-4.95
-5.60
-6.19
-6.73
-7.33
-8.11
-9.16
-10.39
-11.52
-12.06
-11.53
-9.60
-6.32
-2.11
2.34
6.32
9.30
11.06
11.70
11.46
10.62
9.39
7.94
6.40
4.92
3.66
2.71
2.13
1.82
1.64
1.50
1.34
1.19
1.11
1.17
1.34
1.60
1.87
2.09
2.27
2.48
2.79
3.20
3.68
4.08
4.21
3.88
2.95
1.37
-0.79
-3.37
-6.20
-9.17
-12.26
-15.47
-18.68
-21.56
-23.61
-24.28
-23.23
-20.49
-16.51
-11.99
-7.60
-3.81
-0.81
1.45
3.06
4.07
4.45
4.22
3.49
2.53
1.63
0.97
0.61
0.46
0.36
0.22
0.07
-0.01
0.08
0.31
0.56
0.65
0.39
-0.30
-1.38
-2.78
-4.35
-5.93
-7.34
-8.43
-9.11
-9.37
-9.32
-9.17
-9.16
-9.49
-10.26
-11.43
-12.82
-14.11
-14.92
-14.93
-13.99
-12.14
-9.67
-6.94
-4.29
-1.89
0.28
2.32
4.31
6.17
7.71
8.72
9.10
8.97
8.59
8.27
8.20
8.41
8.77
9.09
9.19
8.98
8.45
7.64
6.60
5.38
4.02
2.54
1.01
-0.45
-1.69
-2.56
-3.02
-3.15
-3.18
-3.42
-4.19
-5.70
-7.97
-10.75
-13.62
-16.04
-17.47
-17.53
-16.06
-13.26
-9.59
-5.66
-2.02
1.02
3.38
5.20
6.65
7.83
8.76
9.46
9.97
10.43
10.97
11.64
12.37
12.99
13.31
13.26
12.85
12.18
11.38
10.53
9.70
8.85
7.88
6.66
5.01
2.89
0.44
-2.02
-4.11
-5.55
-6.30
-6.57
-6.79
-7.38
-8.67
-10.74
-13.43
-16.32
-18.80
-20.30
-20.39
-18.90
-16.02
-12.19
-8.03
-4.08
-0.76
1.73
3.45
4.60
5.48
6.30
7.19
8.14
9.06
9.87
10.50
10.99
11.36
11.60
11.66
11.51
11.21
10.87
10.61
10.45
10.27
9.83
8.91
7.38
5.33
3.01
0.70
-1.33
-2.96
-4.22
-5.29
-6.40
-7.78
-9.58
-11.81
-14.33
-16.92
-19.24
-20.96
-21.72
-21.27
-19.53
-16.63
-12.96
-9.06
-5.43
-2.44
-0.16
1.55
2.96
4.27
5.56
6.80
7.89
8.81
9.59
10.34
11.16
12.09
13.05
13.93
14.55
14.79
14.62
14.08
13.29
12.36
11.36
10.25
8.93
7.27
5.26
3.02
0.82
-1.07
-2.50
-3.47
-4.20
-4.93
-5.91
-7.27
-9.00
-10.99
-13.01
-14.73
-15.71
-15.54
-13.94
-10.95
-6.91
-2.44
1.81
5.35
8.00
9.86
11.17
12.19
13.04
13.69
14.06
14.04
13.69
13.16
12.72
12.54
12.68
13.01
13.30
13.37
13.13
12.67
12.09
11.50
10.83
9.99
8.84
7.35
5.55
3.62
1.72
0.02
-1.40
-2.61
-3.75
-5.02
-6.54
-8.40
-10.55
-12.95
-15.52
-18.21
-20.90
-23.33
-25.06
-25.59
-24.53
-21.76
-17.55
-12.50
-7.28
-2.49
1.57
4.85
7.48
9.62
11.41
12.88
14.05
14.95
15.64
16.20
16.65
16.96
17.06
16.91
16.51
15.98
15.43
14.93
14.45
13.88
13.06
11.95
10.60
9.17
7.83
6.68
5.64
4.60
3.37
1.81
-0.12
-2.38
-4.84
-7.30
-9.57
-11.50
-13.06
-14.37
-15.70
-17.36
-19.57
-22.27
-25.14
-27.59
-28.96
-28.74
-26.71
-23.02
-18.15
-12.78
-7.61
-3.13
0.42
3.14
5.24
6.96
8.41
9.60
10.47
11.05
11.50
12.00
12.70
13.55
14.36
14.85
14.85
14.39
13.67
12.93
12.29
11.71
11.03
10.14
9.03
7.86
6.86
6.16
5.72
5.30
4.61
3.46
1.89
0.10
-1.61
-3.00
-4.01
-4.77
-5.55
-6.64
-8.27
-10.54
-13.37
-16.45
-19.26
-21.18
-21.60
-20.16
-16.88
-12.22
-6.90
-1.68
2.86
6.45
9.09
10.96
12.24
13.10
13.62
13.90
14.07
14.27
14.62
15.13
15.72
16.25
16.54
16.52
16.17
15.58
14.79
13.84
12.73
11.50
10.24
9.02
7.86
6.69
5.33
3.64
1.61
-0.63
-2.83
-4.78
-6.46
-7.96
-9.45
-11.07
-12.88
-14.88
-17.10
-19.53
-22.09
-24.47
-26.17
-26.57
-25.21
-21.99
-17.22
-11.64
-6.09
-1.28
2.38
4.89
6.50
7.61
8.60
9.69
10.90
12.14
13.24
14.09
14.65
14.95
15.09
15.12
15.05
14.82
14.40
13.79
13.07
12.35
11.69
11.07
10.37
9.40
8.04
6.30
4.32
2.32
0.46
-1.22
-2.76
-4.26
-5.74
-7.19
-8.60
-10.06
-11.70
-13.74
-16.32
-19.44
-22.85
-26.08
-28.59
-29.77
-29.18
-26.62
-22.29
-16.76
-10.83
-5.35
-0.91
2.26
4.33
5.67
6.69
7.61
8.49
9.27
9.86
10.23
10.41
10.49
10.48
10.40
10.19
9.80
9.23
8.52
7.79
7.14
6.65
6.31
6.04
5.72
5.29
4.74
4.08
3.32
2.41
1.29
-0.08
-1.68
-3.39
-5.12
-6.80
-8.50
-10.37
-12.64
-15.43
-18.69
-22.10
-25.06
-26.87
-26.91
-24.92
-21.04
-15.84
-10.08
-4.48
0.52
4.77
8.33
11.35
13.82
15.69
16.85
17.29
17.16
16.74
16.36
16.24
16.45
16.83
17.10
16.96
16.17
14.72
12.75
10.51
8.26
6.15
4.18
2.25
0.24
-1.84
-3.85
-5.56
-6.78
-7.53
-8.01
-8.54
-9.47
-11.00
-13.19
-15.97
-19.18
-22.54
-25.65
-27.95
-28.85
-27.88
-24.92
-20.29
-14.68
-8.96
-3.86
0.22
3.27
5.55
7.41
9.09
10.63
11.94
12.91
13.55
14.04
14.62
15.44
16.40
17.27
17.73
17.60
16.97
16.07
15.17
14.36
13.52
12.42
10.84
8.71
6.17
3.43
0.70
-1.86
-4.20
-6.31
-8.20
-9.98
-11.80
-13.86
-16.32
-19.26
-22.56
-25.86
-28.68
-30.41
-30.54
-28.79
-25.21
-20.19
-14.34
-8.38
-2.89
1.77
5.48
8.31
10.39
11.88
12.88
13.49
13.81
13.96
14.07
14.26
14.64
15.23
15.93
16.57
16.93
16.86
16.30
15.35
14.16
12.88
11.62
10.35
8.93
7.22
5.10
2.62
-0.10
-2.81
-5.27
-7.35
-9.04
-10.47
-11.91
-13.60
-15.77
-18.52
-21.82
-25.44
-28.95
-31.73
-33.07
-32.39
-29.42
-24.37
-17.89
-10.93
-4.44
0.95
4.95
7.70
9.53
10.78
11.68
12.35
12.80
13.05
13.22
13.45
13.81
14.32
14.85
15.20
15.20
14.81
14.11
13.30
12.55
11.96
11.45
10.81
9.85
8.41
6.49
4.27
1.94
-0.29
-2.31
-4.10
-5.71
-7.24
-8.88
-10.87
-13.44
-16.67
-20.31
-23.75
-26.07
-26.42
-24.33
-19.94
-13.97
-7.40
-1.16
4.22
8.61
12.12
14.92
17.10
18.61
19.40
19.53
19.14
18.49
17.77
17.10
16.49
15.87
15.13
14.20
13.08
11.80
10.46
9.18
8.10
7.32
6.85
6.60
6.38
5.98
5.28
4.24
2.96
1.51
-0.08
-1.86
-3.93
-6.37
-9.21
-12.49
-16.22
-20.38
-24.81
-29.10
-32.60
-34.52
-34.23
-31.50
-26.64
-20.38
-13.60
-7.08
-1.30
3.59
7.65
10.96
13.56
15.46
16.70
17.39
17.71
17.82
17.86
17.86
17.80
17.68
17.46
17.13
16.64
15.97
15.06
13.95
12.70
11.40
10.12
8.82
7.43
5.78
3.76
1.35
-1.34
-4.09
-6.62
-8.74
-10.39
-11.69
-12.85
-14.13
-15.77
-17.97
-20.81
-24.21
-27.81
-30.94
-32.76
-32.48
-29.68
-24.58
-17.91
-10.70
-3.89
1.97
6.71
10.46
13.39
15.57
17.01
17.74
17.93
17.83
17.77
17.91
18.31
18.82
19.22
19.28
18.86
17.94
16.62
15.07
13.47
11.89
10.29
8.56
6.55
4.21
1.61
-1.02
-3.41
-5.32
-6.68
-7.63
-8.53
-9.82
-11.87
-14.83
-18.52
-22.38
-25.63
-27.42
-27.16
-24.66
-20.21
-14.53
-8.45
-2.75
2.12
6.08
9.24
11.86
14.08
15.93
17.28
17.99
18.01
17.50
16.76
16.15
15.91
16.09
16.46
16.68
16.49
15.76
14.61
13.27
11.93
10.67
9.39
7.93
6.15
3.99
1.50
-1.22
-4.00
-6.68
-9.11
-11.21
-13.02
-14.72
-16.61
-18.99
-22.05
-25.69
-29.46
-32.59
-34.19
-33.52
-30.29
-24.78
-17.81
-10.41
-3.54
2.20
6.65
9.98
12.46
14.34
15.73
16.64
17.08
17.16
17.06
16.97
17.05
17.34
17.70
17.92
17.78
17.19
16.23
15.10
13.98
12.96
11.94
10.69
8.97
6.67
3.81
0.60
-2.69
-5.82
-8.64
-11.05
-13.05
-14.72
-16.18
-17.69
-19.56
-22.12
-25.52
-29.60
-33.81
-37.27
-38.97
-38.18
-34.66
-28.81
-21.58
-14.07
-7.21
-1.53
2.89
6.31
9.01
11.23
13.04
14.43
15.41
16.14
16.84
17.71
18.80
19.92
20.71
20.77
19.89
18.17
16.01
13.91
12.25
11.13
10.35
9.52
8.31
6.56
4.36
2.01
-0.12
-1.78
-2.85
-3.47
-3.90
-4.53
-5.71
-7.72
-10.70
-14.56
-18.95
-23.23
-26.59
-28.25
-27.68
-24.84
-20.17
-14.48
-8.61
-3.24
1.35
5.21
8.56
11.59
14.31
16.59
18.25
19.17
19.41
19.27
19.12
19.31
19.97
20.94
21.86
22.30
22.00
20.99
19.57
18.08
16.73
15.43
13.88
11.75
8.84
5.24
1.27
-2.66
-6.20
-9.23
-11.79
-14.12
-16.45
-19.01
-21.94
-25.28
-28.87
-32.41
-35.40
-37.20
-37.16
-34.84
-30.15
-23.48
-15.66
-7.73
-0.66
4.97
9.06
11.92
14.02
15.77
17.32
18.61
19.48
19.84
19.78
19.52
19.34
19.43
19.77
20.23
20.57
20.55
20.09
19.15
17.80
16.08
14.03
11.66
8.99
6.09
3.09
0.18
-2.48
-4.80
-6.82
-8.65
-10.53
-12.68
-15.33
-18.67
-22.76
-27.54
-32.67
-37.56
-41.33
-43.13
-42.26
-38.51
-32.23
-24.26
-15.70
-7.64
-0.87
4.19
7.59
9.68
10.98
11.89
12.65
13.28
13.70
13.87
13.88
13.93
14.24
14.87
15.71
16.43
16.74
16.45
15.63
14.51
13.36
12.33
11.35
10.17
8.52
6.22
3.35
0.23
-2.73
-5.15
-6.85
-7.92
-8.67
-9.50
-10.80
-12.83
-15.65
-19.07
-22.65
-25.74
-27.62
-27.67
-25.56
-21.40
-15.70
-9.29
-3.01
2.44
6.73
9.85
12.02
13.51
14.50
15.12
15.46
15.64
15.82
16.19
16.86
17.82
18.92
19.85
20.35
20.21
19.35
17.88
16.00
13.91
11.73
9.44
6.91
3.99
0.61
-3.12
-6.89
-10.32
-13.12
-15.18
-16.67
-17.96
-19.54
-21.84
-25.09
-29.12
-33.38
-36.95
-38.80
-38.07
-34.41
-28.07
-19.92
-11.15
-2.88
4.04
9.26
12.79
14.96
16.14
16.73
17.05
17.38
17.87
18.63
19.66
20.83
21.94
22.76
23.10
22.91
22.23
21.21
20.02
18.74
17.36
15.73
13.68
11.09
7.97
4.47
0.85
-2.64
-5.79
-8.52
-10.83
-12.84
-14.71
-16.73
-19.20
-22.35
-26.18
-30.31
-33.96
-36.10
-35.88
-32.86
-27.33
-20.13
-12.43
-5.24
0.79
5.46
8.91
11.38
13.07
14.12
14.65
14.77
14.64
14.43
14.29
14.34
14.64
15.21
16.00
16.84
17.52
17.84
17.70
17.10
16.19
15.07
13.78
12.23
10.27
7.81
4.90
1.72
-1.46
-4.35
-6.80
-8.76
-10.37
-11.89
-13.67
-16.04
-19.26
-23.32
-27.88
-32.22
-35.38
-36.38
-34.59
-29.96
-23.04
-14.86
-6.60
0.81
6.75
11.07
13.90
15.48
16.11
16.06
15.69
15.34
15.34
15.87
16.97
18.41
19.90
21.09
21.71
21.67
21.03
19.97
18.64
17.12
15.28
12.91
9.83
6.08
1.95
-2.09
-5.61
-8.38
-10.47
-12.19
-13.97
-16.21
-19.17
-22.92
-27.35
-31.99
-36.15
-38.87
-39.26
-36.74
-31.31
-23.65
-14.89
-6.26
1.26
7.18
11.50
14.58
16.85
18.61
19.96
20.90
21.40
21.53
21.53
21.65
22.11
22.87
23.69
24.23
24.18
23.40
22.04
20.33
18.50
16.61
14.52
11.99
8.87
5.15
1.06
-3.00
-6.66
-9.66
-12.00
-13.90
-15.79
-18.10
-21.22
-25.28
-30.11
-35.19
-39.75
-42.91
-43.86
-42.02
-37.29
-30.06
-21.16
-11.69
-2.76
4.82
10.65
14.87
17.89
20.20
22.16
23.83
25.10
25.81
25.94
25.63
25.16
24.78
24.56
24.42
24.13
23.46
22.27
20.54
18.38
15.94
13.39
10.83
8.31
5.77
3.13
0.31
-2.65
-5.58
-8.21
-10.32
-11.79
-12.73
-13.41
-14.20
-15.41
-17.31
-20.03
-23.57
-27.72
-31.92
-35.33
-36.99
-36.10
-32.37
-26.16
-18.43
-10.41
-3.17
2.65
6.94
9.98
12.15
13.76
14.92
15.63
15.90
15.84
15.68
15.68
15.98
16.56
17.23
17.72
17.81
17.42
16.59
15.47
14.23
12.98
11.75
10.47
9.05
7.41
5.51
3.41
1.21
-0.95
-2.93
-4.67
-6.21
-7.67
-9.21
-11.04
-13.37
-16.34
-19.90
-23.77
-27.38
-29.93
-30.63
-28.89
-24.62
-18.26
-10.67
-2.85
4.30
10.24
14.71
17.73
19.44
19.96
19.54
18.47
17.19
16.12
15.61
15.74
16.39
17.27
18.02
18.36
18.12
17.25
15.84
14.06
12.13
10.29
8.65
7.19
5.71
3.95
1.72
-0.99
-3.93
-6.80
-9.34
-11.51
-13.51
-15.70
-18.43
-21.87
-25.98
-30.43
-34.65
-37.88
-39.32
-38.31
-34.59
-28.43
-20.59
-12.15
-4.15
2.64
7.89
11.68
14.31
16.12
17.35
18.13
18.54
18.64
18.55
18.44
18.47
18.74
19.23
19.79
20.18
20.18
19.67
18.64
17.22
15.56
13.79
11.95
10.00
7.88
5.57
3.09
0.54
-1.94
-4.19
-6.09
-7.62
-8.87
-10.06
-11.47
-13.33
-15.81
-19.00
-22.85
-27.09
-31.24
-34.60
-36.37
-35.92
-32.99
-27.86
-21.23
-14.06
-7.27
-1.46
3.12
6.57
9.18
11.25
13.03
14.64
16.11
17.40
18.45
19.18
19.57
19.61
19.30
18.70
17.83
16.75
15.52
14.15
12.68
11.11
9.44
7.68
5.80
3.81
1.72
-0.42
-2.53
-4.53
-6.32
-7.86
-9.18
-10.39
-11.68
-13.17
-14.99
-17.13
-19.62
-22.42
-25.50
-28.73
-31.73
-33.88
-34.43
-32.76
-28.66
-22.47
-15.04
-7.42
-0.51
5.14
9.37
12.27
14.02
14.81
14.74
14.05
12.99
11.94
11.22
11.02
11.37
12.09
12.90
13.50
13.65
13.22
12.32
11.12
9.87
8.68
7.53
6.22
4.56
2.41
-0.11
-2.74
-5.14
-7.09
-8.59
-9.89
-11.36
-13.35
-16.10
-19.55
-23.41
-27.11
-29.95
-31.21
-30.34
-27.16
-21.88
-15.15
-7.83
-0.77
5.35
10.18
13.70
16.07
17.50
18.24
18.41
18.17
17.64
16.99
16.40
16.04
16.00
16.24
16.60
16.83
16.73
16.14
15.14
13.85
12.50
11.21
9.95
8.56
6.79
4.52
1.79
-1.19
-4.09
-6.63
-8.72
-10.46
-12.16
-14.19
-16.87
-20.32
-24.37
-28.50
-31.93
-33.78
-33.31
-30.22
-24.77
-17.68
-9.99
-2.67
3.58
8.45
11.94
14.26
15.65
16.36
16.59
16.54
16.38
16.24
16.21
16.32
16.58
16.96
17.34
17.61
17.58
17.18
16.36
15.21
13.88
12.51
11.16
9.82
8.41
6.80
4.94
2.78
0.40
-2.08
-4.50
-6.71
-8.67
-10.42
-12.13
-14.00
-16.25
-18.99
-22.23
-25.73
-29.03
-31.50
-32.43
-31.25
-27.75
-22.21
-15.33
-8.02
-1.16
4.65
9.12
12.31
14.38
15.57
16.11
16.26
16.30
16.47
16.90
17.59
18.39
19.12
19.65
19.94
19.99
19.82
19.35
18.50
17.18
15.40
13.25
10.90
8.48
6.07
3.72
1.42
-0.83
-3.02
-5.18
-7.32
-9.43
-11.45
-13.30
-14.90
-16.30
-17.70
-19.41
-21.72
-24.77
-28.34
-31.92
-34.71
-35.89
-34.90
-31.59
-26.24
-19.52
-12.24
-5.16
1.14
6.34
10.31
13.02
14.55
15.02
14.63
13.65
12.38
11.14
10.25
9.94
10.24
11.04
12.05
12.93
13.40
13.37
12.93
12.23
11.38
10.32
8.90
6.89
4.23
1.03
-2.40
-5.64
-8.35
-10.36
-11.73
-12.69
-13.52
-14.48
-15.77
-17.45
-19.56
-21.97
-24.44
-26.50
-27.52
-26.94
-24.39
-19.97
-14.18
-7.82
-1.71
3.55
7.65
10.51
12.23
12.93
12.77
11.97
10.83
9.69
8.85
8.51
8.73
9.42
10.44
11.57
12.61
13.38
13.71
13.53
12.84
11.73
10.29
8.61
6.72
4.64
2.47
0.34
-1.53
-3.02
-4.16
-5.17
-6.41
-8.23
-10.79
-14.06
-17.73
-21.31
-24.21
-25.83
-25.72
-23.67
-19.74
-14.35
-8.10
-1.71
4.18
9.13
12.84
15.27
16.48
16.63
15.97
14.82
13.51
12.37
11.64
11.41
11.67
12.30
13.08
13.79
14.30
14.53
14.56
14.45
14.22
13.77
12.84
11.18
8.68
5.41
1.71
-2.03
-5.46
-8.45
-11.04
-13.40
-15.71
-18.16
-20.85
-23.82
-26.89
-29.64
-31.34
-31.24
-28.80
-23.99
-17.43
-10.15
-3.27
2.36
6.39
8.87
10.10
10.39
10.00
9.14
8.08
7.13
6.61
6.70
7.40
8.47
9.55
10.30
10.47
9.98
8.90
7.43
5.76
3.97
2.11
0.11
-2.07
-4.47
-7.02
-9.58
-12.03
-14.25
-16.22
-18.08
-20.07
-22.43
-25.24
-28.24
-30.84
-32.22
-31.61
-28.63
-23.47
-16.83
-9.75
-3.22
2.07
5.83
8.10
9.14
9.27
8.75
7.85
6.76
5.70
4.86
4.35
4.21
4.36
4.61
4.72
4.44
3.56
2.05
0.08
-2.08
-4.06
-5.62
-6.70
-7.49
-8.27
-9.35
-10.89
-12.92
-15.38
-18.17
-21.14
-23.97
-26.11
-26.84
-25.47
-21.67
-15.67
-8.31
-0.71
6.02
11.16
14.50
16.24
16.77
16.48
15.64
14.40
12.88
11.26
9.78
8.76
8.48
9.06
10.32
11.88
13.13
13.57
12.92
11.27
8.96
6.47
4.12
1.99
-0.04
-2.25
-4.83
-7.91
-11.46
-15.41
-19.57
-23.57
-26.88
-28.79
-28.67
-26.13
-21.31
-14.85
-7.70
-0.85
5.02
9.64
13.09
15.64
17.51
18.79
19.43
19.42
18.79
17.76
16.61
15.68
15.14
15.01
15.12
15.20
14.95
14.18
12.80
10.86
8.52
5.99
3.43
0.91
-1.63
-4.31
-7.24
-10.46
-13.97
-17.64
-21.28
-24.53
-26.94
-27.91
-26.95
-23.82
-18.66
-12.12
-5.06
1.67
7.48
12.16
15.79
18.54
20.47
21.55
21.72
21.11
19.99
18.82
18.04
17.87
18.26
18.88
19.33
19.29
18.68
17.61
16.31
14.94
13.49
11.83
9.75
7.19
4.27
1.32
-1.29
-3.30
-4.72
-5.82
-7.06
-8.92
-11.72
-15.56
-20.28
-25.42
-30.33
-34.16
-36.06
-35.38
-31.94
-26.12
-18.81
-11.11
-4.00
1.95
6.60
10.11
12.77
14.82
16.36
17.43
18.08
18.39
18.50
18.61
18.85
19.33
20.02
20.74
21.24
21.29
20.77
19.77
18.50
17.20
16.00
14.85
13.54
11.85
9.68
7.06
4.19
1.36
-1.22
-3.43
-5.34
-7.15
-9.14
-11.58
-14.65
-18.37
-22.58
-26.99
-31.13
-34.37
-36.05
-35.55
-32.52
-27.07
-19.79
-11.64
-3.75
3.00
8.11
11.58
13.75
15.07
15.94
16.55
17.00
17.31
17.61
18.03
18.69
19.56
20.49
21.20
21.42
20.98
19.89
18.31
16.49
14.70
13.11
11.82
10.80
9.88
8.84
7.44
5.58
3.35
0.96
-1.31
-3.34
-5.20
-7.13
-9.43
-12.31
-15.84
-19.92
-24.31
-28.58
-32.19
-34.42
-34.58
-32.20
-27.31
-20.43
-12.51
-4.63
2.34
7.89
11.87
14.45
15.88
16.44
16.38
15.96
15.46
15.14
15.20
15.71
16.60
17.66
18.60
19.17
19.26
18.89
18.17
17.24
16.14
14.89
13.44
11.77
9.89
7.81
5.54
3.11
0.59
-1.92
-4.30
-6.45
-8.43
-10.41
-12.69
-15.46
-18.74
-22.18
-25.14
-26.85
-26.62
-24.14
-19.54
-13.43
-6.64
-0.03
5.77
10.36
13.61
15.52
16.19
15.80
14.59
12.89
11.10
9.56
8.54
8.11
8.10
8.22
8.13
7.62
6.67
5.43
4.14
3.00
2.01
1.02
-0.20
-1.85
-3.93
-6.26
-8.51
-10.34
-11.56
-12.16
-12.34
-12.39
-12.63
-13.29
-14.53
-16.42
-18.87
-21.64
-24.22
-25.92
-26.05
-24.13
-20.13
-14.54
-8.13
-1.81
3.71
7.99
10.86
12.34
12.53
11.66
10.07
8.22
6.63
5.73
5.74
6.60
7.99
9.49
10.67
11.23
11.10
10.42
9.43
8.45
7.63
7.01
6.44
5.70
4.65
3.26
1.68
0.05
-1.52
-3.09
-4.89
-7.20
-10.24
-13.98
-18.08
-21.90
-24.66
-25.71
-24.66
-21.54
-16.78
-11.06
-5.12
0.43
5.15
8.86
11.51
13.20
14.09
14.40
14.38
14.26
14.18
14.19
14.25
14.24
14.02
13.50
12.67
11.58
10.34
8.97
7.40
5.51
3.17
0.35
-2.80
-5.98
-8.90
-11.32
-13.23
-14.79
-16.29
-18.07
-20.39
-23.35
-26.79
-30.24
-32.96
-34.07
-32.85
-28.97
-22.76
-15.07
-7.04
0.27
6.22
10.67
13.82
15.99
17.32
17.77
17.28
15.91
13.95
11.91
10.26
9.30
9.03
9.24
9.60
9.86
9.90
9.65
9.11
8.24
7.00
5.35
3.31
0.90
-1.84
-4.92
-8.38
-12.22
-16.42
-20.78
-24.90
-28.19
-29.97
-29.62
-26.83
-21.81
-15.20
-7.99
-1.20
4.39
8.43
10.94
12.19
12.57
12.44
12.10
11.79
11.64
11.68
11.85
12.07
12.32
12.64
13.06
13.57
13.96
13.98
13.35
11.94
9.83
7.28
4.58
1.96
-0.51
-2.88
-5.26
-7.79
-10.61
-13.86
-17.61
-21.74
-25.84
-29.16
-30.86
-30.23
-27.03
-21.61
-14.81
-7.70
-1.20
4.17
8.28
11.32
13.58
15.28
16.51
17.31
17.66
17.66
17.40
17.05
16.73
16.49
16.33
16.18
15.96
15.60
15.07
14.32
13.30
11.87
9.94
7.42
4.35
0.95
-2.38
-5.27
-7.45
-8.92
-9.99
-11.16
-12.95
-15.64
-19.17
-23.08
-26.56
-28.72
-28.84
-26.59
-22.20
-16.43
-10.28
-4.61
0.07
3.75
6.71
9.26
11.47
13.16
14.06
14.04
13.30
12.27
11.45
11.05
10.98
10.89
10.41
9.40
8.04
6.71
5.75
5.29
5.13
4.88
4.11
2.62
0.51
-1.91
-4.22
-6.15
-7.67
-8.93
-10.21
-11.75
-13.69
-16.07
-18.89
-22.06
-25.37
-28.38
-30.46
-30.88
-29.14
-25.17
-19.43
-12.77
-6.10
-0.15
4.75
8.62
11.66
14.07
15.98
17.41
18.34
18.80
18.92
18.87
18.82
18.84
18.88
18.77
18.35
17.54
16.42
15.20
14.09
13.12
12.15
10.90
9.12
6.77
4.06
1.35
-1.01
-2.90
-4.46
-6.08
-8.21
-11.16
-15.01
-19.52
-24.18
-28.32
-31.24
-32.34
-31.27
-28.03
-22.94
-16.62
-9.84
-3.30
2.47
7.23
11.00
13.93
16.19
17.92
19.13
19.84
20.03
19.77
19.13
18.25
17.20
16.00
14.62
13.04
11.31
9.63
8.21
7.24
6.70
6.41
6.06
5.43
4.43
3.20
2.01
1.07
0.43
-0.06
-0.73
-1.92
-3.91
-6.85
-10.69
-15.19
-19.91
-24.19
-27.28
-28.50
-27.43
-24.09
-18.95
-12.83
-6.58
-0.86
4.04
8.13
11.59
14.58
17.07
18.94
20.06
20.43
20.27
19.89
19.66
19.76
20.21
20.86
21.48
21.91
21.98
21.60
20.70
19.22
17.17
14.66
11.87
9.06
6.42
4.04
1.84
-0.32
-2.56
-4.90
-7.18
-9.17
-10.71
-11.83
-12.77
-13.93
-15.73
-18.47
-22.17
-26.55
-31.02
-34.78
-37.00
-36.99
-34.43
-29.53
-22.94
-15.64
-8.61
-2.58
2.15
5.64
8.27
10.45
12.55
14.75
17.05
19.32
21.34
22.88
23.80
24.10
23.90
23.42
22.86
22.41
22.10
21.84
21.47
20.74
19.49
17.65
15.31
12.67
9.98
7.43
5.09
2.94
0.87
-1.19
-3.25
-5.24
-7.07
-8.69
-10.16
-11.63
-13.32
-15.43
-18.15
-21.52
-25.40
-29.40
-32.85
-34.94
-34.93
-32.40
-27.48
-20.87
-13.63
-6.81
-1.15
3.17
6.38
8.94
11.21
13.29
15.05
16.31
16.98
17.16
17.05
16.85
16.64
16.35
15.88
15.17
14.25
13.23
12.24
11.37
10.62
9.95
9.29
8.56
7.67
6.52
4.98
3.04
0.75
-1.72
-4.16
-6.39
-8.32
-9.97
-11.44
-12.83
-14.27
-15.88
-17.77
-20.07
-22.73
-25.51
-27.88
-29.14
-28.59
-25.86
-21.04
-14.72
-7.81
-1.17
4.48
8.86
11.92
13.78
14.55
14.32
13.21
11.52
9.71
8.27
7.61
7.82
8.66
9.70
10.47
10.69
10.30
9.50
8.58
7.76
7.06
6.32
5.22
3.50
1.06
-1.89
-4.90
-7.48
-9.26
-10.19
-10.59
-10.95
-11.80
-13.49
-16.06
-19.23
-22.42
-24.86
-25.85
-24.87
-21.82
-17.03
-11.18
-5.07
0.62
5.43
9.25
12.13
14.22
15.68
16.66
17.28
17.68
17.97
18.24
18.54
18.81
18.91
18.69
18.04
16.94
15.51
13.94
12.41
11.01
9.66
8.15
6.26
3.88
1.14
-1.63
-4.06
-5.81
-6.84
-7.44
-8.15
-9.57
-12.13
-15.93
-20.57
-25.26
-28.97
-30.68
-29.77
-26.18
-20.46
-13.64
-6.82
-0.91
3.63
6.75
8.69
9.81
10.39
10.65
10.77
10.90
11.19
11.71
12.44
13.20
13.76
13.92
13.58
12.79
11.75
10.67
9.71
8.91
8.09
7.04
5.53
3.51
1.09
-1.45
-3.80
-5.74
-7.26
-8.53
-9.86
-11.61
-14.09
-17.40
-21.41
-25.60
-29.14
-31.08
-30.63
-27.50
-22.02
-15.06
-7.72
-0.97
4.57
8.75
11.73
13.79
15.17
16.09
16.65
16.99
17.19
17.30
17.32
17.20
16.89
16.40
15.81
15.22
14.68
14.25
13.87
13.48
12.94
12.08
10.63
8.40
5.34
1.58
-2.46
-6.23
-9.25
-11.29
-12.49
-13.36
-14.53
-16.48
-19.35
-22.80
-26.08
-28.26
-28.52
-26.41
-22.03
-15.96
-9.12
-2.44
3.34
7.84
10.99
12.92
13.85
14.03
13.67
12.99
12.24
11.60
11.22
11.13
11.22
11.33
11.28
10.97
10.42
9.79
9.24
8.86
8.56
8.11
7.27
5.92
4.14
2.19
0.35
-1.18
-2.42
-3.54
-4.81
-6.52
-8.88
-12.03
-15.93
-20.25
-24.38
-27.46
-28.63
-27.30
-23.42
-17.50
-10.47
-3.37
2.93
7.87
11.28
13.26
14.05
13.96
13.27
12.18
10.92
9.70
8.72
8.19
8.22
8.76
9.59
10.37
10.81
10.72
10.11
9.07
7.74
6.21
4.50
2.63
0.68
-1.20
-2.87
-4.27
-5.41
-6.42
-7.47
-8.75
-10.53
-12.97
-16.14
-19.79
-23.36
-26.02
-26.92
-25.51
-21.70
-15.95
-9.10
-2.09
4.26
9.40
13.09
15.30
16.16
15.91
14.86
13.35
11.70
10.18
8.97
8.14
7.71
7.62
7.75
7.92
7.97
7.79
7.33
6.62
5.72
4.64
3.41
2.04
0.57
-0.94
-2.44
-3.90
-5.41
-7.10
-9.18
-11.82
-15.07
-18.80
-22.63
-25.93
-27.95
-28.02
-25.78
-21.30
-15.13
-8.10
-1.14
4.95
9.65
12.78
14.40
14.77
14.26
13.24
12.02
10.80
9.69
8.75
8.04
7.62
7.56
7.84
8.32
8.75
8.82
8.31
7.17
5.55
3.67
1.81
0.11
-1.41
-2.80
-4.21
-5.74
-7.54
-9.70
-12.31
-15.37
-18.70
-21.90
-24.40
-25.50
-24.66
-21.68
-16.80
-10.69
-4.26
1.63
6.33
9.58
11.39
11.98
11.59
10.49
8.93
7.21
5.60
4.34
3.56
3.28
3.47
4.05
4.88
5.77
6.40
6.44
5.64
4.02
1.83
-0.51
-2.63
-4.36
-5.78
-7.15
-8.70
-10.62
-12.93
-15.63
-18.62
-21.66
-24.31
-25.91
-25.76
-23.38
-18.78
-12.51
-5.53
1.16
6.79
10.99
13.77
15.30
15.79
15.37
14.15
12.30
10.07
7.83
5.93
4.64
4.04
4.06
4.46
4.96
5.24
5.09
4.42
3.26
1.78
0.15
-1.48
-3.08
-4.69
-6.43
-8.44
-10.81
-13.50
-16.36
-19.06
-21.15
-22.11
-21.51
-19.09
-14.95
-9.57
-3.68
1.83
6.25
9.17
10.53
10.61
9.75
8.31
6.59
4.80
3.21
2.09
1.66
2.01
2.98
4.26
5.45
6.25
6.49
6.20
5.47
4.37
2.94
1.20
-0.81
-3.05
-5.48
-8.12
-11.02
-14.23
-17.67
-21.10
-24.03
-25.83
-25.93
-23.97
-20.00
-14.47
-8.14
-1.84
3.74
8.14
11.21
12.98
13.53
13.01
11.62
9.67
7.60
5.89
4.86
4.58
4.78
5.04
4.90
4.09
2.54
0.37
-2.23
-5.09
-7.99
-10.75
-13.15
-15.07
-16.52
-17.73
-19.00
-20.52
-22.24
-23.79
-24.58
-24.07
-21.95
-18.22
-13.17
-7.28
-1.10
4.82
9.97
13.89
16.29
17.04
16.27
14.33
11.71
8.97
6.67
5.24
4.94
5.77
7.40
9.23
10.53
10.66
9.33
6.70
3.29
-0.23
-3.29
-5.60
-7.18
-8.26
-9.17
-10.16
-11.43
-13.01
-14.81
-16.51
-17.66
-17.78
-16.52
-13.91
-10.33
-6.43
-2.83
0.10
2.33
4.14
5.86
7.67
9.51
11.16
12.40
13.13
13.51
13.82
14.34
15.22
16.41
17.66
18.61
18.96
18.53
17.35
15.53
13.28
10.75
8.06
5.29
2.49
-0.33
-3.26
-6.44
-10.04
-14.01
-18.05
-21.58
-23.89
-24.46
-23.11
-20.11
-16.03
-11.47
-6.89
-2.46
1.84
6.08
10.25
14.23
17.83
20.88
23.33
25.17
26.49
27.28
27.53
27.17
26.14
24.51
22.38
19.90
17.14
14.09
10.75
7.14
3.44
-0.09
-3.14
-5.59
-7.44
-8.94
-10.45
-12.31
-14.76
-17.87
-21.45
-25.08
-28.12
-29.80
-29.52
-26.94
-22.27
-16.13
-9.42
-3.03
2.53
7.13
11.03
14.54
17.85
20.84
23.22
24.66
25.09
24.71
23.94
23.26
22.94
23.01
23.29
23.53
23.55
23.31
22.83
22.15
21.27
20.10
18.59
16.69
14.39
11.69
8.62
5.28
1.86
-1.37
-4.14
-6.30
-7.91
-9.24
-10.66
-12.58
-15.26
-18.80
-23.08
-27.74
-32.12
-35.32
-36.44
-34.86
-30.53
-24.04
-16.45
-8.90
-2.24
3.23
7.63
11.28
14.42
17.10
19.18
20.53
21.14
21.21
21.02
20.86
20.90
21.16
21.49
21.66
21.45
20.85
19.98
19.05
18.25
17.58
16.78
15.42
13.12
9.77
5.62
1.26
-2.69
-5.80
-8.01
-9.64
-11.16
-13.00
-15.42
-18.42
-21.89
-25.58
-29.09
-31.94
-33.50
-33.21
-30.74
-26.18
-20.08
-13.26
-6.59
-0.63
4.40
8.56
12.03
14.92
17.25
18.97
20.09
20.73
21.10
21.40
21.71
21.96
21.95
21.52
20.56
19.19
17.61
16.12
14.94
14.09
13.37
12.43
10.88
8.52
5.46
2.12
-0.95
-3.28
-4.72
-5.55
-6.34
-7.73
-10.19
-13.82
-18.39
-23.32
-27.85
-31.13
-32.41
-31.21
-27.51
-21.73
-14.70
-7.38
-0.60
5.15
9.78
13.40
16.20
18.29
19.64
20.23
20.11
19.53
18.82
18.33
18.18
18.33
18.49
18.37
17.84
16.99
16.09
15.39
14.98
14.65
13.96
12.46
9.89
6.34
2.25
-1.79
-5.23
-7.84
-9.72
-11.25
-12.98
-15.38
-18.73
-23.00
-27.82
-32.53
-36.30
-38.23
-37.70
-34.55
-29.17
-22.43
-15.38
-8.93
-3.63
0.46
3.57
6.00
7.99
9.63
10.90
11.84
12.53
13.11
13.74
14.46
15.29
16.13
16.82
17.16
16.95
16.00
14.18
11.49
8.05
4.13
0.02
-3.97
-7.62
-10.81
-13.56
-15.96
-18.17
-20.42
-22.82
-25.33
-27.64
-29.19
-29.25
-27.25
-22.91
-16.48
-8.74
-0.72
6.53
12.30
16.31
18.70
19.86
20.15
19.81
18.93
17.62
16.02
14.42
13.17
12.49
12.38
12.63
12.84
12.60
11.64
9.88
7.45
4.66
1.82
-0.84
-3.24
-5.43
-7.55
-9.74
-12.11
-14.80
-17.88
-21.39
-25.13
-28.64
-31.14
-31.77
-29.89
-25.40
-18.90
-11.45
-4.27
1.77
6.33
9.60
12.05
14.12
15.99
17.57
18.59
18.80
18.16
16.87
15.31
13.85
12.78
12.17
11.92
11.79
11.50
10.84
9.69
8.04
5.96
3.52
0.89
-1.80
-4.41
-6.88
-9.28
-11.77
-14.60
-17.92
-21.64
-25.28
-28.08
-29.13
-27.80
-23.91
-17.89
-10.68
-3.35
3.15
8.25
11.78
13.92
15.02
15.45
15.51
15.43
15.32
15.27
15.32
15.41
15.46
15.34
14.98
14.35
13.56
12.73
11.96
11.21
10.33
9.08
7.24
4.76
1.78
-1.42
-4.47
-7.09
-9.21
-10.98
-12.74
-14.94
-17.91
-21.75
-26.13
-30.27
-33.17
-33.86
-31.82
-27.11
-20.47
-13.00
-5.79
0.42
5.36
9.12
11.99
14.18
15.77
16.78
17.26
17.32
17.16
16.96
16.76
16.51
16.10
15.47
14.69
13.96
13.48
13.31
13.30
13.10
12.28
10.53
7.80
4.28
0.37
-3.51
-7.00
-9.93
-12.33
-14.39
-16.42
-18.75
-21.61
-25.02
-28.71
-32.12
-34.40
-34.75
-32.59
-27.87
-21.10
-13.20
-5.21
1.99
7.92
12.50
15.90
18.34
19.97
20.86
21.08
20.73
19.98
19.04
18.07
17.11
16.11
15.00
13.74
12.41
11.16
10.17
9.50
9.07
8.60
7.75
6.22
3.95
1.13
-1.78
-4.33
-6.13
-7.16
-7.71
-8.28
-9.41
-11.49
-14.65
-18.72
-23.21
-27.42
-30.49
-31.64
-30.33
-26.49
-20.54
-13.34
-5.89
0.93
6.54
10.75
13.59
15.27
16.05
16.18
16.01
15.84
15.94
16.41
17.15
17.88
18.30
18.19
17.50
16.37
15.07
13.88
12.92
12.10
11.14
9.73
7.66
4.94
1.82
-1.40
-4.45
-7.27
-9.89
-12.46
-15.13
-17.98
-21.05
-24.25
-27.34
-29.80
-30.96
-30.12
-26.85
-21.29
-14.16
-6.53
0.45
5.98
9.72
11.77
12.47
12.24
11.42
10.32
9.15
8.11
7.28
6.69
6.32
6.07
5.87
5.67
5.47
5.26
5.05
4.80
4.43
3.78
2.69
1.04
-1.17
-3.78
-6.51
-9.04
-11.14
-12.78
-14.21
-15.85
-18.16
-21.32
-25.11
-28.75
-31.14
-31.18
-28.24
-22.42
-14.57
-6.01
1.93
8.30
12.69
15.18
16.11
15.85
14.66
12.82
10.67
8.63
7.09
6.30
6.26
6.73
7.35
7.75
7.67
6.95
5.61
3.75
1.58
-0.71
-2.92
-4.96
-6.86
-8.68
-10.52
-12.44
-14.51
-16.82
-19.42
-22.26
-24.99
-27.02
-27.57
-26.06
-22.25
-16.50
-9.59
-2.54
3.76
8.79
12.41
14.84
16.40
17.36
17.79
17.67
16.95
15.71
14.25
12.96
12.22
12.14
12.51
12.93
12.95
12.29
10.91
9.01
6.84
4.61
2.38
0.09
-2.32
-4.87
-7.55
-10.32
-13.21
-16.33
-19.72
-23.25
-26.49
-28.69
-29.03
-26.94
-22.37
-15.88
-8.46
-1.15
5.32
10.72
15.25
19.30
23.14
26.84
30.15
32.73
34.31
34.84
34.55
33.79
32.84
31.79
30.44
28.45
25.49
21.42
16.41
10.80
5.06
-0.46
-5.54
-10.19
-14.47
-18.51
-22.38
-26.08
-29.58
-32.87
-35.94
-38.75
-41.10
-42.53
-42.45
-40.32
-35.91
-29.49
-21.83
-13.94
-6.67
-0.46
4.73
9.21
13.30
17.06
20.25
22.52
23.59
23.39
22.20
20.39
18.39
16.50
14.81
13.32
12.04
11.01
10.35
10.13
10.23
10.34
10.00
8.84
6.72
3.89
0.83
-1.94
-4.14
-5.87
-7.53
-9.65
-12.67
-16.76
-21.74
-27.13
-32.18
-36.04
-37.91
-37.20
-33.75
-27.91
-20.45
-12.36
-4.60
2.20
7.77
12.25
15.88
18.90
21.40
23.27
24.36
24.58
24.05
23.06
21.95
20.92
19.97
18.92
17.57
15.96
14.31
13.02
12.35
12.29
12.51
12.46
11.67
9.90
7.26
4.08
0.76
-2.35
-5.15
-7.73
-10.37
-13.34
-16.90
-21.12
-25.82
-30.53
-34.52
-36.95
-37.05
-34.38
-29.03
-21.57
-13.03
-4.51
3.08
9.14
13.50
16.31
17.80
18.28
18.00
17.21
16.22
15.36
14.87
14.90
15.37
15.99
16.43
16.41
15.87
14.97
13.88
12.74
11.41
9.65
7.25
4.25
0.97
-2.12
-4.60
-6.30
-7.32
-7.94
-8.51
-9.27
-10.42
-12.19
-14.80
-18.34
-22.60
-26.98
-30.50
-32.15
-31.23
-27.66
-21.99
-15.21
-8.38
-2.25
2.89
7.17
10.88
14.20
17.09
19.32
20.68
21.18
21.07
20.69
20.31
19.91
19.26
18.11
16.32
14.13
11.92
10.07
8.74
7.80
6.94
5.81
4.28
2.37
0.33
-1.65
-3.43
-5.03
-6.62
-8.46
-10.82
-13.88
-17.60
-21.65
-25.45
-28.23
-29.24
-27.99
-24.40
-18.87
-12.15
-5.16
1.23
6.49
10.41
13.11
14.89
15.98
16.52
16.50
15.93
14.87
13.52
12.13
10.89
9.89
9.10
8.48
7.95
7.44
6.85
6.07
5.01
3.64
2.08
0.49
-1.00
-2.32
-3.58
-4.92
-6.50
-8.47
-10.93
-13.92
-17.35
-20.89
-23.98
-25.89
-25.98
-23.98
-20.11
-15.05
-9.72
-4.95
-1.22
1.36
2.95
3.89
4.48
4.90
5.22
5.43
5.51
5.47
5.48
5.74
6.51
7.88
9.69
11.61
13.15
13.95
13.83
12.89
11.38
9.57
7.61
5.49
3.14
0.48
-2.53
-5.86
-9.49
-13.38
-17.34
-20.99
-23.69
-24.73
-23.54
-20.02
-14.59
-8.16
-1.77
3.75
7.96
10.84
12.60
13.45
13.53
12.90
11.65
9.96
8.14
6.52
5.36
4.74
4.58
4.64
4.59
4.10
2.93
1.04
-1.42
-4.18
-6.91
-9.39
-11.56
-13.55
-15.60
-17.93
-20.67
-23.69
-26.58
-28.70
-29.34
-27.92
-24.27
-18.66
-11.79
-4.52
2.35
8.32
13.21
16.96
19.58
21.03
21.24
20.24
18.25
15.71
13.13
10.94
9.37
8.38
7.70
6.97
5.94
4.55
2.91
1.26
-0.20
-1.45
-2.63
-3.98
-5.77
-8.16
-11.26
-15.05
-19.40
-23.98
-28.19
-31.20
-32.13
-30.41
-26.01
-19.57
-12.17
-4.97
1.19
5.99
9.58
12.30
14.42
15.98
16.84
16.82
15.96
14.49
12.84
11.44
10.53
10.08
9.84
9.46
8.71
7.51
5.98
4.33
2.70
1.06
-0.73
-2.85
-5.48
-8.70
-12.51
-16.76
-21.23
-25.44
-28.79
-30.56
-30.18
-27.43
-22.51
-16.12
-9.15
-2.50
3.24
7.82
11.25
13.71
15.37
16.32
16.64
16.40
15.70
14.73
13.63
12.55
11.63
10.92
10.49
10.34
10.41
10.54
10.49
10.00
8.87
7.07
4.67
1.88
-1.10
-4.10
-7.12
-10.25
-13.68
-17.53
-21.78
-26.17
-30.13
-32.91
-33.73
-32.07
-27.79
-21.30
-13.44
-5.24
2.34
8.70
13.66
17.40
20.22
22.38
23.95
24.91
25.20
24.87
24.10
23.10
22.05
21.08
20.21
19.48
18.93
18.55
18.28
17.88
17.03
15.41
12.86
9.46
5.59
1.77
-1.46
-3.84
-5.41
-6.57
-7.94
-10.11
-13.48
-18.02
-23.29
-28.43
-32.38
-34.17
-33.23
-29.60
-23.90
-17.18
-10.55
-4.80
-0.26
3.23
6.06
8.61
11.05
13.26
15.07
16.35
17.19
17.90
18.81
20.16
21.91
23.79
25.42
26.56
27.14
27.24
27.00
26.39
25.27
23.46
20.80
17.36
13.34
9.04
4.72
0.54
-3.40
-7.11
-10.63
-14.06
-17.58
-21.38
-25.64
-30.39
-35.43
-40.29
-44.17
-46.15
-45.43
-41.63
-34.97
-26.30
-16.82
-7.71
0.22
6.71
11.95
16.35
20.22
23.67
26.52
28.54
29.57
29.62
28.92
27.80
26.58
25.49
24.62
23.95
23.42
23.01
22.68
22.35
21.84
20.90
19.31
16.99
14.13
11.07
8.21
5.83
3.90
2.20
0.37
-1.84
-4.44
-7.21
-9.84
-12.16
-14.21
-16.26
-18.69
-21.82
-25.77
-30.37
-35.18
-39.53
-42.62
-43.64
-42.02
-37.64
-30.90
-22.66
-14.01
-5.87
1.18
7.00
11.71
15.51
18.54
20.84
22.44
23.46
24.08
24.47
24.75
24.92
24.95
24.84
24.63
24.42
24.27
24.17
24.00
23.59
22.77
21.45
19.62
17.35
14.78
12.03
9.20
6.29
3.27
0.07
-3.35
-6.88
-10.30
-13.36
-15.85
-17.75
-19.24
-20.67
-22.46
-24.95
-28.26
-32.29
-36.57
-40.43
-43.02
-43.56
-41.55
-36.94
-30.22
-22.32
-14.30
-7.09
-1.26
3.09
6.20
8.46
10.17
11.47
12.33
12.70
12.66
12.42
12.26
12.43
12.99
13.79
14.58
15.06
15.08
14.65
13.91
13.03
12.12
11.18
10.06
8.63
6.78
4.52
2.02
-0.49
-2.72
-4.53
-5.93
-7.11
-8.34
-9.90
-11.97
-14.60
-17.76
-21.25
-24.73
-27.64
-29.34
-29.18
-26.79
-22.26
-16.14
-9.32
-2.70
3.05
7.65
11.08
13.46
14.91
15.46
15.24
14.47
13.53
12.87
12.81
13.46
14.66
16.08
17.35
18.26
18.75
18.89
18.76
18.36
17.54
16.08
13.81
10.69
6.92
2.84
-1.16
-4.79
-7.89
-10.54
-12.96
-15.40
-18.18
-21.49
-25.46
-29.94
-34.48
-38.31
-40.53
-40.29
-37.16
-31.34
-23.59
-15.03
-6.79
0.30
5.88
9.97
12.83
14.79
16.12
17.02
17.65
18.08
18.34
18.44
18.33
17.97
17.46
16.92
16.47
16.19
16.02
15.78
15.29
14.30
12.69
10.40
7.47
4.07
0.44
-3.07
-6.18
-8.75
-10.89
-12.96
-15.39
-18.56
-22.51
-26.83
-30.68
-33.06
-33.09
-30.37
-25.10
-18.03
-10.18
-2.58
4.02
9.24
13.03
15.54
17.02
17.70
17.82
17.59
17.24
16.97
16.89
17.04
17.34
17.66
17.79
17.60
16.99
16.03
14.82
13.50
12.09
10.52
8.63
6.28
3.46
0.34
-2.80
-5.65
-8.06
-10.15
-12.22
-14.74
-18.13
-22.56
-27.82
-33.26
-37.91
-40.71
-40.85
-37.98
-32.34
-24.68
-15.96
-7.17
0.87
7.55
12.50
15.59
16.96
17.03
16.37
15.61
15.17
15.20
15.58
16.04
16.34
16.32
16.01
15.50
14.92
14.32
13.63
12.68
11.24
9.15
6.43
3.26
-0.01
-3.03
-5.63
-7.84
-9.91
-12.15
-14.88
-18.27
-22.30
-26.69
-30.88
-34.06
-35.36
-34.13
-30.15
-23.82
-16.03
-7.90
-0.42
5.77
10.41
13.56
15.44
16.31
16.43
16.10
15.60
15.16
14.93
14.92
15.06
15.24
15.31
15.12
14.54
13.49
11.95
10.00
7.75
5.37
2.97
0.63
-1.57
-3.50
-5.05
-6.20
-7.04
-7.92
-9.29
-11.61
-15.09
-19.53
-24.28
-28.36
-30.72
-30.58
-27.64
-22.19
-15.04
-7.25
0.14
6.40
11.19
14.58
16.83
18.22
18.93
19.08
18.76
18.13
17.41
16.79
16.37
16.12
15.91
15.64
15.26
14.75
14.15
13.39
12.33
10.80
8.72
6.14
3.24
0.28
-2.53
-5.15
-7.70
-10.46
-13.71
-17.58
-21.89
-26.10
-29.34
-30.72
-29.54
-25.59
-19.23
-11.35
-3.07
4.48
10.50
14.67
17.05
17.97
17.84
17.03
15.80
14.38
12.96
11.74
10.90
10.55
10.72
11.28
12.02
12.69
13.03
12.89
12.17
10.90
9.20
7.19
5.03
2.78
0.42
-2.11
-4.93
-8.17
-11.96
-16.37
-21.36
-26.61
-31.49
-35.08
-36.44
-34.89
-30.29
-23.28
-15.00
-6.84
0.03
4.97
7.93
9.27
9.47
8.90
7.77
6.16
4.23
2.32
0.86
0.26
0.73
2.14
4.10
6.10
7.70
8.70
9.12
9.11
8.82
8.26
7.38
6.04
4.08
1.40
-2.05
-6.30
-11.26
-16.65
-21.97
-26.44
-29.18
-29.44
-26.88
-21.68
-14.55
-6.49
1.47
8.54
14.21
18.32
20.84
21.87
21.53
20.06
17.83
15.39
13.28
11.97
11.67
12.23
13.17
13.83
13.60
12.13
9.39
5.74
1.73
-2.12
-5.51
-8.41
-11.05
-13.77
-16.86
-20.46
-24.52
-28.81
-32.82
-35.88
-37.17
-35.99
-32.03
-25.56
-17.37
-8.61
-0.32
6.83
12.63
17.23
20.81
23.48
25.13
25.64
25.00
23.43
21.30
19.07
17.06
15.42
14.11
12.94
11.70
10.19
8.35
6.22
3.94
1.68
-0.48
-2.50
-4.49
-6.55
-8.77
-11.25
-14.04
-17.18
-20.55
-23.80
-26.31
-27.29
-26.03
-22.26
-16.27
-8.94
-1.41
5.31
10.59
14.38
16.99
18.90
20.47
21.84
22.96
23.66
23.81
23.39
22.51
21.29
19.84
18.22
16.46
14.61
12.72
10.85
8.97
6.97
4.66
1.84
-1.56
-5.44
-9.53
-13.50
-17.11
-20.31
-23.33
-26.51
-30.18
-34.41
-38.83
-42.71
-45.05
-44.95
-41.89
-36.01
-28.03
-19.05
-10.25
-2.52
3.76
8.62
12.40
15.48
18.10
20.30
21.95
22.95
23.27
23.06
22.58
22.12
21.90
21.91
21.99
21.83
21.15
19.75
17.64
14.90
11.67
8.02
3.98
-0.36
-4.85
-9.15
-12.96
-16.12
-18.76
-21.21
-23.81
-26.57
-29.08
-30.52
-30.05
-27.14
-21.86
-14.83
-6.97
0.74
7.62
13.32
17.74
20.94
23.01
24.08
24.31
23.89
23.10
22.16
21.26
20.45
19.74
19.05
18.30
17.44
16.50
15.55
14.64
13.71
12.59
10.98
8.67
5.64
2.16
-1.33
-4.34
-6.64
-8.29
-9.68
-11.36
-13.86
-17.48
-22.21
-27.64
-33.00
-37.31
-39.54
-38.98
-35.44
-29.34
-21.62
-13.34
-5.42
1.61
7.63
12.74
17.07
20.64
23.38
25.22
26.20
26.47
26.26
25.76
25.07
24.20
23.11
21.76
20.18
18.49
16.77
15.12
13.56
12.03
10.37
8.42
6.10
3.44
0.60
-2.19
-4.75
-7.02
-9.16
-11.44
-14.24
-17.87
-22.45
-27.79
-33.34
-38.21
-41.39
-41.95
-39.46
-34.04
-26.39
-17.57
-8.70
-0.60
6.28
11.85
16.21
19.50
21.80
23.11
23.49
23.07
22.12
21.05
20.24
19.98
20.36
21.23
22.28
23.19
23.68
23.68
23.23
22.43
21.33
19.86
17.84
15.05
11.42
7.07
2.39
-2.12
-6.00
-9.04
-11.31
-13.15
-15.05
-17.45
-20.67
-24.85
-29.80
-35.07
-39.90
-43.34
-44.49
-42.77
-38.10
-30.97
-22.32
-13.19
-4.50
3.21
9.70
15.01
19.27
22.59
25.00
26.49
27.10
26.97
26.33
25.49
24.68
24.01
23.41
22.75
21.92
20.98
20.03
19.19
18.46
17.64
16.51
14.81
12.49
9.66
6.53
3.29
0.11
-2.97
-5.88
-8.56
-10.98
-13.10
-15.09
-17.21
-19.82
-23.14
-27.17
-31.51
-35.41
-37.96
-38.35
-36.11
-31.30
-24.46
-16.50
-8.38
-0.89
5.51
10.70
14.79
17.94
20.23
21.69
22.40
22.56
22.53
22.64
23.09
23.83
24.52
24.82
24.47
23.46
22.00
20.37
18.75
17.15
15.40
13.25
10.49
7.07
3.13
-1.07
-5.16
-8.83
-11.87
-14.22
-16.06
-17.66
-19.40
-21.64
-24.70
-28.66
-33.39
-38.44
-43.05
-46.32
-47.34
-45.54
-40.89
-33.91
-25.58
-17.01
-9.14
-2.49
2.79
6.85
9.90
12.09
13.54
14.44
15.01
15.55
16.32
17.33
18.41
19.25
19.54
19.14
18.11
16.66
15.01
13.25
11.28
8.92
6.07
2.76
-0.71
-3.99
-6.71
-8.74
-10.20
-11.48
-13.03
-15.33
-18.63
-22.89
-27.73
-32.38
-35.85
-37.10
-35.40
-30.54
-22.99
-13.75
-4.11
4.70
11.87
16.99
20.10
21.47
21.44
20.42
18.82
17.11
15.70
14.90
14.79
15.20
15.78
16.16
16.07
15.43
14.37
13.11
11.89
10.75
9.62
8.31
6.63
4.50
1.98
-0.74
-3.45
-6.04
-8.54
-11.13
-14.09
-17.66
-21.97
-26.87
-31.86
-36.09
-38.52
-38.23
-34.82
-28.55
-20.43
-11.85
-4.17
1.72
5.60
7.80
8.94
9.57
10.02
10.32
10.44
10.34
10.11
9.89
9.77
9.72
9.65
9.48
9.21
8.95
8.82
8.75
8.45
7.43
5.20
1.58
-3.24
-8.72
-14.21
-19.21
-23.52
-27.26
-30.70
-34.09
-37.53
-41.02
-44.38
-47.33
-49.33
-49.60
-47.25
-41.57
-32.39
-20.26
-6.39
7.60
20.19
30.23
37.12
40.80
41.57
40.06
37.03
33.29
29.59
26.45
24.12
22.59
21.66
21.12
20.83
20.72
20.76
20.94
21.13
21.15
20.76
19.71
17.87
15.26
12.08
8.62
5.20
2.02
-0.82
-3.42
-5.97
-8.72
-11.92
-15.75
-20.13
-24.67
-28.66
-31.18
-31.39
-28.85
-23.71
-16.66
-8.77
-1.12
5.45
10.53
14.11
16.46
17.97
19.04
20.03
21.23
22.85
25.02
27.64
30.48
33.07
34.90
35.57
34.91
33.01
30.13
26.57
22.56
18.24
13.70
9.12
4.74
0.82
-2.44
-5.07
-7.26
-9.37
-11.83
-15.10
-19.49
-25.12
-31.72
-38.55
-44.54
-48.47
-49.36
-46.82
-41.14
-33.15
-23.93
-14.50
-5.56
2.44
9.21
14.57
18.40
20.70
21.67
21.69
21.18
20.54
19.99
19.61
19.35
19.08
18.64
17.89
16.74
15.17
13.24
11.03
8.61
6.03
3.30
0.42
-2.55
-5.53
-8.42
-11.19
-13.85
-16.49
-19.29
-22.40
-25.93
-29.74
-33.34
-35.91
-36.51
-34.29
-28.94
-20.81
-10.94
-0.71
8.51
15.78
20.74
23.57
24.72
24.72
24.01
22.82
21.35
19.75
18.26
17.06
16.25
15.74
15.25
14.50
13.30
11.66
9.75
7.77
5.79
3.77
1.61
-0.74
-3.22
-5.67
-7.95
-10.07
-12.18
-14.56
-17.47
-21.13
-25.53
-30.45
-35.30
-39.23
-41.23
-40.49
-36.68
-30.21
-22.12
-13.74
-6.28
-0.46
3.64
6.31
7.99
8.96
9.33
9.14
8.50
7.65
6.92
6.57
6.69
7.17
7.74
8.12
8.08
7.52
6.42
4.86
3.01
1.04
-0.90
-2.76
-4.59
-6.55
-8.81
-11.49
-14.63
-18.11
-21.71
-24.99
-27.37
-28.14
-26.67
-22.65
-16.31
-8.36
0.10
7.97
14.46
19.17
22.11
23.50
23.60
22.68
20.98
18.83
16.61
14.74
13.51
13.01
13.11
13.45
13.64
13.35
12.42
10.90
8.91
6.62
4.13
1.44
-1.54
-4.90
-8.73
-13.12
-18.14
-23.73
-29.64
-35.28
-39.82
-42.29
-41.92
-38.46
-32.32
-24.47
-16.09
-8.17
-1.30
4.49
9.41
13.72
17.46
20.42
22.33
23.04
22.64
21.52
20.21
19.15
18.55
18.33
18.19
17.73
16.66
14.87
12.48
9.76
7.03
4.49
2.19
0.02
-2.21
-4.72
-7.71
-11.32
-15.53
-20.13
-24.56
-28.01
-29.51
-28.29
-24.05
-17.14
-8.51
0.57
8.91
15.75
20.83
24.38
26.78
28.39
29.39
29.80
29.54
28.63
27.19
25.39
23.47
21.56
19.68
17.72
15.58
13.16
10.50
7.70
4.95
2.41
0.17
-1.82
-3.72
-5.74
-8.03
-10.69
-13.82
-17.51
-21.88
-26.89
-32.31
-37.44
-41.32
-42.87
-41.36
-36.67
-29.38
-20.61
-11.58
-3.25
3.94
9.98
15.15
19.66
23.55
26.68
28.84
29.96
30.12
29.60
28.73
27.74
26.74
25.69
24.55
23.30
22.03
20.87
19.86
18.84
17.49
15.41
12.35
8.37
3.83
-0.70
-4.74
-8.05
-10.72
-13.12
-15.72
-18.96
-23.07
-27.97
-33.23
-38.10
-41.58
-42.65
-40.66
-35.51
-27.78
-18.54
-9.01
-0.19
7.38
13.61
18.64
22.62
25.54
27.29
27.75
26.99
25.31
23.19
21.12
19.45
18.31
17.60
17.11
16.61
16.01
15.35
14.80
14.52
14.59
14.87
15.05
14.70
13.45
11.13
7.87
