1563476928.00
64.000000
-0.00
-0.00
-0.00
-0.00
-0.00
-0.00
-0.00
-0.00
-0.00
-0.00
0.00
0.01
0.01
-0.00
-0.03
-0.05
-0.05
0.00
0.13
0.36
0.66
1.01
1.37
1.72
2.06
2.40
2.79
3.24
3.80
4.42
5.07
5.68
6.24
6.76
7.29
7.91
8.68
9.70
10.89
12.13
13.31
14.38
15.38
16.48
17.89
19.76
22.31
25.34
28.59
31.76
34.68
37.45
40.37
43.90
48.36
54.14
60.89
68.09
75.17
81.77
87.99
94.34
101.55
110.17
120.75
132.81
145.54
158.05
169.80
180.84
191.84
204.18
216.62
231.42
249.22
270.09
292.81
314.46
330.75
337.06
330.10
309.03
276.26
235.64
191.47
146.92
103.53
61.55
20.90
-18.13
-54.72
-87.53
-115.88
-139.52
-158.84
-174.28
-185.94
-193.62
-196.93
-195.82
-190.55
-182.17
-172.06
-161.62
-151.91
-143.41
-136.14
-129.36
-122.51
-115.18
-107.48
-99.77
-92.52
-86.04
-80.38
-75.33
-70.56
-65.82
-60.97
-56.11
-51.44
-47.20
-43.53
-40.45
-37.83
-35.49
-33.29
-31.16
-29.10
-27.17
-25.44
-23.96
-22.74
-21.74
-20.91
-20.23
-19.69
-19.26
-18.93
-18.71
-18.57
-18.50
-18.47
-18.47
-18.48
-18.50
-18.51
-18.50
-18.45
-18.37
-18.25
-18.08
-17.88
-17.65
-17.42
-17.16
-16.87
-16.55
-16.19
-15.79
-15.36
-14.91
-14.44
-13.97
-13.51
-13.04
-12.60
-12.18
-11.79
-11.43
-11.07
-10.74
-10.43
-10.13
-9.86
-9.65
-9.51
-9.44
-9.51
-9.72
-10.09
-10.59
-11.22
-11.95
-12.69
-13.43
-14.14
-14.80
-15.40
-15.93
-16.40
-16.79
-17.10
-17.32
-17.47
-17.57
-17.66
-17.75
-17.94
-18.27
-18.77
-19.45
-20.32
-21.34
-22.51
-23.80
-25.25
-26.89
-28.69
-30.59
-32.50
-34.29
-35.91
-37.36
-38.77
-40.36
-42.32
-44.79
-47.82
-51.36
-55.33
-59.64
-64.30
-69.36
-74.94
-81.10
-87.91
-95.41
-103.65
-112.67
-122.50
-133.10
-144.22
-155.53
-166.94
-178.93
-192.73
-210.01
-231.84
-257.50
-284.09
-307.16
-322.43
-327.43
-322.37
-309.55
-291.77
-270.88
-247.43
-221.61
-194.50
-168.49
-146.36
-129.61
-117.28
-106.26
-93.06
-75.89
-55.86
-36.22
-20.35
-9.59
-2.49
4.29
13.92
27.46
43.06
57.16
66.67
70.91
72.08
74.09
80.11
90.64
102.98
112.96
117.46
116.47
113.07
111.78
115.64
124.39
134.48
141.19
141.38
135.49
127.22
121.46
121.28
126.39
133.19
136.75
133.63
123.89
111.14
100.55
96.03
98.01
103.36
107.11
105.28
97.20
85.76
75.64
70.45
70.72
73.53
74.39
69.97
60.01
47.53
37.11
32.25
33.46
38.04
41.61
40.61
34.38
25.49
18.28
16.28
20.12
27.05
32.46
32.58
26.67
17.57
10.04
7.88
11.60
18.19
22.85
21.89
14.93
5.11
-2.67
-4.67
-0.42
7.06
13.10
14.15
9.84
3.04
-1.86
-1.58
3.98
11.77
17.26
17.22
11.55
3.48
-2.37
-2.47
3.47
12.33
19.27
20.44
15.17
6.32
-1.22
-3.49
0.31
7.48
13.30
13.99
8.96
1.07
-5.06
-5.73
-0.43
7.92
14.59
15.94
11.49
4.20
-1.38
-1.73
3.58
11.71
18.13
19.33
14.80
7.41
1.61
0.91
5.54
12.44
17.05
16.02
9.30
0.10
-7.04
-8.91
-5.51
0.18
4.00
3.23
-1.72
-7.46
-9.80
-6.15
2.79
13.30
20.60
21.34
15.42
6.19
-1.43
-3.72
-0.08
6.67
11.91
12.18
7.04
-0.52
-6.10
-6.36
-1.19
6.28
11.46
11.02
4.94
-3.49
-9.56
-9.97
-4.62
3.33
9.26
9.61
4.08
-4.17
-10.44
-11.09
-5.67
2.88
9.89
11.74
7.88
1.16
-4.07
-4.66
-0.44
5.74
9.70
8.66
2.88
-4.37
-8.82
-7.63
-1.17
7.23
13.13
13.54
8.62
1.63
-3.08
-2.58
2.86
9.99
14.45
13.35
7.11
-0.64
-5.36
-4.13
2.45
10.54
15.24
13.54
6.04
-3.26
-9.35
-9.26
-3.47
4.21
9.03
8.05
1.76
-6.18
-11.29
-10.72
-4.97
2.73
8.16
8.55
4.15
-2.03
-6.01
-5.10
0.32
7.11
11.08
9.48
2.71
-5.72
-11.31
-11.15
-5.61
1.86
6.76
6.38
1.08
-5.78
-9.79
-8.34
-1.92
6.09
11.34
10.95
5.12
-2.96
-8.86
-9.26
-3.97
4.26
11.18
13.44
10.37
4.24
-1.10
-2.52
0.55
5.72
9.21
8.06
2.11
-5.95
-11.92
-12.62
-7.83
-0.54
4.72
4.64
-0.79
-8.20
-12.73
-11.04
-3.53
5.91
12.00
11.24
4.01
-5.67
-12.45
-12.64
-6.36
2.75
9.78
11.36
7.51
1.31
-3.04
-2.73
1.97
7.94
11.28
9.63
3.77
-2.87
-6.02
-3.34
4.12
12.35
16.69
14.44
6.52
-2.89
-8.69
-7.66
-0.50
8.70
14.65
13.89
6.85
-2.56
-9.11
-9.30
-3.43
4.71
10.03
9.15
2.41
-6.51
-12.86
-13.50
-8.59
-1.40
3.80
4.32
0.52
-4.69
-7.59
-5.96
-0.34
6.13
9.69
7.97
1.62
-6.01
-10.70
-9.68
-3.31
4.97
10.52
10.16
4.15
-4.01
-9.49
-8.98
-2.71
5.69
11.27
10.59
3.90
-5.04
-11.29
-11.48
-5.72
2.49
8.41
8.70
3.39
-4.25
-9.75
-10.04
-5.16
1.80
6.65
6.57
1.83
-4.36
-7.80
-5.99
0.44
7.97
12.13
10.18
2.76
-6.41
-12.58
-12.59
-6.64
1.92
8.46
9.72
5.59
-0.73
-4.79
-3.48
3.04
11.26
16.36
14.97
7.28
-2.93
-10.42
-11.41
-5.85
2.64
8.96
9.44
3.98
-3.99
-9.55
-9.36
-3.56
4.46
10.19
10.72
6.36
0.36
-3.27
-2.20
2.74
8.29
10.72
8.18
1.79
-5.08
-8.77
-7.48
-2.25
3.47
5.83
2.67
-5.05
-13.76
-19.01
-17.98
-11.18
-2.23
4.22
5.26
1.37
-3.95
-6.35
-3.41
3.86
11.50
15.30
13.25
6.84
0.11
-2.94
-0.56
5.65
11.85
14.16
10.93
3.59
-4.09
-8.07
-6.47
-0.41
6.35
9.63
7.14
-0.12
-8.43
-13.41
-12.53
-6.55
0.92
5.35
4.03
-2.42
-10.26
-14.78
-13.07
-5.72
3.49
9.81
10.04
4.49
-3.28
-8.58
-8.31
-2.80
4.39
8.70
7.33
0.78
-7.39
-12.63
-12.13
-6.24
1.75
7.66
8.87
5.76
1.30
-0.75
1.86
8.35
15.38
18.87
16.61
9.58
1.55
-2.98
-1.59
4.75
12.09
15.79
13.26
5.45
-3.63
-9.33
-9.02
-3.54
3.37
7.14
5.21
-1.57
-9.37
-13.65
-11.91
-5.10
2.74
6.75
4.07
-4.37
-14.25
-20.30
-19.31
-11.78
-1.79
5.47
6.61
1.86
-5.07
-9.21
-7.47
-0.32
8.44
13.97
13.29
6.99
-1.17
-6.46
-6.07
-0.82
5.40
8.17
5.16
-2.46
-10.65
-14.88
-12.89
-5.99
1.77
5.83
3.87
-3.03
-10.93
-15.23
-13.34
-5.96
3.15
9.50
10.44
6.58
1.40
-0.95
1.74
8.33
14.90
17.00
12.65
3.55
-5.60
-9.91
-7.04
1.32
10.29
14.72
12.08
3.80
-5.61
-11.20
-10.55
-4.87
1.99
5.85
4.86
0.32
-4.11
-4.85
-0.67
6.62
13.13
15.16
11.21
3.09
-5.04
-8.92
-6.58
0.53
8.26
11.91
8.93
0.32
-9.74
-16.13
-15.72
-9.08
-0.29
5.44
4.76
-1.85
-10.40
-15.58
-14.09
-6.56
2.80
8.85
8.60
2.85
-4.29
-8.11
-6.17
0.12
6.54
8.74
4.95
-3.06
-10.91
-14.28
-11.13
-2.87
6.47
12.41
12.47
7.28
0.23
-4.47
-4.07
1.20
8.33
13.16
12.90
7.80
0.95
-3.29
-2.07
4.10
11.53
15.54
13.34
5.77
-3.13
-8.67
-8.18
-2.59
4.19
7.69
5.58
-0.92
-7.86
-11.04
-8.40
-1.34
6.00
9.22
6.15
-1.84
-10.62
-15.45
-13.70
-6.34
2.56
8.17
7.64
1.82
-5.48
-9.72
-8.38
-2.37
4.57
8.10
5.82
-1.27
-9.43
-14.32
-13.32
-7.03
1.08
6.56
6.56
1.53
-5.09
-8.98
-7.43
-0.85
7.32
12.71
12.55
7.43
0.80
-3.06
-1.64
4.30
11.18
14.84
12.97
6.37
-1.38
-6.16
-5.53
-0.21
6.28
9.74
7.63
0.70
-7.40
-12.30
-11.40
-5.28
2.55
7.72
7.43
2.08
-5.08
-9.81
-9.53
-4.74
1.45
5.34
4.90
0.94
-3.50
-5.09
-2.33
3.42
8.73
10.18
6.48
-0.69
-7.56
-10.57
-8.12
-1.62
5.33
8.94
7.29
1.48
-5.00
-8.30
-6.37
-0.19
6.60
9.80
7.05
-0.50
-8.82
-13.14
-10.76
-2.93
5.94
10.71
8.55
0.59
-8.71
-14.23
-13.17
-6.59
1.48
6.58
6.32
1.70
-3.74
-6.24
-3.92
2.13
8.49
11.42
9.04
2.54
-4.41
-7.77
-5.29
1.86
9.68
13.35
9.98
0.54
-10.47
-17.52
-17.12
-10.04
-0.68
5.45
4.97
-1.50
-9.73
-14.57
-12.91
-5.67
3.00
8.23
7.49
2.02
-4.00
-6.28
-2.88
4.58
11.96
15.03
11.95
4.40
-3.45
-7.26
-4.96
2.13
10.01
14.26
12.40
5.31
-3.20
-8.51
-7.73
-1.29
7.29
13.27
13.53
8.22
0.54
-5.16
-5.98
-2.04
3.65
7.09
5.74
-0.03
-7.02
-11.16
-9.90
-3.81
3.75
8.44
7.43
1.09
-7.17
-12.73
-12.55
-6.73
1.35
7.22
7.82
3.32
-3.07
-7.05
-5.96
-0.26
6.79
11.13
10.41
5.37
-0.70
-4.01
-2.50
2.82
8.51
10.66
7.18
-0.79
-9.49
-14.37
-12.83
-5.56
3.63
9.90
10.10
4.51
-3.37
-8.87
-8.92
-3.87
2.83
6.92
5.90
0.78
-4.80
-6.80
-3.29
4.31
11.96
15.31
12.08
3.48
-6.50
-13.13
-13.40
-7.59
0.98
7.65
8.93
4.37
-3.23
-9.30
-10.33
-5.78
1.63
7.70
9.29
6.19
1.08
-2.32
-1.74
2.09
5.91
6.04
0.89
-7.78
-15.63
-18.36
-14.09
-4.60
5.65
11.90
11.54
5.53
-2.19
-6.92
-5.91
0.21
7.69
11.90
10.13
3.13
-5.34
-10.62
-9.85
-3.78
3.69
7.84
5.97
-0.84
-8.37
-11.83
-8.73
-0.38
8.76
13.65
11.49
3.36
-6.32
-12.16
-10.86
-3.07
6.98
13.65
13.15
5.45
-5.54
-14.31
-16.74
-12.43
-4.64
1.72
3.09
-0.61
-6.12
-9.14
-6.87
0.03
7.86
12.10
10.17
3.09
-4.98
-9.24
-6.89
1.12
10.47
15.99
14.61
7.09
-2.26
-8.16
-7.40
-0.73
7.62
12.40
10.50
2.72
-6.73
-12.79
-12.33
-6.10
1.96
6.99
6.20
0.51
-6.12
-9.26
-6.50
0.93
9.01
13.16
11.00
3.77
-4.32
-8.54
-6.38
1.18
10.14
15.77
15.27
9.26
1.34
-4.05
-4.34
-0.36
4.31
5.36
0.64
-8.49
-17.77
-22.64
-20.96
-14.34
-7.10
-3.68
-6.24
-13.41
-21.34
-26.01
-25.63
-21.59
-17.43
-16.76
-21.19
-29.50
-38.36
-44.23
-45.51
-43.33
-40.94
-41.81
-47.67
-57.49
-68.38
-77.12
-82.24
-84.71
-87.33
-93.20
-103.84
-118.46
-134.38
-148.58
-159.20
-166.60
-173.07
-181.47
-193.68
-209.40
-226.28
-241.15
-251.75
-258.04
-261.90
-265.60
-269.85
-273.03
-271.72
-262.69
-244.76
-219.33
-189.07
-155.86
-119.12
-74.96
-19.22
50.36
132.34
221.33
309.54
389.28
454.99
504.02
536.20
552.44
553.88
541.71
517.25
482.51
440.72
395.88
352.00
312.16
277.61
247.73
220.74
194.45
167.43
139.86
113.31
89.90
71.52
58.80
50.96
46.28
42.27
36.23
25.95
10.27
-9.93
-30.92
-46.75
-51.31
-41.27
-18.02
10.49
33.82
42.83
33.23
6.86
-30.09
-71.04
-108.65
-138.35
-158.21
-167.92
-168.75
-163.65
-156.50
-151.16
-149.81
-151.35
-152.04
-146.86
-131.47
-105.26
-71.09
-33.71
2.57
35.04
62.62
84.62
100.17
108.47
109.40
104.40
96.25
88.22
82.78
80.49
79.78
77.85
71.97
60.64
45.09
27.73
11.85
0.36
-5.57
-6.99
-6.58
-7.94
-14.72
-29.43
-52.74
-82.58
-113.99
-140.19
-154.76
-154.27
-139.21
-116.40
-94.87
-81.97
-79.95
-85.65
-92.52
-93.71
-84.55
-64.45
-35.18
-0.52
34.54
64.86
86.28
97.04
98.14
94.53
92.17
95.03
103.42
114.22
123.41
128.51
129.64
128.90
128.33
127.56
123.44
111.99
89.45
55.48
13.67
-29.56
-67.45
-95.71
-114.11
-126.51
-138.88
-155.97
-178.84
-204.26
-226.43
-239.84
-241.24
-230.05
-207.78
-176.54
-138.99
-98.98
-62.54
-36.83
-26.65
-30.82
-40.74
-44.34
-32.92
-6.98
22.60
40.01
33.92
5.46
-30.63
-53.06
-46.39
-9.87
42.19
88.07
110.23
103.78
77.23
43.66
18.90
13.24
28.29
58.93
97.07
134.08
162.05
175.15
171.64
155.95
136.67
122.33
116.73
116.44
113.21
99.93
75.70
46.92
23.36
11.30
9.71
11.62
9.20
-1.20
-16.87
-31.01
-37.01
-32.49
-20.61
-7.93
-0.66
-1.91
-10.46
-21.75
-30.59
-33.42
-29.64
-21.66
-13.39
-8.34
-8.13
-12.00
-17.47
-21.74
-22.89
-20.61
-16.21
-11.70
-8.85
-8.47
-10.14
-12.59
-14.42
-14.72
-13.26
-10.92
-8.72
-7.55
-7.71
-8.81
-10.12
-10.83
-10.51
-9.27
-7.70
-6.52
-6.23
-6.97
-8.34
-9.65
-10.29
-9.93
-8.62
-6.89
-5.31
-4.36
-4.37
-5.54
-7.79
-10.61
-12.75
-12.35
-7.56
2.59
17.52
34.94
51.62
64.74
72.97
76.84
78.14
78.82
79.94
81.59
83.08
83.65
83.00
81.30
78.85
75.77
71.88
66.37
58.56
48.10
35.08
20.14
4.34
-11.14
-25.12
-36.85
-46.27
-53.72
-59.75
-64.81
-68.99
-72.02
-73.56
-73.05
-70.51
-66.43
-61.63
-57.12
-53.69
-51.76
-51.45
-52.96
-56.71
-63.12
-72.13
-82.61
-92.43
-99.23
-101.58
-99.82
-95.70
-91.26
-87.43
-83.39
-77.20
-67.36
-54.28
-40.43
-29.20
-23.10
-22.44
-25.37
-29.18
-31.70
-32.01
-30.55
-28.17
-25.38
-21.77
-16.68
-9.33
0.27
11.37
22.75
33.11
41.67
48.26
53.30
57.40
61.08
64.44
67.18
68.80
68.84
67.08
63.64
58.96
53.50
47.61
41.40
34.83
27.83
20.45
12.94
5.77
-0.34
-4.92
-7.66
-8.63
-8.01
-6.19
-3.58
-0.43
3.18
7.55
12.75
18.88
25.81
33.30
41.00
48.59
55.83
62.52
68.91
74.89
80.17
84.22
86.40
86.08
82.94
77.01
68.79
59.60
50.41
41.84
34.03
26.73
19.53
12.26
5.01
-4.58
-15.24
-25.37
-33.38
-37.70
-36.62
-28.45
-13.11
7.42
28.68
45.33
52.04
46.00
27.75
0.07
-34.68
-72.75
-110.44
-143.94
-168.00
-177.46
-168.63
-141.22
-99.44
-51.16
-5.37
30.11
49.66
53.37
43.84
25.34
2.88
-18.59
-35.03
-43.93
-45.10
-40.37
-32.04
-22.84
-15.69
-13.53
-18.60
-31.16
-48.63
-66.32
-79.23
-83.56
-79.05
-68.96
-58.53
-52.47
-52.64
-57.81
-65.16
-71.93
-75.27
-72.66
-61.84
-41.30
-10.54
29.53
76.13
124.54
163.55
181.58
172.97
142.17
100.47
59.26
25.98
3.06
-11.11
-20.41
-28.08
-35.90
-44.64
-54.53
-64.98
-73.64
-76.51
-69.38
-50.14
-19.94
16.41
51.72
79.15
94.90
99.51
96.57
90.15
82.70
75.09
67.51
60.40
54.69
51.44
51.03
52.76
54.96
55.74
53.96
49.97
45.21
41.40
39.84
40.82
43.71
47.10
49.46
49.82
48.08
44.95
41.44
39.12
37.46
35.74
32.92
27.96
20.37
10.42
-0.82
-11.95
-22.13
-30.16
-35.98
-40.23
-43.83
-47.37
-50.77
-53.32
-53.95
-51.91
-47.26
-40.98
-34.74
-30.21
-28.29
-28.67
-29.87
-29.89
-27.18
-21.35
-13.65
-6.36
-1.64
-0.81
-3.42
-7.60
-10.82
-11.06
-7.17
0.78
11.51
22.45
29.70
28.49
14.63
-13.20
-51.46
-91.62
-122.59
-135.02
-125.35
-97.51
-60.91
-26.19
-0.72
13.61
19.43
21.03
21.38
21.09
19.18
14.95
9.18
4.01
1.92
3.88
8.90
14.44
17.90
17.56
13.71
8.13
3.27
1.05
2.03
5.32
9.09
11.50
11.47
9.17
5.70
2.54
0.89
1.08
2.66
4.62
5.95
6.06
5.01
3.34
1.75
0.84
0.76
1.33
2.12
2.71
2.85
2.55
1.98
1.39
0.94
0.72
0.70
0.81
0.99
1.22
1.48
1.76
2.04
2.28
2.44
2.49
2.48
2.44
2.42
2.47
2.55
2.64
2.67
2.61
2.46
2.31
2.25
2.37
2.70
3.16
3.63
3.92
3.94
3.71
3.44
3.37
3.76
4.66
5.90
7.14
7.95
8.07
7.53
6.72
6.19
6.46
7.70
9.65
11.64
12.90
12.88
11.59
9.62
7.92
7.37
8.30
10.35
12.65
14.09
13.80
11.57
7.83
3.53
-0.05
-1.61
-0.08
4.67
11.17
16.05
14.67
2.47
-23.06
-60.87
-106.37
-152.28
-190.91
-216.36
-225.83
-219.61
-200.15
-170.74
-134.25
-93.91
-52.86
-14.18
19.45
46.13
65.22
77.31
84.09
87.50
88.99
89.40
88.79
86.82
83.15
77.87
71.54
65.08
59.32
54.70
51.22
48.47
45.84
42.82
39.19
35.08
30.88
27.02
23.76
21.19
19.16
17.42
15.69
13.82
11.78
9.68
7.68
5.94
4.54
3.49
2.74
2.15
1.57
0.86
-0.03
-1.08
-2.16
-3.06
-3.59
-3.68
-3.43
-3.07
-2.91
-3.19
-3.91
-4.84
-5.53
-5.59
-4.85
-3.49
-2.05
-1.19
-1.38
-2.64
-4.47
-5.99
-6.42
-5.38
-3.18
-0.71
0.92
0.91
-0.77
-3.34
-5.52
-6.29
-5.14
-2.41
0.98
3.95
5.57
5.08
1.73
-4.89
-14.07
-23.24
-28.20
-24.55
-10.04
13.78
41.52
65.74
80.04
81.54
71.71
54.59
35.90
19.61
7.24
-1.55
-7.75
-12.17
-15.27
-17.37
-18.63
-19.33
-19.50
-19.16
-18.20
-16.54
-14.15
-11.23
-8.52
-7.42
-9.54
-16.06
-26.55
-38.55
-48.40
-52.87
-50.78
-43.79
-35.45
-29.13
-26.35
-26.10
-25.44
-21.26
-12.27
-0.01
11.26
16.12
10.44
-6.71
-32.27
-59.99
-82.53
-94.88
-95.93
-88.09
-76.37
-64.89
-55.03
-45.81
-35.61
-24.23
-13.64
-6.88
-6.38
-12.80
-24.78
-39.63
-53.68
-62.88
-63.20
-51.78
-28.27
4.25
39.68
71.02
93.04
104.11
106.30
103.59
99.46
95.33
90.59
84.03
75.39
65.98
58.01
53.29
52.23
53.60
55.35
55.36
52.52
47.07
40.32
34.06
29.88
28.57
29.88
32.67
35.39
36.67
35.76
33.00
29.38
26.09
24.22
24.19
26.01
29.66
35.24
42.28
48.81
51.16
45.48
30.10
7.68
-14.89
-29.18
-29.13
-13.98
11.60
39.97
63.79
78.29
81.50
73.34
54.63
27.24
-5.30
-37.76
-64.38
-80.97
-86.56
-83.52
-75.73
-66.85
-59.18
-53.41
-49.40
-46.85
-45.47
-44.79
-44.09
-42.54
-39.73
-35.66
-30.97
-26.53
-23.14
-21.13
-20.34
-20.15
-19.80
-18.70
-16.58
-13.61
-10.32
-7.36
-5.27
-4.29
-4.29
-4.79
-5.15
-4.77
-3.37
-1.07
1.53
3.71
4.76
4.41
2.95
1.13
-0.05
0.14
1.89
4.55
7.06
8.22
7.28
4.25
-0.08
-4.47
-8.08
-10.60
-12.73
-15.45
-19.83
-26.59
-36.09
-48.37
-62.91
-78.10
-90.39
-95.90
-90.90
-74.08
-47.80
-17.66
9.58
28.76
38.28
40.06
37.73
34.65
32.28
30.31
27.79
24.40
20.90
18.56
18.21
19.54
21.39
22.38
21.45
18.58
14.70
11.08
8.84
8.36
9.21
10.44
11.01
10.28
8.26
5.54
2.94
1.18
0.49
0.63
1.04
1.13
0.53
-0.75
-2.43
-4.06
-5.28
-5.98
-6.28
-6.44
-6.72
-7.28
-8.14
-9.18
-10.25
-11.16
-11.90
-12.48
-12.96
-13.33
-13.52
-13.41
-12.83
-11.63
-9.59
-6.68
-2.78
1.98
7.46
13.40
19.50
25.34
30.50
34.63
37.33
38.34
37.56
35.09
31.21
26.26
20.65
14.23
7.80
1.74
-3.71
-8.42
-12.28
-15.18
-17.14
-18.23
-18.66
-18.52
-18.10
-17.52
-16.84
-15.91
-14.36
-12.10
-9.01
-5.41
-1.63
1.87
4.74
6.86
8.41
9.88
11.59
13.66
15.72
17.32
17.83
17.02
15.04
12.11
9.66
8.78
10.46
14.06
18.61
22.99
26.52
28.98
30.86
33.09
36.41
41.34
48.02
56.29
64.49
71.07
73.28
68.08
53.67
30.69
2.69
-24.98
-47.00
-60.22
-64.40
-61.94
-56.08
-49.29
-42.59
-35.84
-28.69
-21.32
-14.67
-9.83
-7.62
-7.89
-9.65
-11.45
-12.09
-11.31
-9.63
-8.07
-7.52
-8.34
-10.09
-11.70
-12.06
-10.59
-7.50
-3.65
-0.18
2.01
2.50
1.58
0.05
-1.11
-1.07
0.48
3.06
5.62
6.76
5.24
0.66
-6.07
-12.70
-16.22
-14.05
-5.37
8.07
22.33
32.69
35.64
30.38
19.24
6.60
-3.08
-7.18
-5.50
-0.18
5.49
8.08
4.87
-5.72
-23.69
-46.77
-70.09
-86.75
-90.11
-76.74
-48.75
-13.73
18.00
37.74
42.00
33.33
18.47
4.80
-2.82
-3.45
0.84
6.62
11.26
13.80
14.51
13.98
12.56
10.14
6.55
2.01
-2.74
-6.54
-8.14
-6.98
-3.46
1.18
5.27
7.47
7.40
5.70
3.71
2.72
3.26
4.92
6.55
6.95
5.43
2.24
-1.56
-4.56
-5.61
-4.34
-1.31
2.33
5.32
6.78
6.50
4.91
2.77
0.79
-0.59
-1.29
-1.48
-1.40
-1.29
-1.29
-1.51
-2.02
-2.82
-3.83
-4.83
-5.62
-6.02
-6.04
-5.79
-5.48
-5.31
-5.41
-5.69
-5.95
-5.84
-5.07
-3.54
-1.40
0.88
2.57
2.92
1.40
-1.94
-6.40
-10.82
-13.93
-14.62
-12.23
-6.85
0.73
9.14
16.79
22.34
25.35
25.87
24.48
21.97
19.07
16.36
14.27
13.15
13.18
14.21
15.56
16.22
15.25
12.18
7.42
2.09
-2.47
-5.27
-6.11
-5.55
-4.45
-3.34
-2.51
-1.92
-1.38
-0.81
-0.30
-0.07
-0.32
-0.98
-1.78
-2.32
-2.29
-1.65
-0.62
0.39
0.93
0.72
-0.23
-1.71
-3.45
-5.19
-6.88
-8.56
-10.30
-12.07
-13.70
-14.91
-15.45
-15.27
-14.61
-13.99
-14.01
-15.10
-17.31
-20.31
-23.47
-26.05
-27.49
-27.62
-26.59
-24.80
-22.57
-20.09
-17.35
-14.31
-10.94
-7.29
-3.42
0.58
4.63
8.55
12.01
14.64
15.84
15.41
13.93
12.63
12.64
14.30
17.07
19.85
21.62
22.19
21.79
20.94
20.02
19.11
18.06
16.68
14.93
12.93
10.88
8.86
6.95
5.18
3.54
2.07
0.89
0.16
-0.01
0.38
1.14
2.02
2.63
2.63
1.83
0.31
-1.50
-3.04
-3.75
-3.38
-2.02
-0.12
1.73
3.06
3.62
3.50
2.94
2.25
1.66
1.29
1.16
1.23
1.39
1.50
1.41
0.98
0.13
-1.08
-2.50
-3.84
-4.85
-5.34
-5.32
-4.92
-4.33
-3.66
-2.90
-1.93
-0.66
0.83
2.36
3.59
4.27
4.26
3.60
2.48
1.17
0.01
-0.77
-1.04
-0.81
-0.31
0.10
0.10
-0.54
-1.83
-3.54
-5.36
-6.98
-8.20
-8.99
-9.38
-9.49
-9.39
-9.11
-8.65
-8.02
-7.25
-6.41
-5.53
-4.64
-3.70
-2.62
-1.31
0.25
2.04
3.94
5.82
7.57
9.03
10.05
10.52
10.43
9.88
9.10
8.39
8.09
8.46
9.62
11.49
13.89
16.61
19.33
21.79
23.88
25.80
27.94
30.63
33.92
37.33
40.02
40.98
40.22
38.62
37.89
39.77
45.18
53.79
63.48
72.67
80.13
85.32
88.41
90.32
92.85
97.75
106.34
118.74
133.36
146.43
152.83
147.61
127.88
94.03
49.42
-0.83
-51.91
-100.85
-147.03
-191.45
-235.80
-281.63
-329.99
-380.92
-432.59
-480.56
-517.87
-536.70
-531.00
-499.00
-444.03
-373.21
-294.69
-214.87
-137.42
-64.16
3.10
61.31
106.86
137.46
153.93
160.72
164.24
170.24
181.53
197.24
213.50
225.61
229.96
225.17
212.23
193.69
172.56
151.44
132.17
115.94
103.78
96.74
95.81
101.54
113.55
130.18
148.62
165.59
178.25
185.21
186.76
184.29
179.10
171.22
159.31
141.86
119.08
94.33
73.76
64.10
69.34
88.61
116.24
144.57
167.41
182.56
191.78
198.68
206.07
214.58
223.01
229.98
235.53
241.50
250.55
264.46
282.88
302.95
320.28
330.55
331.05
321.53
304.07
281.89
258.13
234.83
212.66
191.47
170.65
150.13
130.51
112.76
97.62
85.16
74.70
65.09
55.26
44.23
31.78
18.37
4.93
-7.56
-18.45
-27.56
-35.11
-41.45
-47.82
-55.20
-63.99
-73.86
-83.92
-93.18
-100.88
-106.60
-110.33
-115.03
-123.46
-137.28
-156.28
-178.62
-201.93
-224.24
-244.44
-262.29
-283.59
-313.62
-355.03
-406.40
-462.80
-518.21
-567.70
-608.48
-640.06
-672.21
-714.23
-771.44
-842.50
-920.42
-996.35
-1063.37
-1118.02
-1160.45
-1204.28
-1262.26
-1341.55
-1440.90
-1552.54
-1667.06
-1776.98
-1876.67
-1891.46
-1770.27
-1495.16
-1094.63
-631.30
-172.86
231.31
557.40
803.36
980.26
1093.54
1150.21
1158.77
1131.34
1082.83
1027.65
977.14
939.12
917.46
903.88
888.51
863.02
824.19
774.46
720.20
667.50
624.21
596.36
580.24
568.06
551.24
525.09
490.88
453.73
418.67
386.75
353.71
310.69
252.52
182.60
113.04
59.27
31.78
31.49
49.42
71.89
86.77
88.93
80.50
67.38
56.02
47.05
38.72
29.26
18.58
8.84
2.62
1.53
5.10
11.13
16.39
18.83
18.07
15.35
13.05
12.99
15.76
20.57
25.85
29.88
32.05
32.92
31.68
30.13
29.54
30.01
30.78
31.17
30.80
30.21
30.31
31.89
35.30
39.96
44.88
49.29
52.79
54.86
54.89
52.28
46.85
38.88
28.43
15.31
-1.91
-24.08
-50.53
-78.49
-103.36
-120.46
-127.18
-123.43
-113.55
-103.64
-98.87
-101.41
-109.21
-117.45
-118.51
-105.53
-74.95
-28.38
27.34
81.56
122.49
141.13
134.22
105.06
61.70
13.90
-30.15
-65.41
-88.87
-100.88
-103.58
-99.11
-89.19
-75.77
-61.51
-49.92
-43.88
-44.34
-49.89
-57.17
-62.31
-62.60
-58.00
-50.85
-44.76
-43.14
-47.93
-58.76
-72.40
-83.13
-84.36
-71.14
-42.46
-2.35
41.17
79.00
104.56
116.24
117.29
113.37
109.26
106.78
104.77
101.64
95.66
87.28
78.61
71.91
68.20
66.96
66.84
66.42
64.54
61.66
57.98
52.96
45.50
34.55
20.09
3.49
-12.69
-25.71
-33.69
-36.29
-34.56
-30.36
-25.56
-21.62
-19.57
-19.97
-22.79
-27.22
-31.70
-34.16
-32.84
-27.21
-18.36
-8.75
-1.22
2.21
1.04
-3.80
-10.47
-17.10
-22.33
-25.41
-26.15
-24.71
-21.48
-17.18
-12.71
-8.89
-6.01
-3.75
-1.44
1.13
3.22
3.07
-1.30
-10.97
-25.07
-40.59
-52.92
-57.16
-49.68
-29.71
0.02
33.53
62.99
81.22
83.76
69.79
41.83
4.49
-36.80
-76.29
-107.95
-125.82
-124.76
-102.10
-59.44
-3.46
55.30
105.04
136.06
143.20
126.87
92.52
48.82
5.14
-30.75
-54.26
-64.38
-63.03
-52.79
-37.25
-19.82
-3.36
10.10
19.37
24.18
25.28
24.21
22.80
22.44
23.82
26.80
30.44
33.44
34.62
33.31
29.55
24.03
17.72
11.62
6.46
2.51
-0.40
-2.70
-4.86
-7.19
-9.85
-12.97
-16.57
-20.65
-25.06
-29.48
-33.45
-36.44
-38.02
-37.97
-36.41
-33.62
-30.04
-26.10
-22.19
-18.65
-15.77
-13.68
-12.38
-11.63
-11.05
-10.18
-8.71
-6.52
-3.78
-0.79
2.08
4.53
6.38
7.59
8.24
8.46
8.39
8.16
7.89
7.69
7.67
7.85
8.14
8.37
8.29
7.72
6.61
5.11
3.48
2.02
0.93
0.30
0.06
0.07
0.21
0.33
0.37
0.27
0.11
-0.04
-0.05
0.15
0.52
0.97
1.36
1.66
1.93
2.37
3.12
4.23
5.60
6.97
8.06
8.69
8.82
8.53
7.96
7.16
6.12
4.79
3.18
1.42
-0.28
-1.67
-2.62
-3.14
-3.36
-3.47
-3.53
-3.57
-3.55
-3.50
-3.51
-3.67
-3.98
-4.29
-4.36
-3.98
-3.09
-1.80
-0.38
0.95
2.03
2.87
3.51
4.03
4.40
4.52
4.31
3.74
2.90
1.94
1.09
0.53
0.36
0.56
0.97
1.39
1.61
1.55
1.30
1.07
1.08
1.47
2.14
2.82
3.15
2.89
2.01
0.72
-0.65
-1.76
-2.39
-2.48
-2.08
-1.27
-0.19
1.02
2.16
3.06
3.61
3.79
3.69
3.50
3.38
3.43
3.63
3.89
4.07
4.05
3.79
3.30
2.66
1.99
1.41
0.98
0.69
0.48
0.25
-0.04
-0.35
-0.68
-0.99
-1.33
-1.74
-2.25
-2.84
-3.43
-3.90
-4.19
-4.29
-4.23
-4.08
-3.84
-3.50
-3.05
-2.49
-1.89
-1.34
-0.93
-0.67
-0.51
-0.34
-0.06
0.40
1.01
1.68
2.30
2.81
3.20
3.50
3.73
3.88
3.92
3.82
3.54
3.14
2.63
2.11
1.66
1.33
1.18
1.20
1.32
1.44
1.42
1.17
0.68
-0.00
-0.74
-1.38
-1.81
-1.94
-1.77
-1.40
-0.95
-0.56
-0.31
-0.18
-0.09
0.10
0.46
0.96
1.49
1.88
2.01
1.85
1.49
1.09
0.78
0.64
0.66
0.74
0.81
0.80
0.69
0.53
0.36
0.21
0.11
0.05
0.03
0.04
0.07
0.11
0.13
0.07
-0.14
-0.55
-1.16
-1.91
-2.67
-3.29
-3.62
-3.56
-3.10
-2.33
-1.38
-0.45
0.34
0.91
1.31
1.60
1.87
2.14
2.38
2.52
2.55
2.49
2.41
2.41
2.48
2.56
2.57
2.45
2.23
2.00
1.85
1.83
1.89
1.90
1.74
1.35
0.80
0.22
-0.25
-0.50
-0.57
-0.56
-0.62
-0.83
-1.20
-1.62
-2.00
-2.26
-2.46
-2.69
-3.06
-3.59
-4.20
-4.69
-4.91
-4.80
-4.46
-4.03
-3.67
-3.40
-3.11
-2.69
-2.07
-1.29
-0.50
0.17
0.70
1.16
1.65
2.26
2.97
3.70
4.33
4.73
4.85
4.61
4.03
3.16
2.18
1.36
0.97
1.12
1.73
2.50
3.04
3.12
2.68
1.92
1.08
0.42
0.02
-0.14
-0.14
-0.06
0.02
0.01
-0.22
-0.77
-1.64
-2.69
-3.69
-4.41
-4.74
-4.71
-4.50
-4.30
-4.23
-4.30
-4.38
-4.30
-3.92
-3.15
-2.04
-0.74
0.55
1.61
2.29
2.58
2.54
2.31
2.04
1.84
1.73
1.72
1.78
1.92
2.17
2.55
3.04
3.58
4.07
4.38
4.47
4.33
3.98
3.45
2.73
1.81
0.69
-0.50
-1.57
-2.28
-2.48
-2.15
-1.45
-0.69
-0.15
-0.01
-0.31
-0.92
-1.64
-2.32
-2.89
-3.36
-3.77
-4.10
-4.29
-4.20
-3.80
-3.11
-2.28
-1.52
-0.97
-0.64
-0.46
-0.31
-0.09
0.23
0.57
0.89
1.16
1.46
1.88
2.47
3.18
3.81
4.09
3.82
2.92
1.54
-0.00
-1.32
-2.13
-2.26
-1.77
-0.85
0.21
1.17
1.85
2.22
2.31
2.16
1.81
1.22
0.35
-0.80
-2.18
-3.58
-4.77
-5.48
-5.56
-5.00
-3.94
-2.66
-1.47
-0.61
-0.12
0.11
0.27
0.56
1.05
1.71
2.45
3.19
3.84
4.39
4.78
4.93
4.71
4.09
3.11
2.04
1.14
0.65
0.71
1.27
2.09
2.81
3.09
2.65
1.59
0.07
-1.55
-2.76
-3.13
-2.54
-1.26
0.14
1.01
1.13
0.63
0.09
0.47
2.29
5.05
7.10
5.96
-0.96
-14.97
-36.08
-62.79
-91.52
-117.68
-136.92
-145.95
-142.80
-129.05
-105.13
-72.22
-33.22
7.57
45.58
76.40
97.63
109.53
113.93
112.84
106.65
94.72
77.20
56.49
37.20
24.61
21.87
28.12
38.78
47.37
48.90
42.32
30.71
19.24
12.37
11.59
15.07
19.32
21.24
19.83
16.45
13.48
12.67
14.13
16.33
17.14
15.12
10.33
4.25
-0.95
-3.59
-3.22
-0.86
1.59
2.31
0.49
-3.39
-7.91
-11.51
-13.31
-13.43
-12.75
-12.31
-12.71
-13.95
-15.57
-17.02
-17.89
-17.97
-17.17
-15.46
-12.88
-9.73
-6.54
-3.97
-2.52
-2.30
-2.94
-3.81
-4.32
-4.16
-3.41
-2.42
-1.57
-1.06
-0.84
-0.69
-0.34
0.41
1.62
3.19
4.97
6.76
8.42
9.78
10.76
11.38
11.87
12.63
14.07
16.49
19.72
23.14
25.80
26.82
25.87
23.49
20.83
19.16
19.31
21.16
23.77
25.84
26.19
24.31
20.39
14.78
7.61
-1.11
-11.20
-21.60
-30.58
-36.64
-39.72
-41.82
-46.88
-59.32
-80.45
-108.22
-137.15
-161.14
-176.90
-184.41
-184.36
-174.97
-151.47
-108.81
-46.06
30.94
110.15
177.29
220.94
236.10
224.65
193.35
150.68
104.32
60.16
22.07
-7.70
-28.21
-39.68
-43.38
-41.36
-36.00
-29.75
-24.49
-21.32
-20.39
-20.98
-21.81
-21.55
-19.42
-15.54
-10.81
-6.37
-3.18
-1.61
-1.40
-1.81
-2.06
-1.62
-0.35
1.53
3.64
5.63
7.27
8.41
9.03
9.19
8.96
8.66
8.55
8.84
9.52
10.27
10.43
9.29
6.37
1.35
-4.99
-11.72
-17.99
-23.55
-28.58
-33.73
-39.52
-45.39
-51.27
-56.82
-62.40
-68.68
-75.74
-81.85
-83.48
-76.35
-57.73
-28.76
6.43
41.61
71.56
93.95
109.03
117.72
119.43
111.98
93.42
64.82
31.17
0.16
-21.00
-29.14
-26.38
-18.23
-10.24
-5.65
-4.26
-4.19
-3.45
-1.49
0.77
1.92
1.18
-1.14
-3.96
-5.74
-5.65
-3.77
-1.02
1.17
1.71
0.32
-2.32
-4.94
-6.21
-5.49
-3.06
-0.04
2.13
2.43
0.74
-2.11
-4.74
-5.82
-4.79
-2.21
0.90
3.15
3.74
2.68
0.49
-2.24
-4.95
-6.89
-6.78
-3.09
4.99
16.52
28.46
36.65
37.71
30.91
18.63
5.18
-5.35
-11.09
-12.68
-12.31
-11.93
-12.07
-11.94
-10.39
-7.05
-2.65
1.40
3.99
4.80
4.27
3.59
3.75
5.20
7.73
10.61
13.00
14.31
14.48
13.88
13.27
13.28
14.25
16.12
18.49
20.88
22.85
24.15
24.74
24.85
24.74
24.70
24.89
25.28
25.60
25.31
23.77
20.26
14.60
6.99
-1.82
-10.85
-19.12
-26.11
-31.92
-36.83
-41.98
-47.95
-54.63
-61.23
-66.51
-69.59
-70.11
-68.84
-66.81
-65.38
-65.63
-68.30
-73.76
-81.67
-90.39
-96.75
-96.68
-86.67
-65.86
-37.03
-5.99
20.59
38.07
45.61
45.87
43.04
40.47
39.01
37.49
34.26
28.71
22.03
16.54
14.16
15.41
19.14
23.27
25.62
25.46
23.43
21.52
22.10
26.63
35.45
47.89
62.85
79.00
94.57
106.82
111.71
106.31
89.50
63.51
33.58
6.20
-13.68
-24.38
-27.65
-26.87
-24.98
-23.35
-21.67
-19.23
-15.96
-12.82
-11.14
-11.64
-13.88
-16.42
-17.83
-17.05
-14.19
-10.25
-6.62
-4.42
-4.04
-5.03
-6.32
-6.86
-6.00
-3.76
-0.75
2.14
4.16
5.06
5.08
4.85
5.01
6.01
7.84
10.20
12.61
14.61
16.08
17.10
18.00
19.10
20.66
22.71
25.09
27.58
29.85
31.75
33.23
34.28
34.96
35.30
35.17
34.32
32.39
28.93
23.77
16.97
8.92
0.27
-8.30
-16.20
-23.25
-29.18
-34.63
-39.89
-44.97
-49.51
-52.89
-54.53
-54.25
-52.62
-50.44
-48.90
-48.83
-50.44
-53.14
-55.80
-57.41
-57.38
-55.94
-53.90
-52.40
-52.31
-54.23
-58.54
-65.11
-72.92
-79.57
-81.51
-75.14
-58.67
-33.37
-3.71
24.17
45.01
56.39
59.35
57.18
53.34
49.83
46.86
43.68
39.77
35.57
32.17
30.50
30.58
31.53
32.03
30.95
28.02
23.86
19.64
16.48
14.95
14.90
15.52
15.85
15.13
13.22
10.50
7.74
5.63
4.54
4.38
4.66
4.83
4.46
3.44
1.97
0.42
-0.84
-1.66
-2.06
-2.27
-2.53
-3.06
-3.89
-4.95
-6.11
-7.23
-8.26
-9.18
-10.08
-10.99
-11.99
-13.10
-14.31
-15.62
-17.04
-18.54
-20.12
-21.79
-23.49
-25.24
-27.07
-28.99
-31.01
-33.20
-35.52
-37.94
-40.42
-42.80
-44.99
-46.81
-48.02
-48.34
-47.53
-45.24
-41.19
-35.18
-27.04
-16.95
-5.19
7.73
21.21
34.47
46.90
57.87
66.20
71.87
74.77
74.98
72.59
68.62
62.77
55.35
46.84
37.68
28.45
19.51
11.32
4.14
-1.82
-6.50
-9.73
-11.50
-11.91
-11.04
-9.21
-6.54
-3.46
-0.35
2.46
4.79
6.52
7.62
8.13
8.15
8.09
8.14
8.57
9.60
11.48
14.27
17.90
22.22
25.42
28.14
30.46
32.40
33.95
35.16
36.02
36.47
36.44
35.84
34.97
33.88
32.85
32.17
32.06
32.36
32.62
32.23
30.59
28.41
25.12
21.05
16.82
12.99
9.59
6.22
2.18
-3.06
-10.03
-17.58
-24.30
-28.80
-30.16
-28.56
-25.08
-21.26
-18.31
-16.65
-15.71
-14.23
-10.89
-4.40
5.33
18.19
33.52
49.74
63.89
71.86
69.66
54.63
29.13
-1.45
-30.17
-51.45
-63.05
-66.23
-64.24
-60.18
-55.58
-50.46
-44.79
-39.27
-35.38
-34.48
-36.66
-40.40
-43.49
-44.04
-41.34
-36.60
-32.10
-30.34
-33.27
-41.54
-54.38
-69.29
-82.09
-87.83
-82.70
-65.73
-39.44
-10.27
14.96
31.47
38.28
37.92
34.50
31.20
29.15
27.44
24.82
21.16
17.56
15.63
16.24
18.80
21.54
22.55
20.65
16.30
11.29
7.76
7.11
9.32
12.86
15.53
15.52
12.34
7.14
2.18
-0.33
0.64
4.37
8.77
11.41
10.87
7.23
2.22
-1.91
-3.33
-1.45
3.40
10.60
19.46
28.29
33.84
31.69
18.25
-6.42
-37.11
-64.58
-79.27
-75.92
-56.19
-27.81
-0.80
17.04
23.46
21.11
14.85
8.58
3.88
0.75
-1.24
-1.74
0.44
6.70
16.66
27.48
34.52
33.00
20.96
1.03
-19.85
-33.24
-33.07
-18.82
4.31
28.38
46.84
57.57
62.89
66.98
72.71
79.22
83.98
83.55
76.33
63.87
50.38
40.87
39.69
47.28
60.67
74.06
80.71
75.46
56.89
27.90
-5.71
-37.87
-64.44
-84.19
-98.36
-108.65
-115.90
-119.46
-118.08
-110.56
-98.95
-86.60
-77.10
-73.78
-76.95
-85.59
-97.54
-109.58
-117.74
-118.04
-107.14
-82.94
-48.66
-10.31
24.95
51.53
67.29
73.71
74.34
72.86
71.52
70.60
69.81
68.90
68.21
68.51
70.09
72.41
74.48
75.43
74.78
73.52
73.46
76.44
82.89
90.72
95.72
92.18
76.05
47.01
9.44
-29.13
-60.93
-80.96
-88.13
-85.99
-79.82
-73.88
-70.01
-67.73
-65.51
-62.29
-58.03
-53.74
-50.72
-49.83
-51.00
-53.37
-55.71
-56.77
-56.14
-53.74
-50.33
-47.08
-44.97
-44.64
-46.56
-51.14
-58.26
-66.46
-72.46
-71.72
-60.28
-37.08
-4.93
29.67
59.08
78.00
85.55
85.21
82.33
81.04
82.25
83.88
83.00
78.00
70.08
62.63
59.27
62.03
70.37
81.74
92.57
99.54
99.97
92.16
75.53
50.97
21.52
-7.73
-30.67
-42.59
-42.33
-33.78
-24.29
-21.35
-29.21
-46.78
-68.76
-88.63
-102.07
-108.54
-111.46
-115.51
-123.52
-134.56
-143.80
-144.77
-132.25
-104.79
-65.28
-20.65
21.23
54.48
77.23
91.37
100.59
108.11
112.53
114.22
113.09
109.29
103.49
96.42
87.94
76.89
61.89
42.56
20.56
-1.20
-19.13
-30.04
-32.13
-25.61
-12.71
2.75
16.25
24.15
24.28
16.84
4.33
-9.51
-21.28
-28.89
-31.95
-31.57
-29.41
-27.35
-26.78
-28.08
-30.78
-34.07
-37.09
-39.19
-40.03
-39.40
-36.94
-32.78
-27.29
-21.29
-15.94
-11.94
-8.83
-4.90
1.92
12.58
25.77
38.34
47.07
49.88
47.17
41.31
35.08
30.13
26.31
22.44
17.46
11.85
6.93
4.00
3.32
3.76
3.58
1.56
-2.32
-6.91
-10.63
-12.54
-12.54
-11.32
-9.84
-8.80
-8.32
-8.06
-7.56
-6.51
-5.06
-3.63
-2.68
-2.41
-2.74
-3.33
-3.85
-4.11
-4.14
-4.08
-4.07
-4.09
-4.00
-3.62
-2.87
-1.84
-0.77
0.10
0.60
0.73
0.68
0.72
1.10
1.91
3.10
4.51
5.88
6.94
7.50
7.49
7.06
6.50
6.19
6.48
7.35
8.43
9.10
8.85
7.56
5.58
3.59
2.26
1.95
2.65
4.09
5.97
7.97
9.74
10.72
10.25
7.91
3.77
-1.43
-6.44
-10.06
-11.56
-11.08
-9.47
-7.93
-7.50
-8.66
-11.21
-14.48
-17.72
-20.44
-22.55
-24.19
-25.39
-25.89
-25.16
-22.77
-18.79
-13.93
-9.27
-5.74
-3.61
-2.47
-1.64
-0.71
0.04
-0.17
-2.09
-5.78
-10.48
-14.82
-17.44
-17.71
-16.02
-13.65
-12.31
-13.30
-16.38
-20.39
-23.63
-24.81
-23.83
-21.49
-18.44
-14.44
-8.45
0.62
12.71
26.28
38.94
48.56
54.70
58.15
60.01
60.92
60.67
58.40
53.41
45.83
36.73
27.52
20.43
17.07
18.09
23.00
30.32
37.86
43.41
45.48
43.77
39.15
32.74
25.11
15.73
3.31
-12.71
-31.14
-49.58
-65.60
-77.77
-85.72
-88.82
-85.01
-71.39
-46.38
-12.49
22.85
49.65
59.86
51.41
29.25
2.75
-19.12
-31.58
-35.15
-33.66
-31.12
-29.30
-27.79
-25.49
-21.88
-17.80
-14.58
-13.08
-13.11
-13.74
-13.77
-12.72
-11.10
-9.64
-9.12
-9.61
-10.65
-11.51
-11.72
-11.47
-11.55
-13.66
-18.37
-26.15
-36.83
-49.27
-61.02
-68.44
-67.61
-54.83
-31.01
0.07
32.32
59.73
78.81
89.87
96.36
102.43
109.92
116.62
118.12
109.19
87.77
56.53
22.06
-7.98
-28.10
-36.62
-36.63
-33.04
-29.75
-27.87
-26.02
-22.35
-16.35
-9.51
-4.40
-3.19
-5.90
-10.65
-14.67
-15.46
-12.40
-6.72
-0.84
2.84
2.95
0.01
-4.08
-7.10
-7.29
-4.58
-0.44
2.81
3.15
-0.32
-6.91
-14.78
-22.22
-27.81
-31.56
-34.53
-38.19
-43.79
-52.18
-63.61
-77.00
-90.79
-101.46
-104.53
-96.14
-75.11
-44.25
-9.85
20.55
41.59
51.60
53.06
50.47
47.88
46.99
47.12
46.42
43.69
39.31
34.86
32.26
32.50
35.24
39.06
42.04
42.68
40.75
37.08
33.31
31.21
31.81
35.32
41.44
49.89
60.43
72.05
82.39
87.68
83.89
68.74
43.47
12.64
-16.39
-37.62
-48.55
-50.58
-47.47
-42.99
-39.19
-35.96
-32.49
-28.37
-24.38
-21.80
-21.44
-22.97
-25.12
-26.32
-25.38
-22.26
-17.85
-13.63
-10.88
-10.12
-11.01
-12.51
-13.44
-13.01
-11.14
-8.39
-5.69
-3.86
-3.25
-3.67
-4.52
-5.12
-5.01
-4.13
-2.78
-1.43
-0.50
-0.15
-0.31
-0.68
-0.97
-0.98
-0.67
-0.16
0.37
0.78
0.99
1.03
0.97
0.90
0.88
0.90
0.96
1.03
1.08
1.13
1.18
1.25
1.34
1.43
1.52
1.55
1.52
1.44
1.34
1.27
1.29
1.40
1.60
1.82
2.01
2.15
2.22
2.30
2.43
2.68
3.09
3.60
4.13
4.57
4.86
5.01
5.12
5.38
5.91
6.77
7.85
8.90
9.68
9.97
9.83
9.54
9.50
10.08
11.42
13.26
15.06
16.26
16.40
15.54
14.14
12.89
12.34
12.55
12.95
12.44
9.92
4.59
-3.36
-12.96
-22.79
-31.69
-39.00
-44.91
-50.18
-55.24
-61.00
-67.88
-76.11
-85.47
-94.69
-101.06
-100.91
-91.22
-70.87
-42.42
-11.34
15.99
34.80
43.86
45.25
42.74
39.60
37.25
35.23
32.64
29.21
25.68
23.31
22.86
24.05
25.69
26.45
25.32
22.36
18.46
14.90
12.70
12.22
13.02
14.17
14.69
13.94
11.98
9.40
7.00
5.44
4.94
5.24
5.82
6.08
5.69
4.67
3.30
2.02
1.14
0.78
0.82
1.01
1.10
0.92
0.50
-0.07
-0.62
-1.03
-1.26
-1.35
-1.37
-1.39
-1.46
-1.58
-1.74
-1.91
-2.09
-2.28
-2.49
-2.72
-2.98
-3.25
-3.55
-3.87
-4.21
-4.59
-4.98
-5.42
-5.88
-6.37
-6.90
-7.44
-8.03
-8.65
-9.30
-9.98
-10.71
-11.48
-12.31
-13.17
-14.10
-15.06
-16.04
-17.01
-17.90
-18.66
-19.17
-19.33
-19.02
-18.15
-16.66
-14.54
-11.87
-8.67
-5.20
-1.66
1.70
4.66
7.02
8.65
9.51
9.63
9.10
8.05
6.69
5.19
3.74
2.45
1.42
0.66
0.18
-0.11
-0.32
-0.52
-0.80
-1.21
-1.78
-2.51
-3.37
-4.34
-5.44
-6.74
-8.19
-9.82
-11.66
-13.75
-16.09
-18.69
-21.57
-24.80
-28.57
-32.77
-37.36
-42.33
-47.54
-52.83
-57.96
-62.78
-67.30
-71.77
-76.09
-80.35
-84.64
-88.93
-92.97
-96.46
-99.15
-101.04
-102.48
-103.36
-103.79
-103.75
-102.83
-100.23
-94.74
-84.93
-69.09
-50.22
-29.57
-8.20
13.19
34.32
55.31
76.51
98.43
121.70
146.75
174.26
203.69
232.99
258.85
277.55
286.17
283.78
271.72
252.94
231.32
209.70
189.42
170.56
152.65
135.44
119.11
103.99
90.14
77.49
65.60
54.08
42.89
32.37
23.08
15.38
9.21
4.10
-0.46
-5.02
-9.90
-15.17
-20.75
-26.55
-32.64
-39.26
-46.73
-55.06
-63.86
-72.15
-78.62
-82.04
-81.72
-77.90
-71.65
-64.53
-57.97
-52.77
-48.84
-45.29
-40.85
-34.33
-25.16
-13.62
-0.82
11.59
21.83
28.39
30.26
26.93
18.35
4.94
-12.28
-31.51
-50.28
-65.88
-76.13
-80.07
-78.22
-72.36
-64.75
-57.23
-50.65
-44.83
-38.92
-32.13
-24.18
-15.51
-7.02
0.34
6.02
9.96
12.50
14.10
15.11
15.63
15.59
14.97
13.91
12.78
12.08
12.17
13.14
14.77
16.63
18.24
19.12
18.87
17.08
13.30
7.22
-1.07
-10.78
-20.38
-28.01
-32.07
-31.89
-27.94
-21.66
-14.81
-8.93
-4.92
-3.06
-3.24
-5.03
-7.75
-10.45
-12.06
-11.68
-9.02
-4.67
-0.04
3.19
3.66
0.95
-4.12
-9.55
-12.75
-11.29
-3.91
8.86
24.61
39.75
50.80
55.74
54.84
50.49
46.14
44.72
47.45
53.51
60.67
66.56
69.82
70.60
70.35
70.97
73.84
79.15
85.76
91.52
94.14
92.10
85.35
75.41
64.85
55.97
49.43
43.40
33.80
15.52
-15.60
-60.80
-117.22
-177.58
-231.49
-267.87
-278.10
-258.93
-214.21
-154.40
-93.76
-45.70
-18.10
-10.69
-15.87
-22.59
-21.47
-8.55
13.65
38.18
57.18
65.54
62.58
51.55
37.52
24.88
16.17
11.97
11.75
14.55
20.01
28.32
39.65
53.35
67.42
78.82
84.28
81.78
71.06
55.17
39.69
30.31
29.79
36.36
44.46
47.37
40.74
23.72
0.11
-23.77
-42.59
-54.79
-62.45
-69.42
-79.20
-93.70
-114.65
-141.92
-173.07
-203.39
-227.08
-238.70
-234.85
-215.69
-176.44
-120.67
-58.20
0.48
49.83
88.58
116.72
134.32
140.54
136.37
124.40
109.74
97.16
89.93
87.48
86.28
82.65
75.13
65.41
55.82
48.87
46.10
47.65
52.25
58.25
64.58
70.77
76.83
81.99
85.66
87.75
88.91
89.82
90.99
92.59
94.54
96.90
99.77
103.81
109.94
118.48
128.00
135.08
135.04
123.64
98.85
61.51
15.13
-35.85
-88.15
-140.86
-194.44
-248.62
-300.72
-345.92
-379.70
-400.53
-410.69
-414.38
-414.38
-409.79
-396.85
-372.46
-337.64
-298.55
-263.69
-239.31
-225.96
-218.48
-209.23
-192.26
-165.51
-130.14
-88.16
-40.67
11.91
68.27
124.85
175.89
215.42
239.79
249.35
248.20
242.46
237.90
238.02
243.35
251.81
259.96
264.60
264.07
258.85
251.42
245.28
243.34
246.67
253.83
261.32
264.82
260.27
244.83
217.26
178.26
130.42
78.44
28.07
-15.81
-50.98
-78.34
-100.73
-120.77
-138.84
-153.04
-160.07
-156.84
-141.71
-115.01
-78.89
-37.18
4.69
40.14
61.53
62.22
38.96
-6.43
-67.41
-134.87
-199.56
-253.79
-291.90
-311.43
-312.59
-297.14
-267.42
-225.53
-173.50
-113.07
-46.35
23.86
91.21
146.65
180.85
187.34
165.26
119.11
57.20
-12.18
-76.31
-124.36
-152.33
-163.83
-165.65
-162.38
-157.11
-152.54
-153.95
-160.50
-169.01
-174.13
-169.71
-151.25
-116.28
-67.34
-10.53
46.31
96.53
136.54
166.68
189.89
209.70
231.34
258.11
290.99
328.80
369.56
409.65
444.40
469.01
464.49
422.42
348.22
258.95
172.63
99.74
41.33
-6.69
-48.34
-84.87
-112.40
-127.35
-129.44
-122.61
-112.43
-103.66
-98.63
-97.35
-98.74
-99.33
-96.87
-91.21
-84.17
-77.87
-73.72
-71.92
-71.88
-72.80
-72.86
-71.00
-66.35
-59.92
-51.96
-41.98
-29.31
-13.92
3.03
20.02
34.68
44.54
47.97
45.07
37.24
26.46
14.49
2.57
-8.28
-17.27
-23.69
-27.20
-27.84
-26.35
-23.97
-22.07
-21.66
-23.03
-25.86
-29.43
-33.04
-36.24
-39.03
-41.69
-44.42
-47.08
-49.03
-49.44
-47.61
-43.30
-36.80
-28.90
-20.52
-12.39
-4.75
2.68
10.24
18.05
25.74
32.69
38.40
42.88
46.68
50.69
55.66
61.54
67.38
71.53
72.33
68.67
60.07
46.57
28.19
5.95
-18.04
-41.05
-60.80
-76.25
-87.34
-94.39
-97.83
-97.71
-93.88
-86.40
-76.00
-64.43
-54.64
-49.87
-52.51
-62.22
-74.61
-81.84
-75.22
-48.99
-3.38
54.10
110.80
152.98
170.61
160.64
127.69
81.50
32.97
-9.37
-40.66
-58.74
-62.92
-54.03
-35.22
-12.55
6.97
18.19
21.14
20.25
21.63
28.45
37.78
41.41
30.68
2.85
-36.44
-73.64
-95.10
-93.69
-71.72
-38.81
-6.25
18.21
32.69
39.79
43.94
47.92
52.31
56.26
58.98
60.69
61.09
59.38
54.03
43.90
29.75
15.21
5.93
6.58
18.78
39.87
64.24
85.64
99.14
101.77
92.63
72.68
44.82
14.15
-12.93
-30.49
-35.59
-29.91
-19.29
-10.81
-9.62
-17.24
-30.71
-45.10
-56.15
-61.96
-62.99
-60.95
-57.46
-53.40
-48.96
-44.22
-39.67
-36.08
-34.13
-34.08
-35.48
-37.46
-39.19
-40.12
-39.97
-38.66
-36.28
-33.09
-29.66
-26.83
-25.34
-25.45
-27.04
-29.69
-33.01
-36.20
-37.70
-35.08
-25.73
-8.34
16.57
45.65
73.80
96.15
110.22
116.75
118.86
119.60
119.93
117.82
109.45
91.76
64.87
32.69
1.28
-23.08
-37.63
-43.43
-44.02
-42.94
-41.75
-39.80
-35.62
-28.82
-21.00
-15.21
-13.95
-17.50
-23.62
-28.60
-29.34
-24.71
-16.29
-7.26
-1.04
0.37
-3.25
-10.51
-19.04
-25.54
-26.07
-17.27
2.09
29.11
56.71
75.87
79.55
66.12
40.48
11.46
-12.58
-27.51
-34.44
-37.50
-40.38
-43.84
-45.97
-44.08
-37.45
-28.24
-20.30
-16.90
-19.11
-25.14
-31.69
-35.76
-35.96
-33.31
-30.49
-30.48
-35.32
-45.50
-59.98
-75.58
-89.46
-97.60
-96.20
-83.06
-58.92
-27.88
3.78
29.89
46.75
54.13
54.87
52.72
50.28
48.19
45.62
41.69
36.56
31.53
28.09
27.07
27.99
29.40
29.71
27.88
24.05
19.29
14.96
12.08
11.02
11.28
11.90
11.92
10.68
8.23
5.13
2.18
0.02
-1.05
-1.17
-0.81
-0.55
-0.87
-1.92
-3.61
-5.61
-7.48
-8.76
-9.11
-8.41
-6.74
-4.31
-1.50
1.38
4.25
7.34
11.05
15.78
21.66
28.40
34.78
40.15
43.83
45.56
45.63
44.81
43.93
43.60
44.15
45.90
48.64
51.91
54.59
54.85
50.74
41.12
26.77
10.47
-3.87
-13.02
-15.83
-13.82
-9.93
-6.90
-6.04
-6.96
-8.51
-9.89
-11.41
-13.76
-17.59
-22.62
-27.75
-31.71
-33.82
-34.32
-34.18
-34.50
-35.82
-38.10
-40.65
-42.62
-43.14
-41.90
-38.95
-34.71
-29.79
-24.68
-19.68
-14.86
-10.08
-5.20
-0.07
5.48
11.66
18.63
26.35
34.38
41.87
47.79
50.98
51.15
48.35
43.00
35.67
27.05
17.85
8.82
0.66
-6.08
-11.05
-14.40
-16.88
-19.63
-23.76
-29.64
-36.55
-42.85
-46.79
-47.37
-45.19
-42.03
-39.76
-39.20
-39.77
-39.97
-38.47
-35.05
-30.47
-26.03
-22.44
-19.05
-14.07
-5.20
9.01
28.45
50.95
72.83
89.98
99.56
101.24
96.69
89.92
83.91
79.45
75.19
69.32
61.05
51.03
40.46
29.76
18.29
4.81
-11.03
-28.07
-43.56
-54.83
-60.80
-62.44
-61.90
-60.90
-60.04
-58.21
-54.90
-49.85
-43.69
-37.61
-32.65
-29.29
-27.40
-26.58
-26.27
-25.96
-25.08
-23.52
-21.45
-19.52
-18.56
-19.15
-21.27
-24.22
-26.86
-28.12
-27.38
-24.90
-21.67
-18.93
-17.89
-19.56
-24.57
-32.82
-42.68
-50.68
-52.37
-44.01
-24.52
3.24
33.24
58.53
74.06
79.19
77.20
72.92
70.04
69.48
69.74
68.64
65.21
60.42
56.57
55.64
58.23
63.64
70.69
77.97
84.05
86.98
84.16
72.97
52.41
24.24
-6.95
-35.17
-55.43
-65.56
-66.17
-60.83
-52.99
-44.75
-36.70
-28.88
-21.70
-16.22
-13.56
-13.75
-15.79
-17.84
-18.53
-17.24
-14.88
-12.85
-12.53
-14.44
-17.94
-21.77
-24.53
-25.69
-25.64
-25.62
-26.98
-30.39
-35.41
-40.67
-44.76
-46.75
-46.93
-46.28
-46.25
-47.96
-52.09
-58.82
-67.74
-77.45
-84.52
-85.74
-77.64
-58.70
-30.65
1.73
32.28
55.96
70.65
77.19
78.07
76.05
72.58
68.08
62.84
57.87
55.04
56.81
64.35
77.13
92.53
105.91
111.56
105.03
85.09
54.40
20.32
-9.21
-28.65
-36.83
-36.76
-33.36
-30.57
-29.67
-29.48
-28.01
-24.49
-19.84
-16.03
-14.66
-16.09
-19.04
-21.65
-22.21
-20.14
-16.23
-12.03
-9.05
-8.12
-9.09
-10.94
-12.40
-12.52
-11.02
-8.47
-5.82
-3.95
-3.27
-3.63
-4.44
-5.02
-4.90
-3.98
-2.59
-1.21
-0.23
0.15
0.04
-0.29
-0.54
-0.49
-0.12
0.47
1.07
1.52
1.71
1.67
1.48
1.24
1.08
1.04
1.13
1.30
1.49
1.64
1.72
1.73
1.74
1.80
1.98
2.30
2.73
3.16
3.51
3.69
3.74
3.73
3.87
4.27
5.00
5.94
6.86
7.47
7.63
7.34
6.88
6.68
7.09
8.23
9.86
11.46
12.43
12.41
11.43
10.02
8.93
8.78
9.67
11.07
11.89
10.95
7.45
1.41
-6.34
-14.53
-22.12
-28.56
-34.12
-39.55
-45.62
-52.53
-60.79
-70.52
-81.39
-92.00
-99.58
-100.39
-91.19
-71.09
-42.85
-11.84
15.47
34.30
43.35
44.69
42.11
38.88
36.38
34.27
31.61
28.11
24.53
22.11
21.63
22.79
24.42
25.16
24.01
21.03
17.11
13.50
11.24
10.73
11.55
12.80
13.45
12.87
11.06
8.55
6.11
4.44
3.79
4.00
4.57
4.92
4.64
3.65
2.16
0.52
-0.88
-1.81
-2.23
-2.25
-2.13
-2.13
-2.50
-3.33
-4.57
-5.98
-7.23
-7.99
-8.07
-7.51
-6.69
-6.16
-6.39
-7.60
-9.54
-11.54
-12.80
-12.76
-11.35
-9.23
-7.46
-6.97
-8.12
-10.29
-12.06
-11.68
-7.82
-0.31
9.76
20.39
29.76
36.69
41.38
45.07
49.37
55.11
63.19
73.45
84.72
94.60
99.59
95.87
80.82
54.69
21.40
-12.93
-41.82
-61.10
-70.36
-72.70
-72.87
-74.99
-80.66
-88.43
-94.49
-94.56
-85.80
-68.07
-44.29
-19.41
1.35
14.37
19.44
18.83
15.73
12.36
9.20
5.52
0.61
-5.12
-9.97
-12.08
-10.71
-6.75
-2.38
0.25
-0.27
-3.70
-8.63
-13.09
-15.50
-15.29
-13.04
-10.10
-7.73
-6.63
-6.42
-6.28
-5.02
-1.72
3.86
11.30
19.45
27.23
33.37
37.81
40.69
42.41
43.42
43.96
44.59
44.52
43.31
40.65
36.55
31.20
25.11
18.99
13.04
8.19
4.49
1.78
-0.42
-2.52
-4.74
-6.94
-8.59
-9.08
-7.83
-5.22
-2.02
0.85
2.40
2.30
0.93
-0.65
-1.13
0.65
5.07
11.45
18.49
24.57
28.26
28.54
24.96
17.59
7.20
-4.82
-16.36
-25.19
-29.78
-30.02
-27.32
-23.98
-22.14
-22.55
-24.06
-24.12
-20.22
-11.51
0.06
10.61
16.46
16.50
12.51
8.34
7.28
10.02
14.21
16.18
13.68
7.56
1.30
-1.35
1.01
6.27
10.15
8.95
1.71
-9.20
-19.57
-25.75
-26.46
-23.00
-18.11
-14.25
-12.50
-12.41
-12.64
-12.06
-10.33
-7.93
-5.72
-4.39
-4.11
-4.47
-4.73
-4.20
-2.52
0.18
3.32
6.08
7.73
7.97
6.98
5.30
3.59
2.25
1.39
0.83
0.35
-0.14
-0.53
-0.58
-0.08
0.99
2.42
3.92
5.27
6.43
7.55
8.88
10.56
12.55
14.56
16.20
17.21
17.60
17.72
18.03
18.93
20.68
23.32
26.63
30.18
33.39
35.64
36.46
35.59
33.12
29.21
24.52
19.58
14.27
7.68
-1.24
-12.83
-26.14
-39.22
-49.91
-56.73
-59.48
-59.04
-56.78
-53.76
-50.44
-46.78
-42.58
-37.85
-32.90
-28.33
-24.75
-22.54
-21.52
-21.08
-20.46
-18.99
-16.43
-13.10
-9.77
-7.38
-6.65
-7.58
-9.54
-11.42
-12.07
-10.90
-8.18
-4.99
-2.83
-3.00
-5.68
-10.01
-14.27
-16.62
-16.25
-13.60
-10.33
-8.58
-10.39
-15.94
-24.65
-35.52
-47.37
-58.90
-68.11
-72.05
-67.18
-52.60
-29.85
-3.12
22.38
43.17
58.77
70.99
81.75
90.60
93.77
86.12
64.09
27.92
-15.55
-56.27
-84.30
-93.19
-81.82
-54.34
-18.35
17.95
48.36
69.32
80.13
82.52
79.31
73.13
65.56
56.64
47.42
38.79
31.87
27.47
25.82
26.18
27.33
28.17
28.01
27.06
25.77
24.84
24.54
24.96
25.77
26.53
26.89
27.16
28.48
31.93
37.49
42.98
44.61
37.57
19.05
-9.95
-44.29
-76.39
-99.52
-110.08
-109.50
-102.53
-94.50
-88.72
-85.40
-82.51
-77.59
-69.31
-57.81
-44.13
-28.69
-11.40
7.83
28.69
49.43
67.29
79.51
84.58
83.03
77.08
70.68
66.60
65.41
65.22
62.81
55.35
42.05
24.19
5.12
-11.37
-22.83
-28.93
-31.16
-31.67
-32.06
-32.75
-33.26
-32.96
-31.65
-29.87
-28.29
-27.21
-26.24
-24.67
-21.89
-17.80
-12.92
-8.12
-4.31
-2.03
-1.26
-1.49
-1.97
-2.07
-1.43
-0.13
1.45
2.75
3.36
3.19
2.44
1.53
0.84
0.58
0.77
1.21
1.68
1.96
1.97
1.70
1.27
0.81
0.37
-0.01
-0.42
-0.97
-1.71
-2.57
-3.37
-3.89
-4.04
-3.92
-3.80
-3.96
-4.54
-5.46
-6.54
-7.49
-8.17
-8.53
-8.58
-8.32
-7.68
-6.68
-5.53
-4.68
-4.49
-5.10
-6.18
-7.00
-6.77
-5.11
-2.18
1.29
4.38
6.59
7.98
9.09
10.49
12.44
14.74
16.97
18.79
20.12
21.20
22.16
22.88
23.03
22.54
21.79
21.54
22.68
24.78
27.38
30.13
33.02
36.06
38.77
39.87
37.68
31.11
20.43
7.62
-4.50
-13.42
-18.49
-20.18
-19.67
-18.28
-16.81
-15.48
-14.01
-12.16
-10.02
-7.94
-6.23
-4.81
-3.56
-2.35
-1.19
-0.31
-0.18
-1.29
-3.95
-8.01
-12.93
-18.06
-22.71
-26.42
-28.90
-30.10
-30.11
-29.12
-27.39
-25.20
-22.82
-20.39
-17.89
-15.28
-12.63
-10.17
-8.19
-6.89
-6.16
-5.71
-5.20
-4.47
-3.65
-3.07
-3.06
-3.66
-4.60
-5.41
-5.61
-4.97
-3.56
-1.66
0.35
2.20
3.78
5.09
6.18
6.99
7.41
7.36
6.85
6.05
5.19
4.51
4.09
3.90
3.86
3.95
4.20
4.71
5.43
6.18
6.65
6.58
5.87
4.68
3.40
2.50
2.38
3.17
4.74
6.80
9.04
11.29
13.49
15.65
17.68
19.38
20.37
20.34
19.28
17.52
15.74
14.82
15.62
18.82
24.72
32.87
42.16
50.79
56.65
57.88
53.57
44.14
31.50
18.43
7.38
-0.10
-3.81
-4.66
-4.10
-3.69
-4.88
-8.80
-16.14
-27.03
-40.28
-53.38
-63.28
-67.87
-67.37
-64.78
-64.37
-66.42
-68.97
-67.93
-60.18
-46.47
-31.65
-21.59
-20.09
-26.74
-37.45
-47.29
-53.20
-55.67
-57.61
-61.30
-65.15
-63.59
-50.16
-22.24
15.33
51.42
73.43
73.49
52.25
18.62
-15.70
-42.24
-58.89
-68.49
-74.20
-76.34
-70.42
-52.04
-20.64
18.59
56.49
84.30
97.37
95.61
85.22
73.56
65.11
60.64
58.26
55.63
51.72
47.17
43.57
42.34
43.58
46.13
48.23
48.58
46.86
43.79
40.73
39.22
40.54
44.81
50.81
56.21
58.21
54.40
43.82
27.50
8.31
-9.93
-24.12
-32.87
-36.72
-37.38
-36.75
-36.04
-35.50
-34.79
-33.47
-31.44
-28.93
-26.23
-23.44
-20.61
-17.80
-15.27
-13.52
-13.02
-13.91
-15.86
-18.09
-19.62
-19.68
-18.03
-14.96
-11.18
-7.51
-4.39
-1.94
0.07
1.98
3.99
6.08
8.01
9.48
10.31
10.53
10.45
10.56
11.39
13.39
16.73
21.16
25.73
28.77
28.28
22.61
11.37
-3.98
-20.49
-34.87
-44.93
-50.43
-52.92
-54.48
-56.44
-58.52
-59.38
-57.57
-52.84
-46.45
-40.67
-37.75
-39.02
-44.70
-53.61
-63.09
-69.15
-67.29
-53.51
-26.49
11.01
52.14
87.85
110.13
115.08
104.21
83.36
59.91
39.73
25.47
16.89
12.23
10.00
9.54
10.82
13.58
16.85
19.23
19.35
16.93
12.83
8.71
6.09
5.60
6.94
8.90
10.12
9.79
8.00
5.62
3.86
3.39
3.64
3.22
0.53
-4.76
-10.73
-13.66
-9.97
1.81
19.80
39.30
55.05
63.01
61.24
49.56
29.05
2.01
-27.43
-53.34
-69.32
-70.97
-58.53
-37.39
-16.10
-2.04
1.61
-3.19
-11.31
-17.74
-20.17
-19.42
-17.72
-16.58
-15.97
-14.61
-11.23
-5.77
0.51
5.84
8.77
9.05
7.56
5.78
4.95
5.58
7.22
8.81
9.27
7.96
5.12
1.68
-1.09
-2.19
-1.27
1.27
4.58
7.66
9.66
10.00
8.39
4.94
0.24
-4.61
-8.22
-9.28
-7.15
-2.16
4.53
11.26
16.35
18.50
17.15
12.62
6.05
-0.90
-6.55
-9.75
-10.33
-9.13
-7.64
-7.26
-8.67
-11.65
-15.37
-18.83
-21.36
-22.78
-22.82
-21.70
-19.81
-17.52
-15.11
-12.69
-10.33
-8.15
-6.49
-5.68
-6.02
-7.40
-9.33
-11.10
-12.10
-12.10
-11.25
-10.00
-8.82
-8.11
-8.03
-8.52
-9.31
-10.05
-10.42
-10.34
-10.05
-10.02
-10.64
-11.86
-13.13
-13.66
-12.96
-11.29
-9.53
-8.62
-8.86
-9.60
-9.72
-8.38
-5.71
-2.68
-0.36
0.94
1.99
4.03
7.73
12.50
16.55
17.87
15.33
9.39
1.85
-5.07
-9.77
-11.82
-11.83
-10.81
-9.53
-8.09
-5.93
-2.28
3.32
10.69
18.91
26.69
32.83
36.67
38.21
38.00
36.79
35.15
33.37
31.54
29.66
27.92
26.61
26.12
26.65
28.08
30.06
32.05
33.67
34.75
35.37
35.68
35.74
35.38
34.30
32.29
29.32
25.70
21.89
18.37
15.46
13.24
11.58
10.23
9.04
7.99
7.26
7.21
8.23
10.43
13.54
16.87
19.50
20.71
20.38
19.12
18.08
18.51
20.90
24.76
28.68
31.11
31.24
29.62
28.02
28.72
33.50
42.29
53.27
63.29
69.39
70.27
66.80
61.52
57.23
55.98
57.43
59.59
59.16
52.89
38.35
13.94
-21.10
-65.53
-114.50
-160.03
-192.23
-203.78
-193.67
-168.69
-141.54
-125.88
-130.52
-150.69
-174.69
-187.58
-180.90
-157.77
-128.77
-103.83
-86.98
-76.09
-66.10
-53.76
-38.93
-24.46
-14.03
-9.57
-10.86
-16.20
-23.74
-31.52
-37.76
-39.72
-34.16
-18.34
8.58
44.40
83.93
120.62
148.70
164.14
165.32
152.76
129.23
99.96
71.88
51.68
43.34
46.55
57.02
68.35
75.11
74.99
69.33
61.44
54.52
49.99
47.43
45.47
42.98
39.76
36.32
33.45
31.21
28.57
23.60
14.45
0.48
-16.94
-34.24
-47.53
-54.24
-54.37
-50.17
-44.86
-40.85
-38.73
-37.44
-35.25
-31.27
-25.77
-19.98
-15.27
-12.36
-11.04
-10.37
-9.24
-6.95
-3.63
0.01
3.12
5.12
5.96
6.03
5.92
5.61
5.11
3.84
1.39
-2.17
-6.30
-10.03
-12.47
-13.00
-11.68
-9.50
-7.83
-7.69
-9.30
-12.04
-14.56
-15.21
-12.45
-5.62
3.97
13.73
21.09
24.50
23.99
21.20
18.68
18.99
23.31
29.31
33.72
34.26
29.99
20.95
8.22
-5.63
-15.92
-16.52
-4.74
20.75
59.60
107.89
157.50
198.94
222.33
221.03
195.33
147.09
83.67
16.80
-42.66
-89.26
-123.01
-146.86
-164.25
-178.56
-199.55
-234.27
-283.05
-341.08
-402.00
-458.39
-501.44
-522.21
-478.40
-362.17
-208.95
-67.89
33.66
94.08
125.04
140.42
150.35
159.22
161.08
151.68
134.06
115.84
103.01
97.63
98.53
103.14
108.38
107.47
97.37
81.35
65.73
54.92
50.06
49.81
51.96
54.34
52.67
45.17
34.08
23.45
15.98
12.23
11.17
11.42
11.80
10.40
6.56
1.74
-1.91
-3.10
-1.27
2.67
7.93
13.97
20.10
25.93
31.79
37.92
43.16
47.30
49.71
50.17
48.99
47.80
46.69
46.00
45.60
44.98
43.65
41.02
37.12
32.51
28.03
24.55
23.11
24.52
29.25
36.75
44.75
49.72
47.90
36.82
16.62
-9.40
-36.02
-57.72
-70.93
-75.07
-71.93
-64.39
-55.06
-45.46
-35.90
-26.05
-15.11
-2.67
11.04
25.24
38.63
49.72
57.45
61.75
61.68
58.32
53.56
49.28
46.76
46.21
46.95
47.66
46.57
41.95
33.18
21.35
9.50
2.06
3.05
14.17
33.55
56.26
76.38
89.56
94.16
91.11
82.56
70.53
56.46
41.44
26.75
13.79
3.67
-3.77
-9.81
-16.03
-23.28
-31.35
-39.60
-48.18
-58.42
-72.18
-90.33
-111.23
-130.55
-142.75
-143.45
-131.33
-108.54
-79.55
-49.07
-20.34
5.31
27.66
46.14
59.15
64.42
60.20
46.53
25.51
0.45
-25.86
-52.35
-79.79
-109.70
-142.74
-177.27
-209.15
-232.83
-243.27
-237.74
-216.71
-183.88
-145.05
-106.53
-73.45
-48.56
-31.84
-21.03
-13.02
-5.22
3.42
12.40
20.34
26.22
30.29
34.03
39.48
48.01
59.43
71.70
81.77
86.99
85.97
79.20
68.48
56.13
43.89
32.56
22.28
13.18
5.88
1.56
1.73
7.58
19.64
37.43
59.49
83.60
106.92
126.42
139.19
142.99
136.62
120.18
95.08
63.77
29.39
-4.79
-35.78
-61.26
-79.79
-90.87
-94.87
-92.87
-86.48
-77.70
-68.68
-61.31
-56.66
-54.53
-53.33
-50.58
-43.86
-32.02
-15.92
1.53
16.32
24.78
25.01
17.55
5.04
-8.96
-21.34
-30.30
-35.46
-37.26
-36.18
-32.31
-25.46
-15.68
-3.75
8.83
20.31
29.16
34.50
36.02
33.83
28.22
19.84
9.81
-0.18
-8.25
-12.89
-13.43
-10.24
-4.40
2.87
10.69
18.66
26.71
34.86
42.99
50.83
58.02
64.16
68.82
71.55
72.01
70.23
66.64
62.00
57.08
52.16
46.90
40.47
32.29
22.73
13.57
7.69
8.08
16.45
32.18
52.29
72.36
87.98
95.92
94.64
84.18
65.79
41.63
14.60
-11.83
-34.07
-49.24
-55.88
-54.31
-46.45
-35.18
-23.57
-14.17
-8.62
-7.36
-9.65
-13.76
-17.62
-19.54
-18.89
-16.31
-13.25
-11.32
-11.69
-14.93
-21.20
-30.58
-43.12
-58.59
-76.11
-94.08
-110.37
-122.77
-129.38
-128.98
-121.10
-106.17
-85.53
-61.48
-36.90
-14.78
2.66
14.58
21.71
25.88
29.17
33.04
37.99
43.60
49.01
53.38
56.13
57.05
56.23
54.02
51.02
48.04
45.76
44.49
43.84
42.87
40.50
36.03
29.44
21.36
12.56
3.57
-5.71
-15.71
-26.86
-39.19
-52.23
-65.26
-77.47
-88.13
-96.47
-101.55
-102.33
-98.00
-88.55
-75.01
-59.48
-44.51
-32.47
-24.84
-21.90
-22.85
-26.16
-30.11
-33.14
-34.11
-32.46
-28.15
-21.58
-13.53
-4.95
3.12
9.78
14.40
16.83
17.39
16.77
15.79
15.14
15.13
15.86
17.32
19.72
23.50
29.10
36.54
45.15
53.60
60.32
64.14
64.76
62.75
59.22
55.28
51.75
49.09
47.56
47.33
48.55
51.30
55.29
59.86
64.10
67.14
68.41
67.84
65.90
63.63
62.31
63.00
66.03
70.90
76.50
81.59
85.29
87.14
87.38
86.60
85.21
83.27
80.58
76.88
71.99
65.73
57.37
46.40
32.44
15.03
-6.32
-31.79
-61.00
-93.17
-127.56
-164.43
-203.67
-244.46
-284.99
-322.12
-351.23
-367.33
-366.82
-349.24
-318.37
-279.14
-235.90
-191.73
-148.35
-106.30
-65.77
-26.94
14.78
56.45
92.32
119.33
138.74
152.94
162.64
166.49
162.54
150.02
129.92
106.69
86.73
75.10
73.20
78.60
86.60
92.66
94.14
90.56
84.07
77.98
74.54
74.03
74.97
74.97
71.57
62.80
48.67
29.84
8.86
-11.26
-28.11
-40.24
-46.81
-47.02
-40.14
-26.02
-6.04
16.36
35.24
44.81
42.37
29.62
12.60
-3.51
-15.09
-21.57
-25.18
-29.41
-36.59
-46.56
-56.82
-63.86
-65.08
-59.57
-48.36
-33.72
-18.12
-3.35
9.53
19.79
26.68
29.27
25.97
16.71
3.17
-11.59
-23.99
-31.16
-31.93
-26.96
-18.32
-8.42
0.88
8.43
13.70
16.64
17.48
16.68
15.03
13.46
12.87
13.80
15.94
18.37
20.03
20.22
18.94
16.70
14.21
12.07
10.73
10.34
10.77
11.62
12.27
12.01
10.42
7.61
4.34
1.71
0.57
1.12
2.82
4.77
6.20
6.88
7.07
7.16
7.25
6.99
5.84
3.50
0.24
-3.06
-5.32
-5.66
-3.79
-0.13
4.45
8.89
12.32
14.22
14.48
13.35
11.29
8.84
6.52
4.68
3.48
2.80
2.32
1.64
0.38
-1.57
-4.06
-6.61
-8.69
-9.86
-9.95
-9.09
-7.59
-5.73
-3.77
-1.83
-0.09
1.19
1.66
1.03
-0.78
-3.51
-6.61
-9.40
-11.33
-12.13
-11.86
-10.78
-9.24
-7.54
-5.95
-4.70
-4.00
-3.93
-4.38
-5.08
-5.65
-5.82
-5.51
-4.91
-4.31
-3.93
-3.83
-3.89
-3.87
-3.53
-2.75
-1.59
-0.25
0.89
1.46
1.13
-0.21
-2.38
-5.04
-7.71
-9.94
-11.48
-12.29
-12.46
-12.21
-11.74
-11.25
-10.88
-10.74
-10.86
-11.20
-11.62
-11.89
-11.75
-10.93
-9.34
-7.11
-4.58
-2.13
-0.11
1.32
2.25
2.85
3.27
3.56
3.71
3.81
4.13
5.10
7.15
10.41
14.57
18.93
22.60
24.86
25.32
24.09
21.64
18.64
15.79
13.61
12.42
12.27
13.03
14.38
15.93
17.21
17.79
17.27
15.44
12.28
8.14
3.57
-0.73
-4.21
-6.51
-7.66
-7.97
-7.93
-8.05
-8.61
-9.57
-10.60
-11.28
-11.39
-11.08
-10.84
-11.18
-12.36
-14.12
-15.86
-16.96
-17.14
-16.54
-15.57
-14.61
-13.80
-13.05
-12.22
-11.31
-10.45
-9.76
-9.15
-8.29
-6.79
-4.40
-1.31
1.89
4.39
5.53
5.02
3.05
0.11
-3.11
-5.95
-7.76
-7.96
-6.13
-2.19
3.33
9.34
14.39
17.23
17.27
14.84
11.00
7.05
3.97
2.19
1.53
1.51
1.68
1.78
1.72
1.54
1.21
0.60
-0.46
-2.07
-4.19
-6.58
-8.82
-10.51
-11.35
-11.28
-10.46
-9.15
-7.57
-5.85
-4.09
-2.42
-1.02
-0.05
0.52
0.97
1.74
3.27
5.69
8.71
11.69
13.89
14.81
14.38
12.99
11.28
9.88
9.30
9.78
11.28
13.46
15.72
17.33
17.70
16.68
14.66
12.43
10.77
10.01
9.91
9.91
9.58
8.92
8.43
8.66
9.78
11.35
12.48
12.33
10.54
7.40
3.59
-0.24
-3.85
-7.49
-11.53
-16.11
-20.90
-25.14
-27.98
-28.92
-28.06
-26.01
-23.62
-21.53
-19.90
-18.39
-16.46
-13.68
-10.08
-6.11
-2.54
-0.08
0.88
0.49
-0.63
-1.67
-1.88
-0.99
0.70
2.45
3.43
3.12
1.58
-0.55
-2.38
-3.15
-2.59
-0.98
1.10
3.04
4.52
5.53
6.18
6.49
6.32
5.51
4.08
2.41
1.14
0.90
1.99
4.24
7.10
9.93
12.25
13.81
14.51
14.22
12.72
9.88
5.86
1.25
-3.01
-6.04
-7.40
-7.22
-6.15
-4.96
-4.24
-4.16
-4.66
-5.52
-6.61
-7.82
-9.01
-9.95
-10.39
-10.17
-9.32
-8.03
-6.45
-4.63
-2.46
0.16
3.07
5.86
7.85
8.48
7.50
5.10
1.84
-1.64
-4.82
-7.43
-9.42
-10.85
-11.80
-12.24
-12.16
-11.53
-10.40
-8.83
-6.82
-4.28
-1.11
2.70
6.85
10.79
13.80
15.27
14.91
12.89
9.73
6.09
2.48
-0.82
-3.71
-6.09
-7.75
-8.29
-7.29
-4.57
-0.30
4.92
10.26
14.90
18.25
20.09
20.43
19.45
17.42
14.66
11.60
8.74
6.61
5.58
5.62
6.31
6.87
6.46
4.51
0.94
-3.74
-8.59
-12.54
-14.72
-14.74
-12.74
-9.28
-5.19
-1.34
1.53
2.94
2.71
1.07
-1.37
-3.82
-5.53
-6.07
-5.44
-4.08
-2.66
-1.86
-2.14
-3.67
-6.27
-9.40
-12.34
-14.34
-14.86
-13.76
-11.20
-7.60
-3.33
1.31
6.10
10.67
14.56
17.19
18.14
17.38
15.22
12.28
9.18
6.38
4.12
2.41
1.15
0.18
-0.67
-1.52
-2.38
-3.14
-3.62
-3.65
-3.13
-2.12
-0.81
0.48
1.33
1.33
0.18
-2.11
-5.11
-8.13
-10.39
-11.39
-11.06
-9.79
-8.21
-6.90
-6.18
-6.08
-6.57
-7.66
-9.52
-12.30
-15.87
-19.71
-22.94
-24.60
-24.04
-21.18
-16.56
-11.12
-5.79
-1.10
2.90
6.57
10.25
13.96
17.29
19.57
20.16
18.79
15.66
11.33
6.46
1.60
-2.99
-7.19
-10.92
-13.95
-15.87
-16.30
-15.01
-12.13
-8.15
-3.82
0.04
2.74
3.86
3.39
1.71
-0.40
-2.06
-2.53
-1.54
0.70
3.55
6.29
8.40
9.83
10.86
11.88
13.11
14.42
15.48
15.99
15.89
15.46
15.13
15.26
15.93
16.86
17.54
17.43
16.20
13.87
10.83
7.68
5.00
3.16
2.18
1.81
1.69
1.55
1.36
1.28
1.49
2.01
2.65
3.07
3.01
2.39
1.38
0.17
-1.13
-2.61
-4.41
-6.63
-9.07
-11.31
-12.75
-12.91
-11.59
-9.08
-6.05
-3.39
-1.91
-2.06
-3.72
-6.25
-8.75
-10.41
-10.83
-10.07
-8.50
-6.49
-4.30
-1.97
0.42
2.61
4.11
4.35
2.99
0.14
-3.57
-7.15
-9.62
-10.37
-9.30
-6.87
-3.77
-0.70
1.89
3.85
5.28
6.27
6.82
6.84
6.25
5.18
3.98
3.12
3.01
3.76
5.13
6.62
7.69
7.94
7.27
5.76
3.64
1.17
-1.34
-3.54
-4.99
-5.29
-4.22
-1.88
1.28
4.59
7.40
9.26
10.05
9.87
9.02
7.79
6.42
5.06
3.81
2.74
2.01
1.88
2.75
4.97
8.69
13.72
19.49
25.22
30.15
33.79
35.95
36.67
36.11
34.45
31.89
28.64
25.02
21.36
18.07
15.65
14.65
15.65
18.85
23.83
29.36
33.72
35.27
33.13
27.61
19.99
11.94
4.85
-0.63
-4.57
-7.35
-9.07
-9.35
-7.34
-2.29
5.94
16.37
26.95
35.05
38.18
34.55
23.24
4.04
-22.49
-54.44
-87.95
-117.08
-135.02
-136.32
-119.18
-86.57
-45.34
-3.84
30.85
54.40
65.14
63.03
48.62
23.29
-9.95
-45.74
-77.10
-97.47
-103.25
-95.09
-77.52
-56.93
-39.22
-28.07
-24.49
-27.29
-34.18
-42.57
-50.10
-54.94
-55.90
-52.50
-44.98
-34.14
-21.12
-7.25
6.12
17.62
26.09
30.84
32.05
30.82
28.95
28.24
29.95
34.44
41.12
48.74
55.82
60.98
63.20
61.99
57.41
49.88
39.96
28.20
15.16
1.74
-10.63
-20.01
-24.42
-22.70
-15.19
-3.97
7.72
16.61
20.56
19.08
13.19
4.60
-5.10
-14.89
-24.21
-32.62
-39.54
-44.19
-45.85
-43.96
-38.23
-28.75
-15.92
-0.62
15.72
31.08
43.26
50.37
51.33
46.18
36.07
22.82
8.48
-5.06
-16.28
-24.05
-27.63
-26.66
-21.22
-12.03
-0.47
11.44
21.28
26.81
26.51
20.13
8.82
-5.11
-18.97
-30.44
-38.26
-42.30
-43.20
-41.80
-38.69
-34.14
-28.37
-21.93
-15.68
-10.61
-7.42
-6.39
-7.36
-10.06
-14.27
-19.64
-25.46
-30.40
-32.74
-30.95
-24.41
-13.73
-0.72
12.25
23.06
30.48
34.35
35.35
34.59
33.05
31.45
30.25
29.76
30.05
30.66
30.42
27.63
20.68
8.82
-7.17
-25.02
-41.64
-54.17
-60.98
-62.03
-58.52
-52.24
-44.76
-37.02
-29.19
-20.92
-11.61
-0.88
11.21
23.97
36.21
46.50
53.60
56.68
55.48
50.27
41.84
31.46
20.70
11.22
4.47
1.45
2.50
7.23
14.74
23.75
32.85
40.72
46.25
48.65
47.49
42.61
34.17
22.56
8.40
-7.51
-24.21
-40.65
-55.67
-67.99
-76.15
-78.64
-74.26
-62.69
-44.93
-23.44
-1.50
17.64
31.60
39.41
41.59
39.65
35.42
30.64
26.56
24.15
23.93
25.93
29.65
34.20
38.56
41.67
42.93
42.11
39.78
36.73
33.53
30.29
26.87
23.31
19.68
16.50
14.16
13.59
15.16
18.25
21.02
21.26
17.44
8.94
-3.00
-16.30
-27.80
-35.53
-38.92
-39.89
-41.92
-48.26
-61.01
-79.44
-103.95
-130.96
-155.47
-172.16
-176.90
-168.14
-142.98
-105.52
-60.73
-20.13
7.31
21.11
28.88
39.55
56.96
78.32
96.62
106.36
106.06
99.71
93.02
89.85
90.66
93.66
96.95
99.16
99.87
97.92
92.02
80.46
61.81
36.41
7.18
-20.77
-42.35
-54.08
-55.76
-49.52
-39.03
-28.18
-19.82
-15.19
-13.90
-14.72
-16.25
-17.64
-18.49
-18.84
-18.87
-18.59
-17.78
-16.16
-13.89
-11.68
-10.56
-11.20
-13.42
-16.25
-18.34
-18.80
-17.56
-15.39
-13.41
-12.46
-12.68
-13.58
-14.36
-14.21
-12.76
-10.13
-6.79
-3.34
-0.25
2.15
3.76
4.67
5.09
5.28
5.44
5.70
6.05
6.42
6.66
6.68
6.44
6.00
5.45
4.90
4.40
3.95
3.56
3.31
3.36
3.85
4.76
5.82
6.60
6.64
5.79
4.28
2.58
1.12
0.02
-0.84
-1.64
-2.26
-2.25
-1.04
1.54
4.92
7.98
9.52
8.95
6.68
3.91
2.01
1.85
3.40
5.79
7.89
8.92
8.71
7.57
5.90
4.07
2.51
1.77
2.52
5.16
9.31
13.52
15.50
12.72
3.73
-10.69
-27.36
-41.85
-50.41
-51.42
-45.77
-36.15
-25.95
-18.09
-14.32
-14.88
-18.63
-23.38
-26.64
-26.33
-21.36
-12.00
0.30
13.36
24.88
33.09
37.10
37.06
34.00
29.38
24.55
20.39
17.25
14.96
13.09
11.35
9.40
7.33
5.47
4.22
3.68
3.69
3.76
3.36
2.11
0.03
-2.42
-4.50
-5.49
-5.21
-3.81
-1.87
-0.16
0.54
-0.32
-2.64
-5.55
-7.34
-6.25
-0.78
9.42
22.99
36.94
47.41
51.16
46.80
35.35
18.56
-0.01
-16.65
-28.28
-33.11
-31.84
-27.06
-22.57
-19.23
-16.71
-14.46
-12.09
-9.92
-8.53
-8.37
-9.34
-10.75
-11.60
-11.51
-10.54
-9.25
-8.39
-8.57
-9.95
-12.07
-13.94
-14.39
-12.91
-9.68
-5.51
-1.57
1.06
1.79
0.73
-1.38
-3.50
-4.82
-4.91
-3.69
-1.39
1.67
5.16
8.83
12.49
15.97
18.95
21.03
21.88
21.37
19.65
17.24
14.84
13.24
13.07
14.66
17.98
22.67
28.12
33.61
38.45
42.15
44.53
45.74
46.25
46.70
47.69
49.57
52.27
55.22
57.34
57.15
53.12
44.03
29.53
10.38
-11.48
-33.39
-52.62
-67.08
-75.75
-78.84
-77.44
-73.05
-67.15
-61.02
-55.72
-52.17
-50.96
-52.10
-54.68
-57.00
-57.11
-53.69
-46.75
-37.80
-29.29
-23.54
-21.69
-23.28
-26.54
-29.25
-29.71
-27.28
-22.34
-15.90
-9.15
-3.10
1.53
4.29
4.95
3.59
0.62
-3.24
-7.11
-10.05
-11.40
-10.83
-8.49
-4.88
-0.76
3.10
6.10
7.99
8.87
9.13
9.21
9.44
9.88
10.38
10.73
10.78
10.51
9.96
9.25
8.45
7.63
6.83
6.12
5.55
5.20
5.05
5.07
5.14
5.12
4.87
4.27
3.27
1.85
0.11
-1.73
-3.29
-4.11
-3.81
-2.20
0.59
4.14
7.90
11.33
14.05
15.91
16.92
17.16
16.71
15.64
13.99
11.87
9.43
6.95
4.68
2.89
1.78
1.40
1.70
2.50
3.57
4.67
5.60
6.16
6.10
5.09
2.90
-0.49
-4.73
-9.12
-12.77
-14.96
-15.33
-13.91
-11.11
-7.44
-3.49
0.19
3.07
4.66
4.76
3.58
1.88
0.69
0.95
3.04
6.66
10.98
15.02
18.04
19.69
19.92
18.92
16.89
14.04
10.58
6.82
3.30
0.66
-0.54
0.00
2.20
5.55
9.25
12.47
14.56
15.39
15.27
14.72
14.24
14.26
14.90
16.02
17.34
18.60
19.74
21.04
22.73
24.94
27.83
31.17
34.24
35.86
34.89
31.10
25.68
20.54
17.68
18.76
23.87
31.57
39.05
43.45
43.72
41.32
38.88
39.11
43.97
53.57
66.40
79.24
88.08
90.00
84.01
69.82
45.15
11.19
-26.25
-58.39
-79.70
-91.20
-101.13
-114.88
-134.30
-157.77
-180.76
-198.23
-200.67
-176.88
-124.60
-51.43
27.78
96.86
145.41
171.67
175.59
158.70
123.53
71.78
10.20
-51.93
-103.34
-134.55
-142.76
-132.84
-112.69
-89.86
-69.65
-54.11
-43.06
-35.18
-28.98
-23.47
-18.39
-13.18
-7.90
-3.40
-0.20
1.62
2.57
3.20
3.78
4.30
5.08
6.27
7.60
8.81
9.69
10.26
10.58
10.58
10.22
9.73
9.38
9.25
9.34
9.54
9.82
10.12
10.33
10.33
10.17
9.96
9.79
9.77
9.93
10.33
10.94
11.66
12.34
12.81
12.97
12.81
12.45
12.17
12.26
12.94
14.22
15.78
17.14
17.83
17.68
16.90
16.10
15.95
16.80
18.52
20.18
20.47
18.14
12.80
5.01
-3.66
-11.31
-16.53
-19.03
-19.92
-21.14
-24.50
-30.67
-38.84
-46.62
-51.30
-51.40
-47.14
-40.84
-35.58
-34.18
-37.83
-46.20
-57.36
-68.50
-76.30
-76.82
-66.75
-45.11
-14.94
16.28
38.37
42.95
27.16
-4.15
-39.82
-66.91
-76.15
-65.55
-39.20
-7.90
19.01
36.75
45.58
48.66
49.20
48.60
46.41
41.41
33.28
23.81
16.04
12.39
13.40
17.28
20.85
21.15
16.76
8.41
-1.28
-9.24
-13.43
-13.56
-10.92
-7.63
-5.61
-5.62
-7.17
-8.43
-7.65
-3.73
3.32
12.52
22.36
31.28
38.44
43.61
46.56
48.30
49.37
49.85
49.51
48.63
46.44
42.88
38.22
32.93
27.60
22.66
18.24
14.36
10.97
7.89
5.10
2.62
0.46
-1.86
-3.90
-5.65
-7.14
-8.43
-9.64
-10.69
-11.52
-12.00
-12.04
-11.52
-10.58
-9.44
-8.33
-7.52
-7.08
-6.91
-6.83
-6.57
-5.89
-4.85
-3.67
-2.66
-2.14
-2.15
-2.46
-2.50
-1.87
-0.22
2.36
5.37
8.06
9.78
10.28
9.88
9.39
9.76
11.69
15.20
19.59
23.71
26.41
27.10
26.07
24.34
23.42
24.95
30.22
39.28
50.63
61.30
67.31
64.95
52.20
29.86
1.57
-27.52
-51.87
-68.37
-76.88
-79.56
-79.55
-79.44
-80.43
-82.10
-82.77
-79.95
-71.61
-56.95
-37.18
-15.50
3.67
16.42
20.77
17.66
10.50
3.59
0.47
2.69
9.56
18.77
27.51
33.33
34.75
31.54
24.54
15.66
7.31
1.83
0.71
4.04
10.40
17.29
22.00
22.63
18.74
11.37
2.69
-4.97
-9.77
-10.89
-8.72
-4.67
-0.90
0.35
-2.42
-9.42
-19.34
-29.57
-37.25
-40.45
-39.00
-34.36
-28.64
-23.38
-18.46
-12.32
-3.03
10.12
25.65
40.19
49.84
51.90
46.19
35.02
21.91
9.93
0.55
-6.57
-12.60
-18.40
-23.73
-27.42
-28.16
-25.28
-19.33
-11.83
-4.52
1.45
5.73
8.89
11.94
15.69
20.33
25.32
29.60
32.03
31.73
28.57
23.35
17.63
13.11
10.99
11.60
14.45
18.74
23.80
29.23
34.83
40.30
44.92
47.57
46.87
41.21
30.00
13.74
-5.93
-26.19
-43.41
-53.84
-54.67
-45.22
-27.49
-5.82
14.29
28.00
32.78
28.97
19.30
7.51
-3.10
-10.59
-14.57
-15.83
-15.72
-15.65
-16.91
-20.58
-27.40
-37.46
-49.76
-62.06
-71.47
-75.34
-72.39
-63.19
-49.87
-35.32
-22.14
-12.06
-5.87
-3.65
-5.03
-9.20
-14.99
-20.83
-25.10
-26.59
-24.85
-20.18
-13.49
-5.90
1.77
9.39
17.63
27.56
39.99
54.57
69.31
80.91
85.93
82.17
69.72
51.07
30.22
11.25
-2.82
-10.54
-11.87
-7.68
0.51
10.48
19.27
23.53
20.51
9.32
-8.36
-28.44
-45.82
-56.10
-57.03
-49.08
-34.88
-18.08
-2.13
10.48
18.36
21.08
18.86
12.45
3.07
-7.73
-18.23
-26.88
-32.60
-34.88
-33.62
-29.12
-21.86
-12.45
-1.72
9.14
18.59
25.05
27.49
25.86
21.21
15.36
10.08
6.34
4.01
2.06
-0.67
-4.77
-9.91
-14.95
-18.42
-19.15
-16.76
-11.80
-5.61
0.11
3.85
4.62
2.29
-2.41
-8.04
-12.78
-14.86
-12.99
-6.90
2.42
12.86
21.76
26.62
25.92
19.59
8.98
-3.58
-15.61
-25.12
-31.06
-33.45
-33.08
-31.14
-28.72
-26.40
-24.10
-21.21
-16.94
-10.65
-2.18
8.21
19.98
32.59
45.55
58.25
69.64
78.16
81.97
79.70
71.31
58.46
44.19
31.89
24.06
21.41
22.92
26.51
30.11
32.44
33.10
32.13
29.46
24.73
17.50
7.86
-3.34
-14.58
-24.23
-31.02
-34.18
-33.45
-28.84
-20.64
-9.65
2.65
14.16
22.72
26.99
27.07
24.36
20.75
17.59
15.13
12.81
10.10
7.22
5.15
5.09
7.82
13.37
21.15
30.33
40.13
49.71
58.00
63.66
65.61
63.68
59.16
54.54
52.66
55.55
63.59
75.44
88.50
99.79
106.65
107.35
101.25
88.77
71.22
50.57
29.30
10.03
-4.82
-13.47
-15.33
-11.25
-3.53
4.60
9.90
10.20
4.91
-4.93
-17.27
-29.85
-41.08
-50.52
-58.83
-67.28
-76.95
-88.16
-100.25
-112.02
-122.31
-130.72
-137.76
-144.30
-150.96
-157.47
-162.57
-164.61
-162.36
-155.64
-145.42
-133.61
-122.76
-115.48
-113.90
-118.87
-129.14
-141.13
-149.71
-150.04
-139.84
-120.80
-98.21
-78.67
-67.03
-64.06
-66.32
-68.00
-63.88
-51.59
-32.11
-8.63
15.16
36.28
52.83
63.82
68.77
67.78
61.77
52.56
42.50
33.95
28.71
27.84
31.67
39.92
51.45
64.27
75.68
83.13
85.12
82.12
76.47
71.23
68.66
69.13
71.17
72.43
71.06
66.50
59.39
50.86
41.77
32.41
22.81
13.19
4.34
-2.66
-7.00
-8.66
-8.50
-7.94
-8.57
-11.66
-18.05
-27.97
-40.88
-55.20
-68.68
-78.85
-83.85
-82.91
-76.42
-65.58
-51.77
-36.37
-20.72
-6.34
5.07
11.99
13.76
11.00
5.51
-0.44
-5.10
-7.80
-9.03
-9.78
-10.55
-10.64
-8.39
-2.25
8.08
20.94
32.96
40.34
40.51
33.12
19.99
4.07
-11.72
-25.26
-35.52
-42.40
-46.44
-48.77
-50.89
-54.37
-60.46
-69.38
-80.04
-90.24
-97.57
-100.55
-99.06
-93.98
-86.48
-77.76
-68.79
-60.12
-51.93
-44.35
-37.90
-33.23
-30.55
-28.59
-24.88
-16.23
0.37
26.28
60.00
96.51
129.40
153.51
167.72
174.44
178.12
183.23
191.85
202.08
207.24
199.18
172.47
128.49
75.30
25.23
-9.10
-19.47
-4.43
29.20
66.52
89.69
91.66
79.32
65.20
58.72
62.15
74.94
88.40
94.32
87.52
67.41
35.67
-5.17
-52.20
-104.06
-154.30
-195.89
-222.51
-230.06
-216.89
-185.91
-144.07
-99.57
-59.48
-25.97
1.96
26.18
47.04
64.81
79.31
90.10
101.79
112.62
120.17
122.15
118.21
105.91
88.58
71.38
58.96
53.97
55.80
62.80
72.03
80.27
84.91
85.35
81.96
75.94
69.05
62.25
56.15
49.97
41.73
29.28
11.91
-10.16
-35.67
-62.64
-88.78
-110.42
-122.88
-121.41
-102.75
-66.49
-16.92
37.48
86.18
119.68
132.84
126.22
105.44
78.85
54.87
39.35
34.37
38.47
47.78
57.56
63.26
61.05
48.37
24.52
-8.85
-47.56
-85.46
-115.89
-133.60
-136.46
-125.91
-106.14
-82.45
-59.46
-39.96
-24.59
-12.59
-2.92
4.69
9.41
9.71
4.48
-6.04
-19.86
-33.99
-45.62
-53.41
-57.96
-61.37
-66.09
-73.75
-84.77
-98.47
-113.52
-128.28
-140.71
-148.32
-148.38
-139.03
-120.38
-95.49
-70.01
-50.42
-41.41
-43.64
-53.31
-63.59
-67.36
-59.91
-40.27
-10.96
23.34
57.33
86.16
106.18
115.30
113.40
102.49
86.41
69.74
56.18
47.33
42.41
39.09
34.75
27.76
17.84
5.90
-6.56
-17.96
-27.07
-33.21
-36.40
-37.41
-37.75
-39.35
-44.13
-53.64
-68.53
-88.25
-111.04
-134.23
-154.97
-170.85
-180.53
-183.72
-180.73
-171.76
-156.34
-133.27
-101.22
-59.79
-10.64
42.20
93.01
135.82
166.08
181.84
183.77
174.58
157.84
137.04
115.11
94.38
76.78
63.86
56.34
53.65
53.85
54.05
51.47
44.56
33.56
20.36
7.62
-2.25
-7.87
-9.25
-7.49
-4.31
-1.56
-0.73
-2.41
-5.98
-9.68
-11.10
-8.17
-0.12
11.93
25.54
37.71
46.07
49.42
47.78
41.85
32.62
21.12
8.54
-3.75
-14.27
-21.59
-24.54
-22.50
-15.60
-4.97
7.25
18.22
25.31
27.10
24.02
18.17
12.31
8.59
7.71
8.78
10.10
10.09
7.95
3.65
-2.33
-9.27
-16.40
-22.86
-27.76
-30.50
-31.21
-30.85
-30.90
-32.64
-36.60
-42.46
-49.33
-56.26
-62.42
-67.01
-69.13
-67.98
-63.17
-55.01
-44.23
-31.30
-15.70
4.05
29.16
59.10
90.97
120.29
143.07
157.86
166.44
172.42
178.91
186.67
193.89
197.71
196.44
190.79
183.58
178.21
176.85
179.65
184.99
190.34
193.22
191.71
184.42
170.54
149.91
123.09
91.32
56.42
20.57
-13.91
-44.76
-69.72
-87.03
-95.83
-96.62
-91.25
-82.43
-72.91
-64.69
-58.87
-55.75
-55.34
-57.56
-62.12
-68.18
-74.10
-77.54
-76.23
-68.83
-55.74
-39.51
-24.40
-15.35
-16.56
-30.16
-55.54
-89.32
-126.42
-161.33
-189.62
-208.69
-217.91
-217.94
-209.89
-194.63
-172.99
-146.49
-118.30
-93.34
-77.14
-73.56
-82.68
-99.91
-117.55
-127.95
-126.78
-114.81
-96.97
-79.48
-66.72
-59.57
-55.74
-51.90
-45.78
-37.22
-27.85
-19.78
-14.44
-12.02
-11.73
-12.39
-13.01
-12.97
-12.01
-9.92
-6.44
-1.18
6.20
15.76
26.96
38.59
48.94
56.13
58.68
56.14
49.38
40.46
32.05
26.65
25.82
29.74
37.30
46.52
55.40
62.49
67.32
70.27
72.14
73.47
74.15
73.43
70.26
63.83
54.06
41.86
28.91
17.37
9.28
5.88
7.26
12.37
19.34
26.08
30.87
32.76
31.80
28.64
24.10
18.99
14.05
9.94
7.25
6.30
6.94
8.85
11.24
13.00
13.18
11.51
8.45
4.80
1.13
-2.60
-6.16
-9.88
-14.78
-21.99
-31.99
-44.30
-57.62
-70.05
-79.99
-84.94
-83.73
-77.34
-68.55
-60.31
-54.63
-52.04
-51.14
-49.09
-40.20
-20.34
10.42
47.40
83.61
112.84
132.49
144.94
146.99
140.63
131.62
125.32
122.08
118.32
110.00
94.50
75.01
50.07
21.65
-6.28
-29.03
-42.51
-44.48
-35.53
-19.93
-5.15
1.34
-1.65
-11.11
-22.59
-32.30
-37.51
-36.53
-28.74
-14.76
3.07
22.53
40.40
53.21
58.37
55.29
45.40
31.46
16.68
3.59
-5.72
-10.99
-13.76
-16.48
-21.03
-27.82
-35.91
-43.64
-49.44
-52.13
-51.66
-48.11
-41.97
-33.86
-24.59
-15.49
-8.32
-4.81
-5.70
-10.27
-16.27
-20.82
-21.52
-17.32
-9.02
1.32
11.21
18.65
22.24
22.17
18.98
13.49
6.65
-0.46
-6.72
-11.14
-13.07
-12.48
-9.96
-6.70
-3.99
-2.76
-3.41
-5.70
-8.99
-12.37
-14.97
-16.22
-16.00
-14.60
-12.52
-10.35
-8.62
-7.72
-7.74
-8.50
-9.52
-10.22
-10.02
-8.52
-5.70
-1.96
1.99
5.34
7.47
8.20
7.78
6.81
5.92
5.53
5.79
6.54
7.52
8.45
9.11
9.35
9.21
8.81
8.41
8.27
8.54
9.17
9.94
10.54
10.73
10.38
9.52
8.16
6.28
3.83
0.80
-2.59
-5.99
-8.90
-10.91
-11.84
-11.83
-11.17
-10.22
-9.17
-8.02
-6.61
-4.81
-2.55
0.05
2.81
5.56
8.19
10.67
12.96
14.95
16.52
17.50
17.83
17.55
16.77
15.62
14.17
12.47
10.62
8.81
7.24
6.09
5.37
4.98
4.71
4.35
3.82
3.06
2.13
1.07
-0.04
-1.07
-1.85
-2.20
-2.02
-1.37
-0.43
0.54
1.33
1.89
2.27
2.57
2.79
2.75
2.25
1.08
-0.77
-3.11
-5.63
-8.05
-10.21
-12.08
-13.75
-15.24
-16.49
-17.36
-17.71
-17.46
-16.69
-15.55
-14.23
-12.86
-11.48
-10.01
-8.35
-6.42
-4.19
-1.77
0.66
2.89
4.74
6.09
6.92
7.25
7.18
6.81
6.29
5.78
5.47
5.51
5.97
6.82
7.89
8.94
9.73
10.10
10.04
9.67
9.20
8.81
8.59
8.56
8.64
8.77
8.84
8.77
8.46
7.81
6.75
5.34
3.70
2.00
0.42
-0.94
-2.04
-2.91
-3.58
-4.03
-4.25
-4.19
-3.92
-3.62
-3.56
-4.02
-5.24
-7.30
-10.06
-13.22
-16.36
-19.06
-21.00
-22.02
-22.15
-21.56
-20.52
-19.28
-18.04
-16.91
-15.89
-14.88
-13.77
-12.43
-10.79
-8.80
-6.46
-3.77
-0.72
2.61
6.10
9.56
12.74
15.39
17.35
18.56
19.09
19.10
18.81
18.37
17.92
17.49
17.05
16.59
16.10
15.64
15.25
14.96
14.66
14.21
13.41
12.15
10.49
8.60
6.75
5.18
4.00
3.15
2.34
1.24
-0.49
-3.03
-6.39
-10.35
-14.64
-18.92
-22.88
-26.29
-28.97
-30.82
-31.77
-31.80
-30.98
-29.41
-27.26
-24.65
-21.62
-18.15
-14.16
-9.63
-4.66
0.49
5.39
9.56
12.58
14.25
14.64
14.07
12.99
11.83
10.85
10.11
9.47
8.77
7.91
6.95
6.10
5.57
5.46
5.66
5.98
6.23
6.31
6.30
6.35
6.54
6.85
7.15
7.27
7.10
6.62
5.89
4.98
3.99
2.99
2.00
1.07
0.20
-0.57
-1.25
-1.78
-2.10
-2.15
-1.90
-1.39
-0.69
0.08
0.83
1.48
2.04
2.52
2.93
3.28
3.56
3.73
3.69
3.38
2.77
1.93
1.02
0.25
-0.26
-0.42
-0.29
0.07
0.56
1.15
1.76
2.28
2.57
2.49
2.03
1.25
0.29
-0.84
-2.17
-3.77
-5.51
-7.05
-7.91
-7.69
-6.40
-4.45
-2.55
-1.39
-1.35
-2.43
-4.32
-6.66
-9.12
-11.46
-13.43
-14.69
-14.86
-13.64
-11.01
-7.22
-2.80
1.67
5.74
9.15
11.90
14.05
15.71
16.87
17.45
17.41
16.81
15.86
14.92
14.32
14.18
14.41
14.65
14.49
13.63
11.97
9.71
7.16
4.60
2.20
-0.04
-2.21
-4.37
-6.49
-8.41
-9.95
-11.05
-11.90
-12.92
-14.72
-17.81
-22.26
-27.59
-32.80
-36.64
-38.07
-36.56
-32.28
-26.01
-18.91
-12.17
-6.80
-3.47
-2.49
-3.75
-6.75
-10.60
-14.24
-16.55
-16.75
-14.53
-10.16
-4.34
2.01
8.00
12.98
16.55
18.58
19.11
18.33
16.58
14.40
12.38
11.07
10.73
11.31
12.50
13.84
14.99
15.76
16.08
15.97
15.45
14.55
13.34
11.97
10.62
9.44
8.47
7.63
6.79
5.86
4.87
3.95
3.26
2.90
2.85
2.97
3.10
3.17
3.17
3.21
3.46
4.05
5.03
6.36
7.87
9.34
10.54
11.34
11.76
12.03
12.44
13.20
14.33
15.50
16.14
15.56
13.13
8.48
1.63
-6.89
-16.15
-24.92
-31.97
-36.34
-37.62
-35.94
-31.95
-26.55
-20.67
-15.12
-10.52
-7.33
-5.77
-5.78
-7.04
-9.02
-11.17
-13.05
-14.48
-15.44
-16.04
-16.35
-16.35
-15.99
-15.18
-13.83
-11.92
-9.45
-6.58
-3.60
-0.91
1.10
2.22
2.54
2.42
2.30
2.45
2.87
3.31
3.50
3.41
3.31
3.65
4.79
6.75
9.22
11.71
13.89
15.70
17.30
18.89
20.45
21.70
22.30
22.10
21.20
19.91
18.55
17.29
16.09
14.80
13.34
11.93
10.92
10.49
10.54
10.71
10.51
9.68
8.17
6.07
3.59
0.78
-2.54
-6.49
-10.80
-14.75
-17.14
-16.93
-13.87
-8.59
-2.76
1.20
0.87
-5.64
-18.70
-36.02
-53.27
-67.05
-74.28
-72.68
-61.48
-41.64
-14.47
16.21
45.84
70.41
87.51
96.78
99.18
96.16
89.14
79.44
68.27
57.28
48.13
41.84
38.20
35.38
30.04
19.53
3.23
-16.89
-36.67
-51.70
-59.55
-60.68
-58.09
-55.92
-57.13
-62.32
-69.51
-75.08
-75.70
-70.23
-60.36
-49.76
-42.49
-40.90
-44.75
-51.66
-58.30
-61.94
-61.04
-54.97
-43.59
-27.48
-8.50
9.14
19.69
18.65
5.94
-13.56
-31.54
-39.66
-33.48
-14.24
11.89
37.44
56.28
67.58
74.61
81.67
91.57
101.17
106.00
101.09
82.16
49.85
10.32
-26.53
-50.34
-54.54
-39.53
-12.50
15.61
35.21
42.57
40.59
35.46
32.13
30.82
27.18
16.42
-2.71
-25.72
-44.13
-49.41
-38.38
-14.90
11.74
31.18
36.84
28.61
11.88
-5.71
-17.86
-22.41
-20.27
-15.15
-11.75
-13.61
-21.68
-34.11
-47.27
-57.60
-63.13
-63.75
-61.06
-57.08
-53.10
-49.15
-44.30
-37.37
-27.51
-14.18
3.28
25.30
50.69
75.62
94.57
103.71
103.29
96.48
86.74
76.42
66.11
55.87
46.15
38.20
33.48
32.35
33.51
34.54
33.81
29.04
18.96
3.46
-16.34
-38.12
-58.64
-74.40
-82.24
-80.28
-68.97
-50.88
-30.12
-10.84
3.93
12.86
15.99
14.44
10.11
4.66
-0.60
-4.96
-7.95
-8.94
-7.57
-3.97
0.95
5.36
7.08
4.88
-0.67
-7.18
-11.51
-11.58
-6.82
1.62
11.44
20.01
25.51
27.42
26.31
23.28
18.87
13.71
8.46
3.31
-2.29
-9.48
-19.40
-32.68
-49.25
-69.02
-90.31
-109.98
-124.33
-129.87
-124.14
-106.26
-77.36
-37.42
6.72
44.55
68.07
76.06
72.94
64.70
55.90
48.53
42.55
36.41
29.50
23.09
18.18
15.21
13.66
12.30
9.63
4.59
-3.35
-13.00
-21.73
-26.86
-26.95
-22.17
-14.45
-6.58
-1.12
0.36
-1.69
-5.15
-7.61
-7.45
-4.45
0.43
5.77
10.36
13.42
14.99
15.78
16.59
17.90
19.73
21.65
23.02
23.23
21.77
18.48
13.75
8.31
3.12
-0.82
-2.66
-1.91
1.43
6.79
13.24
19.89
25.93
30.61
33.25
33.40
31.04
26.67
21.46
16.91
14.59
15.26
18.38
22.28
24.91
24.49
19.90
10.74
-3.51
-21.59
-40.24
-55.04
-62.57
-61.94
-54.85
-44.52
-34.25
-26.21
-20.79
-17.36
-14.99
-13.39
-12.55
-12.16
-11.45
-9.33
-4.91
2.10
10.90
19.86
26.60
29.26
27.13
20.67
11.46
1.85
-5.43
-8.23
-5.82
0.67
8.62
14.85
16.84
13.79
6.81
-1.69
-9.23
-14.27
-16.54
-16.54
-14.80
-11.37
-5.92
1.67
10.70
19.47
25.62
26.93
22.22
11.83
-2.48
-17.92
-31.27
-39.65
-41.21
-35.74
-24.93
-11.94
-0.47
6.54
7.88
4.36
-1.84
-8.34
-13.60
-17.24
-19.68
-21.42
-22.53
-22.61
-21.27
-18.52
-14.87
-11.16
-8.00
-5.58
-3.59
-1.59
0.67
2.97
4.61
4.69
2.51
-2.02
-8.13
-14.26
-18.36
-18.61
-14.14
-5.43
5.68
16.66
25.18
29.92
30.96
29.42
26.86
24.56
23.18
22.80
23.21
24.17
25.45
26.69
27.26
26.25
22.89
16.91
8.99
0.59
-6.46
-10.78
-11.95
-10.76
-8.82
-7.80
-8.78
-11.70
-15.48
-18.54
-19.44
-17.49
-12.90
-6.61
0.18
6.49
11.76
15.97
19.32
22.00
24.00
25.14
25.29
24.56
23.42
22.51
22.44
23.49
25.36
27.25
28.14
27.23
24.30
19.81
14.60
9.67
5.76
3.05
1.12
-0.63
-2.54
-4.42
-5.63
-5.63
-4.19
-1.76
0.55
1.33
-0.52
-5.25
-12.24
-20.40
-28.77
-36.52
-42.98
-47.53
-49.50
-48.08
-42.52
-32.42
-17.68
-0.40
15.72
27.07
31.90
30.74
25.52
18.62
11.99
7.20
3.95
1.79
0.39
-0.37
-0.56
-0.28
0.29
0.91
1.19
0.68
-0.66
-2.55
-4.51
-6.07
-6.94
-6.99
-6.31
-5.09
-3.71
-2.39
-1.25
-0.38
0.14
0.28
0.17
0.08
0.33
1.07
2.30
3.82
5.28
6.27
6.45
5.61
3.69
0.82
-2.72
-6.47
-9.89
-12.54
-14.22
-15.07
-15.43
-15.67
-15.99
-16.33
-16.32
-15.49
-13.58
-10.77
-7.80
-5.76
-5.65
-7.91
-12.15
-17.26
-21.86
-24.85
-25.72
-24.60
-21.94
-18.21
-13.74
-8.76
-3.58
1.33
5.47
8.50
10.44
11.63
12.54
13.56
14.89
16.52
18.29
19.99
21.38
22.20
22.22
21.26
19.33
16.59
13.32
9.81
6.31
2.97
-0.11
-2.82
-5.05
-6.72
-7.77
-8.20
-7.96
-6.98
-5.22
-2.76
0.16
3.12
5.71
7.64
8.90
9.70
10.32
10.90
11.39
11.58
11.24
10.31
8.91
7.30
5.73
4.36
3.24
2.32
1.52
0.80
0.12
-0.52
-1.08
-1.55
-1.93
-2.21
-2.36
-2.36
-2.11
-1.55
-0.61
0.69
2.23
3.79
5.11
6.03
6.49
6.59
6.51
6.37
6.23
5.96
5.41
4.45
3.11
1.57
0.10
-1.02
-1.69
-1.93
-1.91
-1.78
-1.64
-1.52
-1.41
-1.29
-1.18
-1.10
-1.01
-0.80
-0.37
0.32
1.15
1.91
2.39
2.50
2.35
2.20
2.28
2.69
3.34
3.99
4.44
4.53
4.22
3.44
2.09
0.02
-2.96
-6.86
-11.48
-16.39
-21.00
-24.78
-27.38
-28.63
-28.54
-27.17
-24.60
-21.01
-16.64
-11.73
-6.51
-1.13
4.30
9.59
14.36
18.11
20.34
20.91
20.21
19.12
18.66
19.49
21.60
24.31
26.57
27.30
25.83
22.04
16.36
9.63
2.73
-3.45
-8.25
-11.49
-13.63
-15.77
-19.15
-24.60
-31.91
-39.95
-46.81
-50.38
-49.22
-43.23
-33.80
-23.26
-14.09
-7.78
-5.03
-5.48
-8.00
-11.38
-14.94
-18.66
-23.03
-27.21
-30.12
-32.11
-34.83
-39.90
-47.43
-55.35
-60.09
-58.08
-49.28
-33.40
-12.38
10.29
31.06
47.48
58.67
65.30
69.21
70.09
69.31
68.08
66.85
65.28
62.43
57.61
50.76
42.44
33.38
24.60
16.73
9.08
1.39
-5.95
-12.12
-16.26
-17.94
-17.41
-14.99
-11.52
-7.88
-4.27
-0.71
2.87
6.50
10.00
13.01
15.43
17.04
17.66
17.35
16.40
15.26
14.34
13.81
13.55
13.32
12.78
11.75
10.43
9.26
8.73
9.11
10.23
11.64
12.87
13.55
13.51
12.85
11.74
10.39
8.96
7.49
6.01
4.51
2.89
0.96
-1.51
-4.71
-8.80
-13.85
-19.82
-26.29
-32.45
-37.28
-39.87
-39.62
-36.38
-30.60
-23.39
-16.41
-11.11
-8.45
-8.74
-11.64
-15.82
-19.37
-20.47
-18.62
-15.14
-12.09
-11.42
-14.25
-20.53
-28.49
-35.26
-38.06
-35.90
-30.29
-23.53
-17.70
-14.30
-14.27
-17.40
-22.23
-26.34
-27.46
-23.91
-13.31
6.86
39.07
79.34
117.43
142.10
147.60
138.18
117.05
86.39
48.01
3.14
-47.05
-99.41
-149.23
-187.00
-203.55
-194.51
-162.10
-114.76
-63.82
-19.27
13.60
34.58
46.69
52.64
53.86
49.37
38.17
20.65
-0.71
-21.21
-35.32
-38.57
-29.53
-10.18
15.96
45.73
74.89
98.31
112.41
116.57
112.87
103.77
90.67
74.22
55.35
35.76
17.98
4.63
-2.82
-4.78
-3.43
-1.62
-1.59
-4.09
-8.66
-14.14
-19.23
-23.08
-25.48
-26.71
-27.04
-26.52
-24.93
-22.20
-18.44
-14.03
-9.59
-5.87
-3.48
-2.69
-3.35
-5.00
-7.02
-8.79
-9.49
-8.69
-6.54
-3.83
-1.71
-1.22
-2.81
-6.17
-10.22
-13.56
-15.12
-14.58
-12.47
-9.75
-7.36
-5.94
-5.78
-6.67
-8.13
-9.66
-10.69
-10.62
-8.78
-4.75
1.08
7.17
11.61
12.87
10.47
5.39
-0.28
-4.06
-4.13
-0.38
5.23
10.30
13.04
12.71
9.58
4.41
-1.59
-6.93
-10.05
-9.76
-4.39
7.52
26.23
49.38
71.10
84.40
84.90
75.41
58.39
36.36
12.04
-12.19
-33.04
-47.52
-53.47
-50.39
-39.93
-26.08
-13.15
-4.53
-1.81
-4.58
-10.94
-18.15
-23.57
-25.56
-24.13
-19.98
-14.11
-7.60
-1.48
3.31
6.32
7.67
7.90
7.48
6.93
6.74
7.16
7.98
8.52
8.08
6.20
2.96
-1.12
-5.13
-7.82
-8.17
-5.97
-2.16
1.57
3.35
1.70
-4.12
-13.96
-26.30
-38.54
-47.72
-51.48
-48.70
-39.74
-26.46
-10.25
5.75
18.47
26.77
31.65
34.74
36.84
37.69
36.52
33.09
28.18
22.87
18.25
14.72
11.68
8.17
3.72
-1.43
-6.40
-10.36
-12.29
-11.88
-9.87
-8.05
-8.05
-9.86
-12.54
-14.69
-15.32
-13.86
-10.23
-5.52
-1.37
0.75
0.36
-2.40
-6.88
-11.43
-13.83
-12.25
-6.21
2.13
10.12
15.89
17.38
12.57
0.94
-15.09
-30.31
-38.32
-34.99
-17.82
14.02
57.19
103.69
140.95
157.99
151.57
131.52
102.95
67.66
27.28
-18.00
-66.59
-114.91
-157.25
-187.32
-195.59
-178.35
-147.42
-111.74
-74.86
-41.56
-15.26
3.30
15.60
23.82
28.18
28.70
27.07
24.31
20.67
16.91
14.48
14.73
17.85
21.62
23.54
23.24
21.00
17.24
12.89
8.90
5.67
2.95
-0.46
-5.28
-10.62
-15.29
-18.52
-19.72
-18.65
-15.35
-10.22
-4.13
2.11
8.17
13.71
18.18
21.23
22.75
22.96
22.27
21.04
19.44
17.54
15.19
12.22
8.72
5.12
2.09
0.23
-0.12
1.06
3.56
6.93
10.56
13.65
15.37
15.09
12.70
8.84
4.81
2.20
2.27
5.31
10.48
16.10
20.21
21.32
18.83
13.18
5.69
-1.93
-8.16
-12.03
-13.24
-12.18
-9.78
-7.16
-5.26
-4.22
-3.54
-2.48
-0.54
2.28
5.50
8.51
11.01
12.52
13.19
13.50
13.74
13.58
12.47
10.24
7.41
5.23
4.22
4.37
5.03
5.20
4.12
1.78
-1.16
-3.90
-5.69
-6.30
-5.88
-5.13
-4.99
-6.30
-9.16
-12.96
-16.99
-20.56
-23.28
-24.84
-25.26
-24.67
-23.21
-20.62
-16.46
-11.02
-5.13
0.08
3.63
4.51
1.99
-3.96
-11.96
-19.38
-23.60
-22.29
-13.90
2.05
24.30
50.09
73.67
88.66
94.16
91.51
82.45
67.01
46.20
21.21
-6.57
-35.37
-62.60
-85.00
-99.97
-105.89
-102.61
-91.35
-74.73
-56.03
-38.13
-22.62
-9.77
0.47
8.19
13.39
16.22
16.70
15.08
12.03
8.80
6.80
6.70
8.30
10.68
12.73
13.55
12.74
10.66
8.21
6.39
5.53
5.22
4.58
2.73
-0.88
-6.31
-12.97
-19.82
-25.61
-29.29
-30.26
-28.34
-23.78
-17.16
-9.25
-0.88
7.21
14.51
20.65
25.42
28.47
29.64
29.23
27.88
26.24
24.61
22.96
21.54
19.91
17.71
14.80
11.30
7.58
4.17
1.67
0.60
1.14
2.93
5.34
7.72
9.62
10.78
11.16
10.79
9.74
8.11
6.06
3.86
1.80
0.10
-1.17
-1.97
-2.27
-2.00
-1.16
0.06
1.44
2.67
3.51
3.74
3.28
2.21
0.70
-1.13
-3.14
-5.19
-7.25
-9.39
-11.82
-14.66
-17.78
-20.93
-23.89
-26.52
-28.65
-30.15
-30.90
-30.85
-29.83
-27.64
-24.20
-19.85
-15.10
-10.37
-6.07
-2.65
-0.73
-0.65
-2.26
-4.86
-7.43
-8.68
-7.15
-1.89
8.01
21.42
35.43
47.25
55.75
60.35
59.79
53.48
41.60
25.34
6.72
-11.36
-25.77
-34.10
-35.57
-31.13
-23.02
-14.23
-7.46
-4.32
-4.69
-6.92
-8.76
-8.52
-5.60
-0.45
5.74
11.54
15.79
17.97
18.21
16.96
14.70
11.84
8.80
5.91
3.38
1.27
-0.40
-1.62
-2.45
-3.05
-3.74
-4.79
-6.32
-8.26
-10.27
-11.93
-12.93
-13.24
-13.12
-12.93
-12.87
-12.96
-13.09
-13.12
-13.05
-12.95
-12.85
-12.68
-12.28
-11.48
-10.22
-8.61
-6.78
-4.76
-2.41
0.40
3.53
6.54
8.85
9.99
9.76
8.40
6.45
4.41
2.48
0.57
-1.58
-3.99
-6.42
-8.51
-9.95
-10.56
-10.31
-9.25
-7.40
-4.66
-0.77
4.51
10.64
16.37
20.45
22.32
22.25
21.54
20.82
20.27
19.82
19.31
18.67
17.73
16.64
15.56
14.48
13.16
11.49
9.51
7.42
5.55
4.16
3.37
3.01
2.81
2.47
1.93
1.33
0.79
0.31
-0.18
-0.71
-1.36
-2.03
-2.61
-2.94
-2.88
-2.53
-2.17
-2.24
-2.99
-4.68
-7.39
-11.18
-15.96
-21.26
-25.99
-28.71
-28.35
-24.82
-19.59
-15.21
-14.42
-18.93
-28.68
-41.66
-54.61
-63.88
-66.37
-60.50
-46.44
-26.27
-3.65
17.06
31.86
38.23
35.87
27.50
16.60
7.56
4.23
8.86
21.41
39.69
60.27
78.58
91.53
97.25
95.20
85.72
70.01
50.26
29.42
10.60
-3.93
-13.29
-18.39
-21.01
-22.86
-24.80
-26.78
-28.37
-29.20
-29.31
-28.85
-28.09
-27.13
-26.00
-24.86
-23.51
-21.85
-19.69
-16.85
-13.28
-9.37
-5.80
-3.23
-2.02
-1.99
-2.56
-3.10
-3.23
-2.88
-2.31
-1.75
-1.22
-0.59
0.30
1.39
2.40
3.00
3.00
2.52
1.94
1.58
1.57
1.74
1.81
1.60
1.21
0.98
1.21
2.00
3.12
4.20
4.91
5.06
4.63
3.65
2.06
-0.23
-3.08
-6.03
-8.33
-9.19
-8.16
-5.41
-1.65
2.13
5.07
6.80
7.41
7.28
6.79
6.16
5.43
4.56
3.63
2.80
2.31
2.30
2.64
3.03
3.09
2.61
1.62
0.33
-0.98
-2.12
-2.99
-3.53
-3.62
-3.09
-1.82
0.10
2.38
4.61
6.42
7.67
8.51
9.18
9.85
10.47
10.70
10.21
8.83
6.75
4.50
2.70
1.77
1.66
1.86
1.57
0.16
-2.50
-5.97
-9.43
-12.03
-13.33
-13.37
-12.58
-11.40
-10.08
-8.60
-6.84
-4.82
-2.80
-1.11
0.14
1.28
2.92
5.51
8.81
11.74
12.81
10.83
5.63
-1.80
-9.72
-16.35
-20.54
-21.90
-20.69
-17.44
-12.76
-7.37
-2.07
2.32
5.22
6.45
6.28
5.21
3.73
2.18
0.76
-0.40
-1.20
-1.60
-1.77
-1.95
-2.33
-2.90
-3.34
-3.27
-2.50
-1.20
0.18
1.13
1.40
1.01
0.18
-0.90
-2.21
-3.78
-5.48
-6.86
-7.22
-5.89
-2.67
1.93
6.73
10.30
11.49
9.86
5.88
0.71
-4.15
-7.37
-8.10
-6.21
-2.22
2.90
8.02
12.07
14.29
14.37
12.46
9.09
4.99
0.92
-2.53
-4.96
-6.18
-6.14
-4.95
-2.86
-0.31
2.09
3.76
4.33
3.74
2.28
0.40
-1.46
-3.01
-4.13
-4.76
-4.83
-4.34
-3.43
-2.46
-1.96
-2.43
-4.15
-7.03
-10.71
-14.69
-18.50
-21.81
-24.34
-25.92
-26.37
-25.63
-23.80
-21.10
-17.88
-14.49
-11.21
-8.13
-5.19
-2.14
1.34
5.45
10.00
14.36
17.68
19.18
18.64
16.55
14.07
12.63
13.46
17.22
23.71
31.98
40.54
47.69
51.90
52.21
48.49
41.47
32.56
23.32
15.00
8.26
3.18
-0.57
-3.51
-6.10
-8.72
-11.53
-14.46
-17.25
-19.54
-20.98
-21.40
-20.90
-19.72
-18.15
-16.39
-14.48
-12.36
-9.98
-7.46
-5.01
-2.88
-1.26
-0.17
0.51
0.93
1.24
1.53
1.88
2.39
3.27
4.70
6.80
9.49
12.46
15.15
17.00
17.56
16.60
14.19
10.59
6.20
1.49
-2.92
-6.35
-8.11
-7.83
-5.62
-2.14
1.59
4.49
5.76
5.05
2.50
-1.35
-5.71
-9.77
-12.79
-14.41
-14.65
-13.93
-12.87
-11.95
-11.33
-10.82
-10.13
-9.09
-7.86
-6.74
-5.96
-5.50
-5.11
-4.47
-3.41
-2.03
-0.58
0.68
1.69
2.56
3.49
4.69
6.20
7.84
9.36
10.47
11.06
11.21
11.16
11.23
11.65
12.48
13.60
14.74
15.67
16.24
16.43
16.36
16.22
16.25
16.66
17.53
18.73
19.86
20.31
19.46
16.89
12.55
6.75
0.03
-6.97
-13.65
-19.42
-23.69
-25.98
-26.16
-24.64
-22.35
-20.54
-20.12
-21.21
-23.06
-24.38
-24.05
-21.71
-17.97
-13.98
-10.87
-9.19
-8.84
-9.41
-10.49
-11.89
-13.50
-15.14
-16.40
-16.82
-16.19
-14.72
-12.92
-11.19
-9.46
-7.20
-3.79
0.95
6.48
11.61
15.09
16.14
14.85
11.98
8.57
5.47
3.11
1.52
0.50
-0.11
-0.41
-0.46
-0.34
-0.24
-0.40
-0.99
-2.04
-3.29
-4.28
-4.51
-3.67
-1.82
0.54
2.67
3.85
3.78
2.67
1.14
-0.03
-0.23
0.84
3.10
6.24
9.78
13.19
15.97
17.71
18.11
17.11
14.85
11.65
7.88
3.93
0.17
-3.01
-5.25
-6.32
-6.23
-5.24
-3.79
-2.38
-1.33
-0.72
-0.37
-0.09
0.09
0.01
-0.48
-1.34
-2.26
-2.77
-2.49
-1.16
0.94
3.15
4.74
5.29
4.89
4.03
3.36
3.40
4.58
6.75
9.22
11.09
11.58
10.30
7.24
2.60
-3.89
-11.75
-20.10
-27.91
-34.66
-40.39
-45.36
-49.55
-52.35
-53.42
-50.89
-43.35
-30.67
-14.31
3.04
18.35
29.28
35.02
35.04
30.71
24.02
16.93
10.79
6.35
4.02
3.97
6.24
10.43
16.00
21.82
26.48
28.90
28.70
26.38
23.03
19.85
17.70
17.07
17.73
18.93
19.77
19.55
18.01
15.30
11.92
8.51
5.75
4.07
3.50
3.62
3.67
2.84
0.59
-3.05
-7.48
-11.61
-14.47
-15.57
-15.06
-13.58
-11.82
-10.20
-8.73
-7.19
-5.46
-3.70
-2.41
-2.10
-2.97
-4.69
-6.47
-7.40
-6.92
-5.12
-2.72
-0.74
0.08
-0.34
-1.38
-2.07
-1.68
-0.08
2.17
4.21
5.29
5.15
3.99
2.33
0.76
-0.28
-0.41
0.55
2.45
4.62
6.03
5.57
2.65
-2.40
-8.36
-13.57
-16.63
-17.05
-15.42
-13.12
-11.68
-12.05
-14.20
-17.16
-19.44
-19.71
-17.32
-12.58
-6.54
-0.52
4.47
8.04
10.48
12.33
13.96
15.37
16.26
16.32
15.51
14.20
12.94
12.18
12.01
12.12
11.98
11.19
9.68
7.73
5.73
3.96
2.46
1.08
-0.33
-1.72
-2.83
-3.36
-3.09
-2.03
-0.40
1.47
3.21
4.57
5.34
5.41
4.75
3.45
1.69
-0.28
-2.14
-3.64
-4.60
-4.96
-4.79
-4.29
-3.72
-3.33
-3.27
-3.56
-4.11
-4.81
-5.53
-6.22
-6.81
-7.24
-7.46
-7.49
-7.44
-7.48
-7.72
-8.15
-8.62
-8.91
-8.91
-8.63
-8.23
-7.88
-7.70
-7.67
-7.70
-7.69
-7.56
-7.25
-6.71
-5.87
-4.63
-2.92
-0.67
2.12
5.37
8.91
12.43
15.61
18.14
19.81
20.52
20.32
19.41
18.06
16.59
15.27
14.21
13.37
12.56
11.61
10.40
8.95
7.34
5.60
3.72
1.64
-0.63
-2.92
-4.99
-6.63
-7.75
-8.40
-8.73
-8.81
-8.61
-8.02
-7.00
-5.59
-4.04
-2.65
-1.68
-1.21
-1.22
-1.57
-2.13
-2.86
-3.76
-4.87
-6.18
-7.56
-8.79
-9.59
-9.68
-8.92
-7.37
-5.32
-3.26
-1.77
-1.38
-2.31
-4.32
-6.67
-8.25
-7.93
-4.97
0.68
8.28
16.56
24.04
29.50
32.18
31.87
28.71
23.14
15.80
7.68
-0.10
-6.43
-10.65
-12.77
-13.39
-13.35
-13.36
-13.69
-14.31
-15.01
-15.61
-15.98
-15.91
-15.04
-13.04
-9.83
-5.84
-1.90
0.97
2.02
1.12
-1.28
-4.29
-6.97
-8.58
-8.77
-7.59
-5.46
-2.98
-0.78
0.70
1.39
1.51
1.46
1.54
1.89
2.37
2.79
2.97
2.92
2.81
2.84
3.17
3.77
4.45
4.91
4.91
4.40
3.53
2.54
1.74
1.28
1.20
1.44
1.95
2.74
3.77
5.05
6.42
7.63
8.47
8.80
8.46
7.31
5.23
2.27
-1.17
-4.35
-6.40
-6.82
-5.80
-4.23
-3.21
-3.59
-5.53
-8.61
-12.17
-15.56
-18.25
-19.57
-18.65
-14.57
-6.90
3.77
15.56
25.84
32.19
33.30
29.39
22.13
13.85
6.56
1.40
-1.52
-2.87
-3.55
-4.17
-4.90
-5.53
-5.87
-5.97
-6.06
-6.42
-7.02
-7.46
-7.17
-5.74
-3.26
-0.41
1.88
2.81
2.14
0.23
-2.03
-3.67
-4.00
-2.86
-0.60
2.09
4.44
5.88
6.22
5.67
4.79
4.27
4.76
6.58
9.60
13.20
16.55
18.88
19.86
19.63
18.67
17.48
16.35
15.21
13.79
11.87
9.33
6.18
2.46
-1.81
-6.54
-11.50
-16.23
-20.12
-22.64
-23.59
-23.27
-22.44
-22.04
-22.77
-24.79
-27.48
-29.71
-30.33
-28.76
-25.27
-20.87
-16.80
-13.88
-12.19
-11.14
-9.94
-8.07
-5.52
-2.69
-0.16
1.54
2.05
1.13
-1.33
-5.18
-9.90
-14.48
-17.64
-18.22
-15.73
-10.56
-3.88
2.79
8.12
11.47
13.03
13.51
13.74
14.25
15.17
16.29
17.33
18.09
18.51
18.56
18.13
17.06
15.32
13.16
11.14
9.89
9.78
10.69
11.97
12.71
12.14
10.00
6.62
2.73
-0.87
-3.65
-5.52
-6.77
-7.91
-9.40
-11.42
-13.76
-15.85
-16.97
-16.57
-14.59
-11.53
-8.36
-6.08
-5.34
-6.11
-7.74
-9.20
-9.49
-7.97
-4.47
0.77
7.16
13.90
20.05
24.68
27.17
27.44
26.02
23.87
22.03
21.11
21.03
21.19
20.76
19.25
16.71
13.68
10.81
8.39
6.20
3.67
0.22
-4.28
-9.41
-14.29
-17.99
-19.96
-20.23
-19.38
-18.17
-17.06
-16.12
-15.05
-13.55
-11.59
-9.54
-7.95
-7.16
-7.16
-7.61
-8.07
-8.28
-8.22
-8.05
-7.96
-8.19
-8.95
-10.41
-12.51
-14.62
-15.57
-14.00
-8.95
-0.58
9.69
19.57
26.81
30.01
29.12
25.23
20.02
15.08
11.46
9.58
9.28
9.98
10.99
11.65
11.59
10.83
9.67
8.47
7.41
6.29
4.66
2.13
-1.26
-4.92
-7.84
-9.10
-8.40
-6.28
-4.03
-3.10
-4.52
-8.40
-13.92
-19.57
-23.62
-24.60
-21.70
-14.90
-4.96
6.71
18.44
28.66
36.21
40.58
41.92
40.81
38.01
34.14
29.54
24.25
18.16
11.27
3.84
-3.56
-10.17
-15.26
-18.39
-19.57
-19.14
-17.57
-15.25
-12.41
-9.29
-6.20
-3.63
-2.11
-1.86
-2.65
-3.84
-4.72
-4.96
-4.84
-5.11
-6.52
-9.34
-13.12
-16.90
-19.72
-21.12
-21.20
-20.48
-19.50
-18.48
-17.29
-15.54
-12.91
-9.34
-5.17
-1.05
2.23
4.03
4.13
2.86
1.08
-0.19
-0.15
1.43
4.19
7.30
9.86
11.18
10.98
9.33
6.67
3.54
0.44
-2.24
-4.34
-5.92
-7.19
-8.36
-9.51
-10.38
-10.65
-10.00
-8.41
-6.21
-4.18
-3.29
-4.34
-7.60
-12.51
-17.85
-21.97
-23.19
-20.20
-12.54
-0.74
13.82
28.29
40.48
48.56
51.54
49.42
43.05
33.82
23.32
12.98
3.88
-3.28
-8.33
-11.48
-13.06
-13.38
-12.59
-10.80
-8.23
-5.39
-2.84
-1.21
-0.86
-1.72
-3.40
-5.39
-7.21
-8.55
-9.17
-8.82
-7.32
-4.60
-0.93
3.07
6.55
8.64
8.77
6.88
3.53
-0.36
-3.74
-5.74
-5.91
-4.32
-1.48
1.84
4.87
7.05
8.15
8.26
7.66
6.68
5.60
4.64
3.91
3.51
3.45
3.64
3.91
4.07
3.98
3.63
3.07
2.36
1.56
0.66
-0.32
-1.29
-2.11
-2.65
-2.85
-2.79
-2.68
-2.71
-3.01
-3.58
-4.29
-5.01
-5.62
-6.12
-6.53
-6.88
-7.13
-7.14
-6.78
-5.99
-4.83
-3.52
-2.37
-1.62
-1.39
-1.61
-2.07
-2.52
-2.80
-2.82
-2.65
-2.41
-2.21
-2.07
-1.91
-1.55
-0.85
0.22
1.57
2.91
3.95
4.44
4.31
3.69
2.86
2.13
1.71
1.62
1.75
1.94
2.07
2.10
2.11
2.15
2.19
2.13
1.85
1.30
0.59
-0.07
-0.45
-0.44
-0.14
0.18
0.18
-0.45
-1.77
-3.60
-5.51
-6.98
-7.51
-6.82
-4.94
-2.23
0.74
3.34
5.08
5.72
5.34
4.22
2.80
1.48
0.56
0.23
0.46
1.10
1.86
2.40
2.49
2.06
1.30
0.59
0.31
0.63
1.43
2.31
2.80
2.64
1.88
0.92
0.27
0.37
1.38
3.11
5.17
7.08
8.48
9.29
9.64
9.76
9.79
9.59
8.74
6.77
3.40
-1.16
-6.21
-10.86
-14.40
-16.53
-17.43
-17.45
-16.91
-15.84
-14.13
-11.75
-8.94
-6.23
-4.22
-3.33
-3.50
-4.31
-5.15
-5.48
-5.09
-4.06
-2.70
-1.35
-0.29
0.37
0.62
0.50
0.11
-0.44
-1.00
-1.39
-1.47
-1.23
-0.75
-0.25
0.09
0.19
0.07
-0.11
-0.17
0.02
0.53
1.39
2.55
3.90
5.34
6.72
7.87
8.64
8.89
8.58
7.69
6.32
4.71
3.27
2.48
2.72
3.98
5.86
7.59
8.37
7.69
5.53
2.35
-1.11
-4.07
-5.96
-6.53
-5.84
-4.20
-2.10
-0.09
1.37
1.98
1.70
0.71
-0.74
-2.39
-4.04
-5.54
-6.70
-7.32
-7.20
-6.30
-4.73
-2.77
-0.72
1.26
3.10
4.84
6.42
7.69
8.40
8.40
7.76
6.76
5.81
5.19
4.90
4.73
4.37
3.60
2.42
0.98
-0.56
-2.12
-3.74
-5.44
-7.12
-8.47
-9.08
-8.57
-6.86
-4.30
-1.63
0.26
0.76
-0.26
-2.30
-4.53
-6.11
-6.61
-6.18
-5.40
-4.92
-5.10
-5.85
-6.73
-7.15
-6.66
-5.14
-2.77
0.02
2.62
4.41
4.83
3.62
0.95
-2.53
-5.82
-7.85
-7.93
-5.98
-2.65
0.90
3.45
4.17
2.90
0.23
-2.70
-4.69
-4.88
-3.11
-0.01
3.28
5.51
5.84
4.13
1.06
-2.14
-4.06
-3.67
-0.64
4.54
10.72
16.50
20.57
22.06
20.66
16.70
11.01
4.71
-0.93
-4.83
-6.42
-5.80
-3.74
-1.46
-0.09
-0.21
-1.69
-3.58
-4.66
-3.93
-1.11
3.26
8.06
12.26
15.27
17.16
18.42
19.55
20.55
20.71
18.93
14.27
6.83
-2.13
-10.59
-16.56
-18.77
-17.19
-12.85
-7.23
-1.60
3.82
9.63
16.00
22.47
28.11
31.83
32.70
31.31
27.31
20.60
11.58
1.07
-10.07
-20.21
-27.75
-31.56
-31.40
-28.10
-23.15
-18.48
-15.66
-16.18
-20.28
-26.51
-32.10
-34.30
-31.71
-24.62
-14.87
-4.93
3.16
8.57
11.50
12.49
11.75
9.11
4.63
-1.09
-6.96
-11.96
-15.61
-18.47
-21.15
-23.76
-25.54
-25.03
-21.17
-14.22
-5.98
1.18
5.52
6.88
6.57
6.53
8.05
10.95
13.64
14.17
11.38
5.50
-1.99
-9.13
-14.43
-16.82
-16.06
-12.69
-7.69
-2.05
3.54
8.69
13.16
16.71
19.07
19.93
19.15
16.91
13.79
10.55
7.96
6.45
6.06
6.56
7.63
9.11
10.96
13.14
15.32
16.80
16.75
14.66
10.70
5.76
1.14
-2.07
-3.53
-3.76
-3.74
-4.36
-5.91
-7.88
-9.30
-9.19
-6.96
-2.66
3.16
9.62
15.60
19.96
21.59
19.71
14.15
5.69
-3.89
-12.27
-17.28
-17.66
-13.54
-6.30
1.88
8.84
13.01
13.76
11.26
6.32
0.11
-5.99
-10.60
-12.61
-11.48
-7.50
-1.84
3.91
8.27
10.45
10.48
8.98
6.72
4.21
1.65
-0.94
-3.40
-5.35
-6.26
-5.81
-4.05
-1.47
1.23
3.44
4.86
5.64
6.13
6.71
7.49
8.25
8.53
7.90
6.20
3.65
0.82
-1.68
-3.41
-4.32
-4.70
-5.01
-5.61
-6.67
-8.05
-9.50
-10.79
-11.77
-12.45
-12.88
-13.06
-12.90
-12.27
-11.03
-9.13
-6.65
-3.74
-0.68
2.18
4.34
5.17
4.04
0.66
-4.60
-10.56
-15.41
-17.33
-15.18
-9.05
-0.32
8.83
16.27
20.62
21.62
20.01
17.05
14.02
11.78
10.65
10.43
10.61
10.58
9.83
8.12
5.51
2.30
-1.18
-4.70
-8.15
-11.40
-14.15
-15.90
-16.07
-14.35
-10.93
-6.58
-2.34
0.87
2.65
3.12
2.83
2.37
2.09
2.17
2.65
3.56
4.87
6.31
7.34
7.31
5.80
2.93
-0.50
-3.32
-4.53
-3.67
-1.04
2.53
6.03
8.60
9.72
9.24
7.36
4.61
1.76
-0.31
-0.95
0.04
2.27
4.91
7.04
8.08
7.98
7.19
6.41
6.25
7.06
8.85
11.39
14.34
17.35
20.19
22.76
24.94
26.60
27.54
27.53
26.40
24.20
21.29
18.28
15.85
14.53
14.50
15.38
16.24
15.69
12.33
5.22
-5.56
-18.59
-31.41
-41.44
-46.87
-47.30
-43.61
-37.38
-30.13
-22.95
-16.43
-11.10
-7.67
-6.94
-9.33
-14.53
-21.31
-28.03
-33.16
-35.85
-36.07
-34.36
-31.47
-28.19
-25.19
-23.02
-22.02
-22.13
-22.89
-23.48
-22.98
-20.78
-16.91
-12.07
-7.29
-3.50
-1.17
-0.15
0.09
0.14
0.38
0.84
1.28
1.27
0.46
-1.17
-3.17
-4.60
-4.35
-1.52
4.12
12.01
20.85
28.97
34.67
36.76
34.71
28.87
20.42
11.06
2.63
-3.43
-6.44
-6.57
-4.58
-1.47
1.89
4.76
6.55
6.81
5.31
2.28
-1.55
-5.09
-7.33
-7.75
-6.48
-4.27
-2.09
-0.78
-0.83
-2.28
-4.85
-8.07
-11.38
-14.25
-16.32
-17.42
-17.63
-17.15
-16.23
-15.05
-13.64
-12.01
-10.21
-8.43
-6.93
-5.98
-5.69
-5.95
-6.45
-6.76
-6.50
-5.47
-3.78
-1.77
0.02
1.14
1.35
0.81
-0.03
-0.60
-0.49
0.32
1.44
2.28
2.39
1.68
0.44
-0.88
-2.01
-2.96
-4.11
-5.75
-7.81
-9.80
-11.15
-11.56
-11.25
-10.58
-9.52
-7.30
-2.62
5.50
16.78
29.30
40.00
46.03
46.08
40.99
33.24
25.67
20.15
17.05
15.49
14.31
12.91
11.51
10.77
11.12
12.38
13.63
13.70
11.85
8.14
3.42
-1.02
-4.00
-4.90
-3.84
-1.54
1.03
3.01
3.93
3.74
2.73
1.32
-0.15
-1.48
-2.60
-3.56
-4.48
-5.56
-6.99
-8.93
-11.30
-13.80
-15.98
-17.40
-17.91
-17.75
-17.42
-17.38
-17.81
-18.39
-18.53
-17.57
-15.14
-11.34
-6.71
-2.10
1.70
4.25
5.56
6.09
6.48
7.25
8.55
10.17
11.67
12.69
13.19
13.41
13.72
14.36
15.30
16.26
16.88
16.94
16.39
15.37
14.09
12.71
11.37
10.15
9.15
8.48
8.25
8.52
9.21
10.14
11.03
11.62
11.76
11.47
10.96
10.46
10.13
9.95
9.71
9.18
8.31
7.26
6.36
5.93
6.03
6.38
6.49
5.81
3.91
0.60
-4.05
-9.60
-15.22
-19.72
-21.71
-20.10
-14.63
-6.26
2.99
10.60
14.40
13.41
8.11
0.17
-8.29
-15.45
-20.26
-22.51
-22.53
-20.87
-18.05
-14.52
-10.72
-7.07
-4.05
-1.92
-0.74
-0.25
-0.07
0.17
0.65
1.30
1.88
2.19
2.16
1.93
1.77
1.96
2.70
3.96
5.50
6.90
7.75
7.82
7.08
5.73
4.05
2.22
0.22
-2.09
-4.76
-7.55
-9.96
-11.35
-11.33
-9.97
-7.80
-5.55
-3.79
-2.67
-1.95
-1.21
-0.17
1.15
2.42
3.24
3.38
2.93
2.26
1.81
1.90
2.60
3.76
5.03
6.05
6.54
6.36
5.51
4.11
2.32
0.36
-1.59
-3.38
-5.00
-6.61
-8.49
-10.87
-13.90
-17.46
-21.17
-24.51
-26.93
-28.00
-27.48
-25.46
-22.26
-18.49
-14.84
-11.98
-10.32
-9.84
-10.08
-10.26
-9.56
-7.41
-3.71
1.10
6.28
10.93
14.33
16.13
16.42
15.65
14.43
13.27
12.43
11.94
11.64
11.44
11.27
11.17
11.19
11.35
11.64
12.16
13.07
14.38
15.72
16.34
15.42
12.50
8.03
3.29
-0.09
-0.88
1.04
4.73
8.66
11.52
12.77
12.72
12.11
11.52
11.16
10.79
10.08
8.89
7.40
6.00
5.17
5.34
6.74
9.42
13.25
17.98
23.19
28.27
32.35
34.45
33.63
29.32
21.60
11.15
-0.91
-13.41
-25.39
-36.01
-44.53
-50.22
-52.51
-51.36
-47.51
-42.34
-37.34
-33.59
-31.30
-29.91
-28.52
-26.46
-23.62
-20.45
-17.60
-15.62
-14.74
-14.85
-15.68
-16.99
-18.62
-20.45
-22.26
-23.54
-23.59
-21.77
-17.85
-12.34
-6.43
-1.56
1.15
1.42
-0.16
-2.46
-4.31
-4.96
-4.21
-2.27
0.55
4.04
8.05
12.38
16.62
20.18
22.36
22.72
21.29
18.66
15.83
13.83
13.28
14.09
15.51
16.62
16.88
16.52
16.38
17.33
19.59
22.39
24.38
24.26
21.54
16.86
11.54
6.90
3.57
1.36
-0.29
-1.77
-3.01
-3.44
-2.53
-0.14
3.15
6.32
8.26
8.40
6.87
4.29
1.52
-0.84
-2.57
-3.68
-4.28
-4.28
-3.23
-0.60
3.57
8.73
13.64
17.16
18.71
18.59
17.77
17.65
19.47
23.18
27.79
31.31
32.04
29.22
23.21
13.67
1.19
-12.63
-26.61
-40.22
-54.13
-69.00
-85.03
-101.73
-117.56
-129.17
-131.23
-121.42
-96.61
-57.65
-9.48
40.28
83.88
115.99
130.87
129.01
115.22
95.57
74.27
53.75
35.29
19.60
6.98
-2.77
-9.62
-13.97
-15.99
-16.33
-15.18
-12.74
-9.54
-6.48
-4.44
-3.51
-3.54
-4.20
-5.53
-7.66
-10.75
-14.73
-19.03
-22.50
-23.57
-21.13
-15.31
-7.57
0.14
6.16
9.74
11.08
10.99
10.44
9.93
9.51
9.11
8.99
9.65
11.51
14.60
18.36
22.09
25.21
27.42
28.70
29.11
28.46
26.39
22.57
17.07
10.41
3.56
-2.49
-6.96
-9.48
-10.08
-9.20
-7.45
-5.52
-4.05
-3.53
-4.20
-5.97
-8.45
-11.04
-13.24
-14.75
-15.48
-15.61
-15.40
-15.20
-15.26
-15.73
-16.52
-17.44
-18.19
-18.35
-17.60
-16.00
-14.22
-13.37
-14.58
-17.19
-19.96
-21.26
-19.96
-16.03
-10.50
-4.78
-0.11
2.80
3.90
3.44
1.92
0.27
-0.32
1.13
4.85
10.03
15.06
18.06
18.03
14.70
8.88
2.06
-4.25
-9.10
-12.06
-13.06
-12.15
-9.64
-6.29
-2.59
1.28
5.01
7.91
9.07
7.62
3.53
-2.62
-9.88
-16.57
-20.60
-20.91
-17.93
-13.11
-8.01
-3.90
-2.16
-5.07
-14.26
-29.64
-48.81
-67.03
-77.92
-75.29
-55.63
-17.22
32.10
79.06
114.10
135.52
145.75
145.87
133.92
107.46
67.26
19.05
-26.39
-57.45
-68.40
-60.55
-40.32
-16.68
2.70
13.45
14.64
8.57
-0.98
-10.84
-19.31
-25.96
-30.96
-33.68
-33.69
-31.48
-28.16
-25.12
-23.85
-25.27
-29.22
-34.47
-39.02
-41.10
-39.84
-35.29
-28.25
-19.99
-11.81
-4.78
0.41
3.56
4.78
4.47
3.23
1.68
0.19
-1.23
-2.83
-4.85
-7.18
-9.25
-10.11
-8.63
-3.88
4.57
16.30
29.94
43.18
53.20
57.42
54.41
44.60
30.32
15.10
2.43
-5.35
-7.53
-4.81
1.30
9.20
17.56
25.33
31.54
35.13
35.19
31.35
24.24
15.56
7.61
2.53
1.59
4.73
10.68
17.48
23.30
27.17
29.10
29.67
29.57
29.26
28.86
28.23
27.06
24.99
21.96
18.11
13.87
9.93
7.05
5.80
6.12
7.13
6.52
2.62
-4.66
-13.62
-21.91
-27.96
-31.44
-32.84
-32.90
-32.09
-30.40
-27.75
-24.41
-21.17
-19.06
-18.85
-20.46
-22.84
-24.77
-24.76
-22.19
-17.71
-12.88
-9.37
-8.04
-8.44
-9.12
-8.53
-6.00
-2.27
0.95
1.76
-0.86
-6.64
-13.96
-20.74
-24.54
-24.35
-20.64
-14.90
-8.84
-3.65
0.11
2.72
4.83
6.66
7.62
6.82
3.80
-1.07
-6.72
-12.07
-15.98
-17.51
-16.66
-14.60
-12.89
-12.53
-13.72
-16.46
-21.56
-29.79
-41.07
-53.95
-65.24
-70.11
-63.39
-41.70
-3.52
43.75
87.45
118.15
134.02
137.78
131.83
116.56
91.99
60.02
25.22
-5.43
-25.63
-34.09
-33.32
-28.18
-23.51
-21.85
-23.09
-25.89
-28.25
-28.57
-26.54
-22.99
-18.96
-15.73
-13.94
-13.45
-13.68
-13.55
-12.00
-8.68
-4.19
0.17
3.20
4.43
4.14
2.84
1.13
-0.47
-1.68
-2.40
-2.69
-2.76
-2.82
-3.09
-3.73
-4.66
-5.58
-6.14
-6.09
-5.43
-4.41
-3.37
-2.74
-3.07
-4.91
-8.59
-13.84
-19.63
-24.28
-26.06
-23.85
-17.65
-8.81
0.44
7.89
12.25
13.73
13.86
14.56
17.11
21.43
26.14
29.35
29.75
27.28
23.15
19.13
16.65
16.18
17.14
18.37
18.80
17.97
16.08
13.54
10.49
6.51
1.02
-6.09
-13.98
-20.76
-24.11
-22.30
-15.06
-4.01
7.84
17.54
23.29
24.97
23.81
21.63
19.89
19.43
20.23
21.68
23.33
25.05
26.82
28.56
29.94
30.47
29.87
28.05
25.13
21.78
18.83
16.66
15.05
13.29
9.70
3.95
-2.00
-7.01
-10.44
-11.82
-11.42
-9.81
-7.80
-6.26
-5.52
-5.40
-5.50
-5.05
-3.46
-0.47
3.25
7.73
13.10
19.18
25.55
30.28
32.00
30.67
27.58
24.75
23.29
24.21
27.87
33.74
40.89
48.60
56.04
62.09
65.32
64.42
58.55
48.60
35.91
22.61
11.15
3.19
-1.32
-4.29
-8.71
-17.56
-32.62
-54.10
-79.89
-106.34
-130.15
-149.75
-165.48
-178.81
-191.04
-202.42
-212.48
-219.19
-220.01
-213.52
-200.41
-182.99
-163.90
-144.93
-126.67
-109.52
-92.86
-75.84
-58.27
-40.78
-23.66
-5.85
14.99
45.08
82.58
119.36
147.42
163.64
169.26
167.15
159.92
148.93
134.71
117.02
97.48
79.49
66.46
59.86
58.46
59.05
58.15
53.86
45.86
36.38
28.68
24.97
25.19
27.01
27.59
24.98
19.07
10.88
2.48
-3.85
-6.74
-6.20
-3.30
0.48
3.69
5.29
4.03
-1.14
-10.50
-23.21
-36.77
-47.20
-51.34
-49.65
-43.19
-34.07
-24.57
-16.19
-9.37
-3.87
0.73
4.48
7.27
9.48
11.88
15.63
21.17
28.39
36.22
42.84
46.13
44.73
38.87
30.08
20.60
12.62
7.86
6.02
6.16
7.13
8.00
8.54
8.86
9.11
9.15
8.66
7.03
4.18
0.40
-3.59
-6.90
-8.82
-9.05
-7.85
-5.78
-3.77
-2.77
-3.68
-6.57
-10.91
-15.36
-18.35
-19.06
-17.83
-16.06
-15.19
-16.03
-18.44
-21.54
-24.29
-25.92
-26.25
-25.35
-23.51
-21.14
-18.91
-17.77
-18.47
-21.08
-24.78
-28.52
-30.35
-28.97
-23.85
-15.15
-3.35
10.81
26.15
40.81
52.39
58.70
58.53
52.39
42.29
30.88
20.65
13.23
9.23
8.54
10.74
15.08
20.59
26.03
29.79
30.48
27.68
22.19
15.62
9.48
4.50
0.48
-3.29
-7.42
-11.86
-15.79
-18.04
-17.73
-14.87
-10.85
-8.26
-10.23
-19.05
-35.05
-56.03
-77.75
-95.34
-105.08
-105.43
-97.24
-83.18
-66.30
-49.17
-33.47
-20.25
-10.53
-5.42
-5.55
-10.32
-17.82
-24.51
-26.45
-20.49
-5.44
17.14
43.18
67.46
85.34
93.33
90.46
77.67
57.62
34.47
13.50
0.31
-0.38
14.20
43.36
81.81
118.76
142.00
145.17
130.44
104.81
75.21
49.52
26.28
3.26
-21.11
-47.05
-73.26
-97.27
-114.86
-122.33
-117.22
-99.38
-69.88
-31.94
10.41
47.84
70.47
73.99
61.50
40.35
17.38
-2.40
-16.95
-27.24
-33.83
-36.11
-33.18
-25.18
-13.68
-1.50
8.81
15.18
16.81
14.51
10.78
8.52
9.30
12.66
16.48
18.48
17.14
12.45
6.04
0.77
-0.56
3.21
11.03
20.02
26.48
26.95
19.29
3.22
-18.39
-40.01
-56.13
-63.72
-62.80
-55.33
-44.06
-31.84
-21.33
-14.54
-12.35
-14.25
-18.20
-21.22
-20.54
-14.88
-4.89
7.36
19.41
29.41
36.39
39.58
38.52
33.10
23.83
12.22
0.90
-6.79
-8.11
-2.38
8.40
20.22
28.59
30.67
26.57
19.41
13.94
14.39
22.65
37.70
55.81
71.73
80.10
76.71
59.31
28.16
-13.91
-61.78
-108.90
-148.78
-176.88
-191.82
-195.29
-190.62
-180.67
-166.49
-147.61
-123.54
-95.56
-67.31
-43.68
-28.61
-23.06
-24.35
-27.61
-28.29
-24.10
-15.43
-4.53
5.96
14.44
21.10
27.85
37.12
50.37
67.16
85.35
102.00
114.56
121.95
125.14
127.10
130.89
137.73
146.22
153.09
154.69
148.14
132.06
107.04
76.34
44.74
17.38
-1.03
-6.63
2.89
27.41
60.43
90.86
108.45
109.93
99.05
81.55
61.27
39.32
15.22
-9.86
-36.53
-62.43
-83.96
-98.67
-106.35
-108.48
-107.15
-104.25
-99.04
-91.54
-81.65
-70.24
-59.44
-51.81
-48.90
-50.48
-54.84
-59.67
-63.36
-64.50
-62.61
-58.34
-53.15
-48.63
-45.96
-45.56
-46.93
-49.08
-50.22
-48.68
-43.61
-35.09
-23.93
-11.26
1.66
13.61
23.35
30.18
34.01
35.32
35.02
34.03
32.94
31.84
30.49
28.62
26.51
25.02
25.22
27.85
32.81
39.05
44.92
48.86
50.04
48.63
45.57
41.94
38.40
34.85
30.55
24.67
16.80
7.45
-1.90
-9.16
-12.33
-10.39
-3.83
5.38
14.40
20.51
22.09
19.08
12.87
5.55
-0.93
-5.44
-7.81
-8.56
-8.41
-7.91
-7.29
-6.60
-5.89
-5.38
-5.36
-5.97
-7.12
-8.46
-9.52
-9.98
-9.79
-9.17
-8.45
-7.97
-7.94
-8.43
-9.35
-10.43
-11.21
-11.25
-10.30
-8.46
-6.23
-4.25
-3.05
-2.80
-3.27
-3.99
-4.52
-4.61
-4.31
-3.88
-3.59
-3.61
-3.94
-4.42
-4.82
-4.91
-4.52
-3.66
-2.44
-1.11
0.14
1.20
2.16
3.18
4.47
6.13
8.02
9.80
11.07
11.49
11.00
9.78
8.16
6.49
4.95
3.57
2.25
0.84
-0.72
-2.34
-3.73
-4.42
-3.98
-2.18
0.84
4.58
8.33
11.41
13.49
14.63
15.14
15.35
15.39
15.14
14.32
12.71
10.26
7.12
3.52
-0.26
-3.96
-7.27
-9.88
-11.53
-12.12
-11.75
-10.67
-9.16
-7.50
-5.84
-4.32
-3.04
-2.17
-1.80
-1.88
-2.15
-2.24
-1.88
-1.00
0.19
1.34
2.18
2.56
2.51
2.11
1.46
0.62
-0.37
-1.41
-2.40
-3.21
-3.74
-3.98
-3.92
-3.55
-2.91
-2.12
-1.32
-0.74
-0.50
-0.55
-0.76
-0.97
-1.10
-1.19
-1.34
-1.59
-1.92
-2.28
-2.67
-3.16
-3.88
-4.86
-5.97
-6.93
-7.44
-7.35
-6.72
-5.75
-4.68
-3.61
-2.51
-1.27
0.12
1.55
2.77
3.56
3.83
3.68
3.32
3.00
2.84
2.86
2.96
3.04
3.05
2.97
2.87
2.83
2.90
3.16
3.63
4.33
5.17
5.96
6.47
6.48
5.93
4.97
3.87
2.96
2.42
2.24
2.19
1.98
1.38
0.41
-0.71
-1.61
-2.01
-1.88
-1.46
-1.20
-1.51
-2.61
-4.37
-6.55
-8.89
-11.11
-12.83
-13.46
-12.45
-9.56
-5.27
-0.79
2.48
3.63
2.79
1.12
0.16
0.95
3.49
6.83
9.65
11.04
10.83
9.54
7.91
6.46
5.41
4.71
4.31
4.10
4.00
3.81
3.22
1.85
-0.49
-3.67
-7.28
-10.71
-13.37
-14.86
-15.12
-14.32
-12.78
-10.87
-8.95
-7.37
-6.46
-6.40
-7.17
-8.47
-9.81
-10.66
-10.65
-9.71
-8.08
-6.20
-4.53
-3.38
-2.85
-2.82
-3.03
-3.18
-3.00
-2.42
-1.52
-0.55
0.23
0.69
0.87
0.97
1.18
1.58
2.07
2.46
2.66
2.66
2.62
2.67
2.80
2.91
2.83
2.54
2.18
1.99
2.10
2.42
2.65
2.33
1.08
-1.15
-4.02
-6.75
-8.32
-7.86
-4.98
-0.14
5.46
10.28
13.02
13.24
11.46
8.90
6.82
6.00
6.51
7.92
9.64
11.31
12.79
13.94
14.50
14.03
12.13
8.80
4.51
0.21
-3.11
-4.76
-4.66
-3.33
-1.68
-0.65
-0.84
-2.35
-4.76
-7.33
-9.27
-9.95
-9.13
-6.97
-4.00
-0.87
1.78
3.50
4.06
3.45
1.85
-0.40
-2.83
-4.92
-6.22
-6.50
-5.79
-4.38
-2.68
-0.99
0.53
1.86
3.01
3.93
4.53
4.75
4.65
4.42
4.27
4.29
4.42
4.46
4.21
3.55
2.56
1.39
0.24
-0.71
-1.38
-1.70
-1.71
-1.44
-0.98
-0.46
0.02
0.34
0.42
0.27
-0.01
-0.30
-0.49
-0.57
-0.64
-0.89
-1.51
-2.63
-4.23
-6.16
-8.17
-9.93
-11.14
-11.58
-11.16
-9.94
-8.10
-5.92
-3.70
-1.70
-0.04
1.21
2.07
2.60
2.88
2.94
2.83
2.55
2.09
1.50
0.87
0.32
-0.04
-0.13
0.07
0.53
1.22
2.11
3.11
4.15
5.10
5.87
6.40
6.65
6.63
6.27
5.51
4.28
2.62
0.68
-1.26
-2.95
-4.17
-4.87
-5.15
-5.19
-5.19
-5.30
-5.56
-5.94
-6.35
-6.67
-6.81
-6.72
-6.31
-5.53
-4.31
-2.71
-0.89
0.89
2.34
3.31
3.84
4.10
4.35
4.69
5.11
5.42
5.45
5.14
4.60
4.02
3.60
3.43
3.46
3.55
3.53
3.27
2.76
2.06
1.26
0.49
-0.17
-0.66
-0.92
-0.96
-0.79
-0.49
-0.16
0.10
0.22
0.22
0.09
-0.15
-0.52
-1.04
-1.74
-2.60
-3.53
-4.39
-4.99
-5.19
-4.87
-4.04
-2.81
-1.38
0.01
1.20
2.08
2.66
2.98
3.11
3.08
2.96
2.87
2.95
3.28
3.85
4.48
4.95
5.06
4.74
4.05
3.16
2.25
1.51
1.11
1.20
1.83
2.87
3.91
4.40
3.85
2.10
-0.50
-3.18
-5.11
-5.72
-4.97
-3.30
-1.42
0.04
0.74
0.71
0.20
-0.48
-1.08
-1.46
-1.62
-1.63
-1.60
-1.64
-1.83
-2.20
-2.66
-3.08
-3.28
-3.16
-2.75
-2.20
-1.81
-1.89
-2.64
-4.04
-5.79
-7.44
-8.45
-8.45
-7.33
-5.22
-2.47
0.52
3.36
5.74
7.40
8.18
8.03
6.97
5.25
3.22
1.34
0.03
-0.43
-0.02
1.02
2.22
3.08
3.29
2.84
2.05
1.42
1.37
1.99
3.02
4.00
4.51
4.52
4.38
4.67
5.90
8.17
11.07
13.83
15.63
15.97
14.77
12.37
9.29
6.08
3.26
1.45
1.36
3.62
8.46
15.32
22.78
28.94
32.08
31.33
26.98
20.26
12.79
5.94
0.50
-3.36
-5.79
-7.11
-7.66
-7.74
-7.67
-7.69
-7.86
-8.11
-8.29
-8.33
-8.31
-8.37
-8.67
-9.27
-10.12
-11.13
-12.16
-13.11
-13.83
-14.18
-13.98
-13.18
-11.92
-10.54
-9.45
-9.03
-9.40
-10.41
-11.70
-12.88
-13.70
-14.06
-14.01
-13.58
-12.71
-11.27
-9.17
-6.53
-3.72
-1.29
0.23
0.55
-0.27
-1.87
-3.80
-5.71
-7.44
-9.05
-10.63
-12.10
-13.11
-13.17
-11.81
-8.87
-4.64
0.16
4.65
8.09
10.07
10.60
9.93
8.45
6.42
4.03
1.42
-1.20
-3.54
-5.18
-5.77
-5.05
-2.98
0.28
4.39
8.91
13.28
16.89
19.12
19.44
17.50
13.24
6.96
-0.69
-8.79
-16.32
-22.24
-25.72
-26.25
-23.77
-18.68
-11.79
-4.23
2.65
7.58
9.55
8.11
3.56
-3.16
-10.60
-17.21
-21.68
-23.27
-21.93
-18.22
-13.13
-7.81
-3.19
0.25
2.63
4.52
6.55
8.95
11.36
12.95
12.87
10.82
7.31
3.51
0.76
0.12
2.05
6.42
12.74
20.33
28.38
35.88
41.73
44.97
44.91
41.28
34.19
24.13
11.90
-1.30
-14.07
-24.75
-31.86
-34.57
-33.04
-28.37
-22.07
-15.47
-9.56
-5.23
-3.06
-3.54
-6.92
-13.01
-20.97
-29.22
-35.90
-39.43
-39.45
-36.28
-30.91
-24.57
-18.40
-13.40
-10.02
-8.28
-8.08
-9.88
-13.78
-19.35
-25.43
-30.34
-32.47
-30.59
-24.22
-11.61
6.05
25.43
42.76
55.60
63.80
67.51
66.58
61.34
52.94
41.82
29.86
19.06
10.77
5.24
1.99
0.56
0.97
3.47
7.93
13.93
20.44
25.84
28.31
26.36
19.59
9.06
-3.03
-14.09
-21.71
-24.56
-22.70
-17.56
-11.28
-5.78
-2.13
-0.46
-0.41
-1.42
-3.28
-6.03
-9.76
-14.24
-18.70
-22.02
-23.23
-21.99
-18.65
-14.12
-9.39
-5.18
-1.75
0.97
3.15
4.88
6.09
6.65
6.48
5.59
4.10
2.18
0.12
-1.78
-3.13
-3.52
-2.70
-0.61
2.54
6.29
10.09
13.42
15.91
17.39
17.78
17.11
15.41
12.87
9.82
6.82
4.60
3.87
4.99
7.78
11.50
15.09
17.50
18.15
17.11
15.03
12.85
11.40
11.06
11.67
12.67
13.32
12.95
11.10
7.57
2.46
-3.81
-10.50
-16.61
-21.15
-23.36
-23.09
-20.89
-17.82
-15.04
-13.29
-12.60
-12.41
-11.95
-10.75
-8.87
-6.84
-5.34
-4.69
-4.62
-4.40
-3.15
-0.37
3.75
8.30
11.93
13.34
11.79
7.43
1.32
-4.91
-9.70
-12.08
-11.96
-10.06
-7.42
-4.96
-3.17
-2.17
-1.97
-2.69
-4.50
-7.50
-11.36
-15.32
-18.36
-19.69
-19.09
-16.96
-14.17
-11.58
-9.70
-8.48
-7.57
-6.49
-4.98
-3.13
-1.28
0.06
0.49
-0.24
-2.12
-4.82
-7.75
-10.18
-11.35
-10.75
-8.25
-4.26
0.40
4.72
7.79
9.15
8.96
7.83
6.62
5.98
6.12
6.78
7.45
7.71
7.47
7.00
6.73
6.96
7.72
8.74
9.65
10.24
10.49
10.57
10.62
10.70
10.70
10.44
9.81
8.82
7.60
6.34
5.24
4.46
4.10
4.24
4.88
5.93
7.09
7.99
8.34
8.04
7.33
6.66
6.41
6.66
7.03
6.91
5.77
3.48
0.34
-3.09
-6.42
-9.57
-12.65
-15.62
-18.02
-19.04
-17.90
-14.37
-9.01
-3.00
2.40
6.47
9.16
10.98
12.40
13.49
13.73
12.40
9.08
4.06
-1.64
-6.63
-9.83
-10.86
-10.18
-8.81
-7.78
-7.70
-8.58
-9.88
-10.97
-11.31
-10.69
-9.15
-6.87
-4.06
-0.95
2.14
4.85
6.82
7.83
7.90
7.26
6.29
5.36
4.75
4.58
4.88
5.55
6.40
7.21
7.78
7.99
7.84
7.52
7.24
7.15
7.22
7.21
6.79
5.75
4.11
2.18
0.42
-0.68
-0.83
0.06
1.83
4.12
6.47
8.32
9.17
8.75
7.11
4.67
2.15
0.30
-0.41
0.05
1.25
2.53
3.30
3.27
2.56
1.61
0.92
0.82
1.38
2.37
3.43
4.18
4.38
3.94
2.94
1.51
-0.16
-1.88
-3.43
-4.59
-5.14
-4.95
-4.08
-2.71
-1.20
0.07
0.81
0.88
0.32
-0.73
-2.02
-3.37
-4.63
-5.74
-6.65
-7.36
-7.85
-8.09
-8.08
-7.82
-7.33
-6.67
-5.88
-5.00
-4.13
-3.38
-2.88
-2.75
-3.10
-3.89
-4.97
-6.12
-7.08
-7.64
-7.67
-7.19
-6.27
-5.02
-3.52
-1.86
-0.11
1.53
2.81
3.40
3.09
1.91
0.21
-1.44
-2.52
-2.81
-2.52
-2.21
-2.44
-3.50
-5.25
-7.24
-9.05
-10.52
-11.77
-13.05
-14.41
-15.62
-16.14
-15.47
-13.37
-10.00
-5.84
-1.49
2.54
5.92
8.52
10.27
11.13
11.11
10.32
8.98
7.45
6.03
4.93
4.20
3.71
3.30
2.88
2.46
2.12
1.92
1.84
1.76
1.50
0.92
0.01
-1.09
-2.10
-2.70
-2.66
-1.93
-0.72
0.61
1.72
2.47
2.97
3.53
4.41
5.69
7.12
8.32
8.91
8.75
7.96
6.83
5.72
4.84
4.20
3.65
3.04
2.29
1.51
0.90
0.71
1.04
1.77
2.55
2.94
2.55
1.22
-0.95
-3.66
-6.53
-9.25
-11.61
-13.48
-14.81
-15.55
-15.67
-15.21
-14.31
-13.17
-12.12
-11.55
-11.91
-13.51
-16.34
-19.83
-22.81
-23.76
-21.37
-15.12
-5.66
5.36
15.81
23.90
28.67
30.15
29.16
26.80
24.11
21.85
20.46
20.14
20.81
22.10
23.46
24.27
24.11
22.95
21.17
19.45
18.44
18.39
18.96
19.25
18.15
14.82
9.08
1.59
-6.44
-13.65
-19.06
-22.16
-22.94
-21.65
-18.61
-14.25
-9.16
-4.15
-0.20
1.86
1.64
-0.67
-4.27
-8.08
-11.03
-12.37
-11.80
-9.49
-5.90
-1.61
2.82
6.95
10.34
12.61
13.36
12.38
9.76
6.03
2.07
-1.14
-2.87
-2.87
-1.47
0.72
2.99
4.84
5.98
6.32
5.82
4.48
2.43
-0.05
-2.49
-4.41
-5.55
-5.96
-5.98
-6.07
-6.53
-7.39
-8.49
-9.65
-10.89
-12.35
-14.17
-16.28
-18.21
-19.34
-19.14
-17.49
-14.77
-11.75
-9.18
-7.56
-6.87
-6.69
-6.35
-5.28
-3.16
-0.05
3.71
7.56
10.88
13.17
14.16
13.89
12.67
11.01
9.41
8.24
7.71
7.79
8.32
9.04
9.72
10.18
10.36
10.33
10.24
10.22
10.29
10.38
10.31
9.90
9.11
8.07
6.98
5.95
4.87
3.42
1.25
-1.72
-5.11
-8.11
-9.63
-9.05
-6.41
-2.51
1.53
4.80
6.98
8.44
9.78
11.53
13.59
15.48
16.62
16.88
16.66
16.70
17.61
19.35
21.53
23.31
23.97
23.31
21.69
19.77
18.20
17.48
17.47
18.57
20.60
23.17
25.72
27.65
28.50
28.10
26.54
23.24
18.90
13.08
5.42
-4.04
-14.49
-24.62
-33.19
-39.59
-45.15
-49.36
-53.17
-57.30
-62.17
-68.18
-75.87
-85.77
-97.78
-112.07
-124.52
-132.39
-133.57
-127.30
-114.27
-96.06
-74.28
-41.12
-10.02
20.15
48.04
72.01
90.66
103.43
110.67
113.18
111.49
104.04
92.03
75.26
54.67
32.49
11.79
-4.51
-14.46
-17.51
-15.45
-8.44
1.80
13.49
24.95
34.83
42.31
47.34
50.41
51.45
51.41
49.57
44.62
35.46
22.04
5.81
-10.44
-23.43
-30.79
-30.86
-24.40
-14.01
-3.41
3.75
4.96
-0.40
-11.09
-24.90
-39.12
-51.68
-61.03
-65.95
-65.02
-56.89
-40.77
-17.31
10.92
39.66
64.04
80.04
85.98
83.20
75.69
68.67
66.64
71.65
82.57
95.81
107.05
113.07
112.89
107.70
99.87
91.72
84.75
79.41
75.06
70.21
62.79
50.62
32.26
7.92
-20.24
-48.58
-73.29
-92.24
-105.91
-117.03
-128.99
-144.03
-162.17
-181.56
-199.32
-212.97
-221.28
-224.32
-222.73
-217.07
-207.69
-194.90
-179.46
-161.92
-142.50
-121.33
-98.88
-76.24
-55.12
-37.48
-24.64
-17.11
-13.04
-9.18
-2.85
6.47
17.25
26.81
32.72
33.89
29.70
21.74
12.77
4.86
-1.52
-6.79
-11.92
-18.27
-27.08
-39.97
-55.51
-69.21
-75.75
-71.36
-54.38
-25.88
10.43
57.09
105.98
144.35
164.93
169.97
166.50
161.61
159.39
160.18
163.12
164.82
163.78
160.44
155.38
148.09
138.16
124.84
106.79
83.03
53.89
22.53
-3.90
-17.92
-21.80
-20.15
-15.09
-10.27
-8.17
-9.53
-12.29
-12.82
-8.85
-1.01
8.48
16.21
18.74
14.87
5.81
-5.03
-13.63
-17.72
-17.67
-15.19
-12.90
-13.61
-19.03
-29.81
-45.58
-65.09
-86.27
-105.89
-119.25
-121.70
-110.89
-87.86
-57.37
-26.60
-2.57
10.29
11.53
4.54
-5.30
-12.85
-14.58
-9.02
3.55
21.67
42.97
64.20
81.36
90.22
87.42
71.78
45.11
11.96
-21.94
-51.68
-74.62
-90.82
-102.02
-110.07
-115.71
-118.31
-116.63
-109.91
-98.41
-83.11
-64.82
-43.49
-18.19
12.05
46.74
83.02
115.92
139.97
151.39
149.62
137.43
119.25
99.01
78.59
57.79
35.89
13.15
-8.85
-28.23
-44.55
-59.33
-74.82
-91.39
-105.63
-111.00
-101.59
-76.64
-43.01
-13.31
-0.10
-9.13
-35.65
-66.10
-84.38
-79.41
-49.91
-4.34
43.61
81.50
102.72
107.60
101.09
89.02
75.12
60.34
43.78
24.60
3.69
-16.10
-31.45
-40.38
-43.64
-44.53
-46.73
-52.80
-62.74
-73.68
-81.20
-81.52
-73.25
-57.82
-38.83
-19.70
-3.52
7.63
13.33
14.91
14.53
14.14
14.90
16.97
21.41
28.68
38.61
51.00
65.84
82.55
100.11
117.92
135.69
155.28
176.85
197.46
211.95
215.30
204.05
177.89
140.01
85.76
21.18
-40.07
-86.74
-117.44
-137.78
-154.10
-171.62
-187.91
-198.29
-197.07
-182.33
-157.13
-127.45
-95.54
-64.80
-36.46
-8.89
20.08
52.60
87.16
118.69
141.66
153.44
154.83
149.30
140.49
129.54
116.05
98.56
76.16
50.27
24.37
1.61
-16.55
-31.03
-44.76
-60.50
-80.07
-103.83
-130.75
-158.69
-185.22
-207.44
-222.25
-227.03
-220.34
-202.91
-177.93
-150.17
-124.20
-102.60
-84.58
-66.26
-42.48
-9.42
33.12
81.10
127.51
165.08
188.84
197.66
193.70
180.70
162.22
140.86
118.51
97.05
78.27
63.20
51.06
39.20
24.13
3.49
-22.28
-49.70
-73.77
-90.06
-96.41
-93.78
-85.82
-77.82
-75.18
-81.60
-97.41
-118.64
-137.87
-146.95
-140.71
-119.58
-89.57
-59.32
-36.29
-23.87
-21.12
-24.36
-29.60
-33.58
-33.54
-26.38
-8.79
20.82
60.11
102.45
138.87
161.38
166.10
154.54
132.28
106.99
85.13
70.24
63.01
62.33
66.14
71.96
77.37
80.90
83.77
87.98
94.86
103.89
112.64
117.38
114.22
101.04
78.80
53.85
33.85
24.78
28.86
44.56
67.29
90.60
108.57
118.08
122.03
124.70
128.76
133.95
138.27
139.52
135.75
126.37
98.52
48.64
-15.56
-79.76
-134.03
-176.16
-207.90
-231.86
-248.77
-259.62
-259.45
-244.96
-217.39
-182.58
-147.65
-118.27
-97.82
-85.61
-77.44
-66.31
-47.29
-19.70
10.68
36.76
60.27
83.86
106.38
127.19
145.56
158.75
163.21
156.57
139.85
116.94
91.54
66.41
43.08
22.18
3.35
-14.10
-30.86
-47.14
-63.29
-81.24
-103.21
-129.82
-159.12
-186.77
-207.29
-216.11
-211.35
-194.69
-171.11
-146.20
-123.66
-104.87
-89.38
-76.03
-63.75
-51.65
-38.92
-25.27
-10.91
3.55
16.66
26.82
33.43
37.75
42.72
51.30
64.62
81.25
98.53
113.40
123.90
129.65
131.55
130.75
127.54
121.03
109.80
94.21
76.22
59.21
46.67
41.27
44.21
55.10
72.50
88.85
98.56
99.78
94.53
84.95
71.08
51.86
27.20
-0.78
-28.14
-49.14
-62.33
-68.54
-70.95
-73.47
-78.56
-86.06
-93.63
-98.43
-98.25
-91.66
-79.91
-66.14
-53.25
-42.13
-31.60
-19.66
-5.54
9.42
21.76
28.09
27.25
21.06
13.06
6.48
2.71
1.01
-0.28
-2.49
-5.60
-8.57
-9.90
-8.54
-4.59
0.60
5.10
7.40
7.11
5.05
2.77
1.72
2.59
5.11
8.19
10.38
10.54
8.37
4.48
0.11
-3.39
-5.17
-5.14
-4.05
-3.04
-3.15
-4.79
-7.54
-10.40
-12.26
-12.48
-11.16
-9.08
-7.17
-6.02
-5.63
-5.55
-5.27
-4.63
-3.85
-3.29
-3.16
-3.32
-3.43
-3.28
-2.99
-3.08
-4.08
-6.25
-9.32
-12.65
-15.40
-16.92
-16.90
-15.32
-12.43
-8.56
-4.16
0.23
3.97
6.36
6.77
4.84
0.74
-4.76
-10.35
-14.37
-15.42
-12.96
-7.68
-1.48
3.23
4.38
1.13
-5.73
-14.19
-21.78
-26.51
-27.52
-25.09
-20.26
-14.21
-7.94
-2.09
2.86
6.50
8.52
8.93
8.11
6.84
5.96
6.03
7.13
8.91
10.89
12.83
14.94
17.61
21.05
24.99
28.65
31.11
31.85
31.05
29.43
27.71
26.12
24.29
21.56
17.68
13.11
8.97
6.42
5.97
7.15
8.74
9.35
8.02
4.56
-0.52
-6.33
-11.95
-16.53
-19.55
-20.85
-20.64
-19.51
-18.16
-17.16
-16.70
-16.54
-16.23
-15.35
-13.86
-12.13
-10.86
-10.82
-12.47
-15.72
-19.85
-23.60
-25.57
-24.75
-20.95
-15.03
-8.58
-3.32
-0.42
-0.00
-1.13
-2.47
-2.95
-2.29
-1.00
0.15
0.63
0.53
0.38
0.84
2.15
4.04
6.08
8.15
10.69
14.49
20.03
27.00
34.29
40.15
42.95
41.90
37.43
30.90
23.98
17.76
11.75
5.56
-0.87
-7.02
-12.07
-15.24
-16.52
-16.17
-14.58
-12.10
-8.69
-4.25
1.29
7.24
12.39
15.49
15.87
13.62
9.46
4.48
-0.43
-4.76
-8.34
-11.09
-13.02
-14.31
-15.41
-17.00
-19.60
-23.34
-27.94
-32.60
-36.06
-36.83
-33.41
-25.10
-12.65
1.51
13.78
20.94
21.51
16.64
9.59
4.05
2.28
4.17
7.66
10.28
10.62
8.80
6.10
3.76
2.24
1.06
-0.45
-2.33
-3.52
-2.32
2.80
11.77
22.47
31.66
36.61
36.14
30.76
22.19
13.22
5.28
-0.71
-4.44
-6.10
-6.09
-5.00
-3.54
-2.23
-1.81
-2.88
-5.41
-8.59
-11.08
-11.61
-9.72
-5.96
-1.64
1.85
3.61
3.67
2.59
0.99
-0.74
-2.49
-4.16
-5.37
-5.64
-4.71
-2.86
-1.06
-0.64
-2.68
-7.44
-14.17
-21.34
-27.33
-30.92
-31.61
-29.66
-25.83
-21.07
-16.08
-11.21
-6.48
-1.72
3.29
8.69
14.27
19.51
23.61
26.01
26.64
26.05
25.13
24.80
25.61
27.38
29.35
30.30
29.32
25.92
19.94
11.29
0.02
-13.53
-28.48
-43.28
-56.00
-64.48
-67.09
-63.37
-54.28
-41.71
-27.84
-14.58
-2.25
7.77
14.26
17.27
18.32
19.31
21.48
24.86
28.39
30.50
29.74
25.81
19.72
13.23
8.10
5.41
5.30
7.04
9.34
10.90
11.07
9.90
7.89
5.66
3.78
2.58
2.09
2.12
2.28
2.32
2.21
2.08
2.02
2.00
1.83
1.20
0.05
-1.64
-3.66
-5.60
-7.13
-8.09
-8.57
-8.78
-8.94
-9.14
-9.37
-9.48
-9.22
-8.40
-6.99
-5.20
-3.45
-2.27
-2.17
-3.39
-5.84
-9.04
-12.32
-14.99
-16.52
-16.51
-14.80
-11.42
-6.75
-1.31
4.24
9.24
13.13
15.51
16.20
15.28
13.05
9.92
6.60
4.04
3.16
4.49
7.98
12.97
18.29
22.48
24.02
21.90
16.11
7.46
-2.65
-12.55
-20.70
-26.12
-28.73
-29.45
-29.45
-29.44
-29.43
-28.72
-26.16
-20.66
-11.90
0.19
13.24
23.69
29.42
31.09
31.05
31.22
31.81
31.46
28.39
21.89
12.67
3.08
-4.12
-7.16
-5.84
-1.18
5.24
11.87
17.54
21.73
24.01
23.58
19.27
9.78
-4.66
-21.86
-38.57
-52.17
-61.26
-65.27
-64.01
-57.45
-45.81
-29.82
-11.15
7.43
22.49
30.94
31.08
23.29
10.01
-4.85
-17.06
-23.62
-23.95
-19.80
-14.07
-9.27
-6.49
-5.46
-5.05
-4.06
-1.85
1.37
4.73
6.83
6.25
1.99
-5.97
-16.18
-25.76
-31.47
-31.12
-24.40
-12.89
0.70
13.65
24.29
31.61
35.87
38.00
38.92
39.24
39.12
38.31
36.21
32.16
25.94
18.35
11.17
6.57
6.02
9.42
14.84
19.27
20.11
16.43
9.56
2.25
-2.87
-4.60
-3.67
-2.07
-1.69
-3.19
-5.81
-7.89
-8.16
-6.52
-4.01
-2.14
-1.90
-3.27
-5.27
-6.57
-6.23
-4.14
-1.02
1.95
3.62
3.24
0.71
-3.45
-8.19
-12.22
-14.47
-14.51
-12.65
-9.87
-7.37
-5.95
-5.63
-5.73
-5.51
-4.73
-3.93
-3.93
-5.20
-7.28
-8.77
-8.05
-4.38
1.51
7.52
11.32
11.62
8.88
5.04
2.35
2.03
3.75
6.08
7.56
7.62
6.85
6.39
6.96
8.36
9.49
9.08
6.65
2.81
-1.13
-3.74
-4.26
-2.75
0.07
3.21
5.73
6.86
6.07
2.85
-3.20
-12.12
-23.42
-35.41
-45.74
-51.99
-52.62
-47.37
-37.52
-25.21
-12.56
-0.89
9.56
19.10
27.54
34.39
39.25
41.93
42.69
42.14
40.99
39.69
38.18
36.58
33.90
29.51
23.47
16.71
10.68
6.70
5.47
6.67
8.95
10.44
9.22
3.71
-6.49
-20.14
-34.63
-46.84
-54.03
-54.72
-48.94
-38.13
-24.54
-10.29
3.01
14.46
23.53
29.90
33.23
33.75
32.07
28.98
25.50
22.08
18.47
14.02
8.38
2.00
-3.52
-6.17
-4.72
0.64
7.92
13.81
14.71
8.87
-4.45
-22.89
-41.80
-56.79
-65.26
-67.11
-64.07
-58.68
-53.21
-49.31
-47.56
-47.67
-51.26
-57.54
-65.23
-72.19
-75.62
-73.29
-64.93
-52.18
-37.74
-24.68
-14.51
-6.15
3.26
17.00
38.29
67.56
100.18
133.54
167.15
196.02
215.17
220.29
208.56
179.57
135.07
78.73
15.71
-48.67
-108.93
-159.06
-194.25
-212.75
-217.37
-215.17
-214.59
-221.38
-236.51
-255.97
-272.56
-279.87
-275.41
-261.30
-242.36
-223.20
-205.71
-189.24
-172.06
-152.83
-132.03
-111.83
-94.74
-82.24
-73.64
-66.15
-56.24
-41.02
-19.28
7.95
37.86
67.06
93.00
114.95
134.12
152.52
171.48
190.69
208.17
221.50
229.40
232.62
233.59
234.83
237.46
240.44
241.34
237.83
229.09
216.37
202.25
189.40
179.40
172.14
166.22
159.73
151.26
140.48
128.27
116.35
106.53
99.89
96.34
94.76
93.46
90.92
86.38
79.95
72.45
65.06
58.99
55.02
53.11
51.89
48.53
39.21
20.40
-9.36
-48.07
-90.11
-127.74
-153.93
-165.10
-162.58
-151.80
-139.86
-132.57
-132.67
-139.44
-149.88
-160.32
-167.41
-168.58
-162.30
-148.26
-127.78
-103.95
-80.94
-62.77
-52.03
-49.07
-52.33
-59.10
-66.56
-72.35
-74.82
-73.00
-66.68
-56.39
-43.19
-28.36
-12.93
2.43
17.38
31.54
44.34
55.14
63.57
69.80
74.29
77.48
79.48
80.11
79.24
77.22
75.00
73.90
74.95
78.32
83.16
87.81
90.51
90.06
86.25
79.90
72.43
65.32
59.51
55.24
52.09
49.40
46.54
43.33
40.07
37.37
35.79
35.54
36.29
37.31
37.80
37.32
36.04
34.60
33.73
33.84
34.85
36.20
37.21
37.43
36.80
35.59
34.09
32.43
30.42
27.64
23.63
18.15
11.42
3.96
-3.67
-11.39
-19.91
-30.46
-44.20
-61.26
-80.25
-98.46
-112.82
-121.02
-122.30
-117.30
-107.45
-94.12
-78.37
-61.02
-43.17
-26.38
-12.46
-2.78
2.42
4.31
5.05
6.93
11.36
18.25
26.17
33.13
37.45
38.57
37.11
34.43
31.91
30.33
29.76
29.68
29.36
27.95
24.46
17.78
6.91
-8.43
-27.25
-47.27
-65.42
-78.96
-86.77
-89.85
-90.85
-92.84
-97.83
-105.99
-115.66
-124.37
-129.83
-130.71
-126.65
-117.80
-104.52
-87.17
-66.38
-43.18
-18.92
4.86
26.51
44.23
56.19
60.83
57.54
47.31
32.82
17.70
5.22
-2.75
-6.07
-5.79
-3.20
0.97
6.64
13.92
22.44
31.22
38.70
43.27
43.70
39.48
30.90
18.84
4.55
-10.63
-25.35
-38.13
-47.14
-50.16
-45.07
-30.71
-7.81
20.54
49.60
74.56
92.11
101.54
104.46
103.69
101.78
100.10
98.88
97.82
96.75
95.87
95.49
95.67
95.97
95.61
93.95
90.84
86.81
82.71
79.15
75.93
72.14
66.97
60.81
55.92
55.80
63.49
79.54
100.86
121.46
135.02
137.85
130.56
117.43
103.54
91.53
80.00
64.19
38.74
0.83
-47.83
-101.19
-150.63
-187.52
-205.57
-202.52
-180.61
-146.27
-108.89
-78.67
-63.85
-68.27
-90.25
-123.33
-158.49
-187.11
-203.39
-205.46
-194.89
-175.37
-151.41
-127.40
-107.15
-93.77
-89.28
-93.99
-106.09
-121.90
-136.74
-146.52
-149.07
-144.71
-135.61
-124.74
-114.74
-107.11
-102.04
-98.75
-95.86
-91.75
-85.20
-75.90
-64.76
-53.42
-43.27
-34.30
-24.57
-10.89
9.38
36.41
67.12
96.04
117.41
127.41
125.54
114.51
98.87
83.23
70.77
62.60
58.05
55.62
54.09
53.35
54.42
58.87
67.78
80.96
96.84
113.08
127.41
138.46
146.23
152.06
158.34
167.84
182.43
201.81
222.84
239.72
245.45
234.10
203.25
155.34
97.45
39.61
-7.73
-36.19
-41.51
-24.52
8.95
49.31
85.54
107.81
109.64
88.95
47.96
-7.69
-69.97
-129.68
-177.73
-206.87
-213.74
-200.42
-174.20
-145.40
-123.66
-114.30
-116.98
-127.13
-138.97
-148.29
-153.55
-155.10
-153.66
-149.29
-141.52
-130.21
-115.88
-99.55
-82.16
-64.09
-45.53
-27.38
-11.67
-0.94
3.13
0.96
-4.55
-9.03
-8.37
-0.47
14.05
32.09
49.41
62.02
67.53
65.81
58.82
49.63
41.20
35.30
32.09
30.64
29.83
29.03
28.30
28.00
28.28
28.69
28.41
26.67
23.10
17.94
11.94
6.22
2.13
0.86
3.13
8.88
17.29
27.28
38.04
49.32
61.11
72.91
83.05
88.78
87.11
75.94
54.92
25.74
-8.09
-41.93
-70.60
-89.11
-93.56
-82.10
-55.70
-18.03
25.34
68.06
104.23
129.12
139.91
136.59
122.67
105.14
92.73
92.83
107.99
134.18
161.92
179.92
179.48
157.35
116.07
62.15
3.51
-52.45
-99.50
-132.73
-149.31
-149.47
-137.36
-120.41
-107.06
-103.49
-111.37
-127.48
-146.03
-161.78
-172.58
-179.79
-186.60
-195.30
-205.24
-212.83
-213.31
-203.37
-182.99
-155.48
-125.77
-98.04
-74.24
-53.96
-35.78
-18.71
-3.04
9.94
19.00
23.84
25.18
24.14
21.57
17.69
12.46
6.15
-0.33
-5.53
-8.06
-7.10
-2.81
3.82
11.41
18.81
25.64
32.54
41.02
52.67
68.32
87.46
108.23
128.19
145.38
158.83
168.44
174.22
175.61
171.60
161.61
146.51
128.64
110.57
93.40
75.74
54.58
27.51
-4.92
-38.76
-68.21
-88.46
-97.81
-97.92
-92.26
-84.14
-75.52
-67.25
-60.05
-55.04
-53.44
-55.68
-60.87
-67.06
-72.08
-74.43
-73.46
-69.27
-62.62
-55.07
-49.05
-47.44
-52.47
-64.34
-80.73
-97.53
-110.56
-117.58
-119.17
-118.31
-118.73
-123.20
-132.40
-144.79
-157.22
-165.76
-166.68
-157.23
-136.35
-105.02
-66.64
-26.77
7.86
31.10
39.62
34.42
21.10
8.09
3.44
11.41
30.65
55.15
77.45
92.51
99.89
103.13
106.83
113.41
