1565885680.00
64.000000
-0.00
-0.00
-0.00
-0.00
-0.00
-0.00
-0.00
-0.00
-0.00
-0.00
0.00
0.01
0.01
-0.00
-0.03
-0.05
-0.05
0.00
0.13
0.36
0.66
1.01
1.37
1.72
2.06
2.40
2.79
3.24
3.80
4.42
5.06
5.68
6.23
6.73
7.24
7.83
8.56
9.53
10.65
11.83
12.94
13.93
14.85
15.85
17.16
18.91
21.34
24.25
27.37
30.41
33.21
35.82
38.57
41.91
46.16
51.72
58.23
65.19
72.00
78.32
84.21
90.16
96.92
105.03
115.05
126.51
138.62
150.48
161.50
171.72
181.78
193.06
204.31
217.85
234.30
253.79
275.08
295.22
309.84
314.31
305.31
282.02
246.92
203.88
157.25
110.21
64.23
19.49
-24.14
-66.35
-106.28
-142.46
-174.09
-200.76
-222.40
-238.89
-250.21
-256.09
-256.18
-250.53
-239.56
-224.52
-206.98
-188.56
-170.53
-153.57
-137.73
-122.74
-108.32
-94.34
-81.15
-68.88
-57.87
-48.39
-40.48
-33.88
-28.22
-23.14
-18.39
-13.92
-9.85
-6.39
-3.69
-1.79
-0.57
0.19
0.68
1.09
1.51
1.96
2.37
2.68
2.81
2.75
2.53
2.18
1.76
1.26
0.69
-0.03
-0.95
-2.08
-3.40
-4.80
-6.14
-7.33
-8.29
-9.04
-9.67
-10.33
-11.09
-11.99
-12.97
-13.92
-14.76
-15.47
-16.17
-17.08
-18.43
-20.35
-22.78
-25.48
-28.09
-30.29
-31.98
-33.40
-35.04
-37.46
-41.02
-45.66
-50.89
-55.98
-60.29
-63.64
-66.45
-69.60
-74.07
-80.47
-88.65
-97.83
-106.85
-114.84
-121.66
-127.94
-134.83
-143.51
-154.63
-168.26
-184.08
-201.44
-219.26
-235.81
-248.52
-254.45
-251.43
-239.15
-219.79
-197.51
-176.70
-160.18
-148.13
-138.40
-128.10
-115.58
-101.36
-87.80
-77.50
-71.51
-68.50
-65.65
-60.32
-51.83
-41.97
-33.97
-30.54
-31.95
-35.79
-38.18
-36.06
-29.05
-19.80
-12.52
-10.49
-14.17
-20.84
-25.98
-25.94
-19.75
-9.67
0.06
5.66
5.86
2.45
-0.77
-0.30
5.07
13.56
21.44
25.21
23.59
18.28
12.84
10.48
12.22
16.21
18.96
17.57
11.71
3.94
-1.59
-1.55
4.60
14.29
23.32
28.23
28.20
25.35
23.41
25.37
31.86
40.85
48.92
53.40
53.84
52.25
51.76
54.64
61.10
69.19
76.10
79.98
80.99
81.10
82.86
87.68
94.98
102.55
107.88
109.52
108.06
105.81
105.43
108.64
115.09
122.57
128.03
129.32
126.12
120.35
115.03
112.45
112.98
114.79
114.95
111.37
104.07
95.35
88.38
85.20
85.34
85.89
83.15
74.99
62.27
48.59
38.46
34.69
36.63
40.59
41.82
37.22
27.33
15.93
7.90
6.56
11.60
19.38
25.03
25.17
19.62
11.39
4.67
2.42
4.89
9.60
13.03
12.95
9.48
5.05
2.81
4.41
9.04
13.83
15.42
12.16
5.19
-2.20
-6.29
-5.10
0.37
6.81
10.46
9.17
3.66
-2.94
-7.09
-6.82
-2.91
1.67
3.62
1.36
-4.02
-9.30
-11.17
-8.29
-2.18
3.61
5.53
2.28
-4.45
-10.85
-13.23
-10.08
-3.01
4.25
7.89
6.34
0.91
-5.03
-8.14
-7.12
-3.35
0.09
0.27
-3.48
-9.33
-13.86
-14.11
-9.32
-1.46
5.89
9.49
8.19
3.48
-1.45
-3.70
-2.19
1.69
4.95
4.92
0.82
-5.67
-11.24
-12.85
-9.51
-2.81
3.85
7.13
5.70
0.89
-4.05
-5.79
-2.96
3.05
8.94
11.29
8.60
2.38
-3.92
-6.84
-4.92
0.23
5.03
6.12
2.41
-4.16
-9.79
-11.28
-7.87
-1.83
3.01
3.59
-0.47
-6.68
-11.11
-10.69
-5.07
3.32
10.52
13.30
10.87
5.25
-0.01
-1.80
0.72
5.66
9.59
9.57
4.97
-1.99
-7.55
-8.66
-4.79
1.64
6.60
7.02
2.53
-4.24
-9.28
-9.68
-5.37
0.82
5.02
4.60
-0.13
-6.24
-10.00
-9.12
-4.20
1.69
4.90
3.42
-1.90
-7.79
-10.54
-8.14
-1.47
6.14
10.81
10.33
5.24
-1.44
-5.96
-6.12
-2.23
3.07
6.45
6.02
2.39
-1.83
-3.57
-1.39
3.56
8.13
9.06
4.97
-2.66
-10.17
-13.82
-11.85
-5.52
1.60
5.65
4.65
-0.55
-6.75
-10.29
-9.20
-4.14
2.06
5.95
5.66
1.75
-3.08
-5.56
-3.87
1.33
7.30
10.73
9.76
5.04
-0.60
-3.83
-2.73
2.02
7.63
10.67
9.21
3.86
-2.56
-6.59
-6.25
-2.19
2.66
4.80
2.32
-3.88
-10.57
-13.95
-12.00
-5.71
1.49
5.64
4.62
-0.63
-6.70
-9.77
-7.88
-2.10
4.16
7.23
5.42
-0.08
-5.87
-8.44
-6.12
-0.04
6.54
10.08
8.94
4.04
-1.58
-4.58
-3.28
1.37
6.43
8.72
6.74
1.58
-3.77
-6.25
-4.63
-0.20
3.91
4.87
1.83
-3.55
-7.98
-8.68
-5.22
0.32
4.44
4.31
-0.35
-7.08
-12.03
-12.24
-7.37
0.00
5.87
7.05
3.21
-3.17
-8.03
-8.28
-3.55
3.64
9.33
10.49
6.74
0.57
-4.31
-4.97
-1.07
5.13
10.08
11.04
7.56
1.71
-3.17
-4.41
-1.53
3.57
7.70
8.36
5.19
0.19
-3.45
-3.21
1.06
6.97
10.82
9.71
3.35
-5.58
-12.81
-14.97
-11.31
-4.24
2.09
4.15
1.10
-4.90
-9.99
-10.94
-7.12
-0.74
4.47
5.67
2.54
-2.52
-5.93
-5.16
-0.38
5.66
9.30
8.04
2.31
-4.81
-9.38
-8.83
-3.54
3.44
8.07
7.79
2.80
-3.94
-8.52
-8.53
-4.31
1.24
4.53
3.51
-1.04
-6.08
-8.11
-5.39
0.96
7.62
11.04
9.56
4.32
-1.36
-4.16
-2.49
2.45
7.50
9.49
7.02
1.24
-4.68
-7.51
-5.81
-0.71
4.79
7.51
6.11
1.66
-2.93
-4.52
-1.78
4.13
10.10
12.82
10.62
4.56
-2.19
-6.09
-5.23
-0.39
5.29
8.28
6.55
0.83
-5.78
-9.76
-9.13
-4.64
0.55
2.92
0.70
-5.19
-11.55
-14.90
-13.64
-8.81
-3.38
-0.42
-1.20
-4.46
-7.52
-7.79
-4.47
0.87
5.30
6.16
2.68
-3.46
-8.98
-10.84
-7.82
-1.25
5.57
9.42
8.71
4.49
-0.17
-2.17
-0.21
4.41
8.41
8.81
4.84
-1.63
-6.90
-7.73
-3.36
4.12
10.93
13.68
11.27
5.58
0.02
-2.36
-0.67
3.28
6.31
5.81
1.38
-4.85
-9.44
-9.86
-5.87
0.19
4.66
4.80
0.30
-6.51
-11.92
-12.88
-8.84
-1.81
4.56
7.10
4.93
-0.21
-5.06
-6.74
-4.37
0.51
5.05
6.88
5.46
2.41
0.36
1.16
4.75
9.10
11.34
9.69
4.46
-1.99
-6.44
-6.75
-2.96
2.61
6.65
6.67
2.47
-3.71
-8.61
-9.61
-6.45
-1.30
2.60
2.76
-1.07
-6.59
-10.46
-10.32
-6.14
-0.34
3.63
3.38
-0.99
-6.95
-10.90
-10.35
-5.35
1.61
6.85
7.77
4.31
-1.05
-4.82
-4.46
0.03
6.09
10.18
9.81
5.08
-1.29
-5.59
-5.23
-0.23
6.56
11.23
11.00
5.74
-1.93
-8.06
-9.75
-6.67
-1.05
3.63
4.82
2.42
-1.47
-3.87
-2.87
1.03
5.45
7.58
5.95
1.48
-2.98
-4.49
-1.72
4.27
10.47
13.63
12.12
6.70
0.10
-4.44
-5.12
-2.37
1.38
3.09
1.09
-4.03
-9.69
-12.76
-11.48
-6.67
-1.18
1.69
0.16
-4.85
-10.19
-12.47
-9.85
-3.30
4.04
8.71
8.98
5.65
1.62
0.03
2.26
7.22
11.90
13.14
9.64
2.71
-4.39
-8.14
-6.78
-1.35
5.01
8.70
7.80
3.05
-2.69
-6.26
-6.05
-2.99
0.15
0.64
-2.38
-7.40
-11.31
-11.45
-7.39
-1.17
3.82
4.79
1.43
-3.97
-7.92
-7.66
-2.79
4.35
10.17
11.77
8.40
2.04
-3.90
-6.48
-4.75
-0.22
3.99
5.21
2.69
-1.93
-5.53
-5.47
-1.40
4.51
8.59
7.84
1.94
-6.44
-13.04
-14.30
-9.46
-1.06
6.57
9.69
7.27
1.52
-3.68
-5.08
-2.01
3.38
7.42
7.40
3.05
-3.24
-7.82
-8.05
-3.71
2.82
8.02
9.17
5.96
0.60
-3.59
-4.00
-0.38
5.11
9.10
9.13
4.92
-1.22
-5.85
-6.47
-2.95
2.31
5.81
5.09
0.31
-5.89
-9.94
-9.47
-4.85
1.17
5.03
4.53
0.23
-4.90
-7.35
-5.06
1.17
7.93
11.37
9.20
2.11
-6.49
-12.34
-12.72
-7.74
-0.24
5.75
7.48
4.72
-0.20
-3.75
-3.61
0.23
5.45
8.74
7.91
3.21
-2.84
-6.91
-6.79
-2.74
2.65
6.10
5.49
1.26
-3.93
-6.88
-5.74
-1.26
3.64
5.74
3.44
-2.24
-8.15
-10.84
-8.69
-2.73
3.73
7.09
5.51
-0.10
-6.51
-9.99
-8.60
-3.12
3.39
7.26
6.69
2.50
-2.34
-4.48
-2.30
3.06
8.56
10.98
8.78
3.18
-2.75
-5.85
-4.53
0.19
5.40
8.05
6.59
1.86
-3.24
-5.55
-3.51
2.08
8.13
11.18
9.35
3.35
-3.73
-8.23
-8.09
-3.84
1.62
4.76
3.70
-0.78
-5.79
-8.07
-6.10
-1.14
3.67
5.23
2.37
-3.20
-8.14
-9.37
-5.92
0.33
5.90
7.75
5.03
-0.46
-5.30
-6.57
-3.67
1.47
5.33
5.07
0.21
-7.02
-12.73
-13.73
-9.36
-1.80
4.98
7.57
5.13
-0.38
-5.43
-6.91
-4.13
1.00
5.17
5.72
2.20
-3.22
-7.27
-7.37
-3.22
2.93
7.72
8.55
5.17
-0.11
-3.78
-3.22
1.79
8.84
14.09
14.70
10.34
3.37
-2.37
-3.98
-1.16
3.75
6.98
5.78
0.13
-7.31
-12.68
-13.09
-8.53
-1.76
3.29
3.70
-0.67
-7.02
-11.45
-11.09
-5.79
1.78
7.75
9.37
6.54
1.80
-1.25
-0.27
4.37
9.77
12.18
9.42
2.30
-5.73
-10.56
-9.74
-4.00
3.35
8.15
7.94
3.25
-2.86
-6.63
-5.83
-1.04
4.73
8.03
6.85
2.00
-3.49
-6.20
-4.29
1.26
7.18
9.82
7.35
0.83
-6.26
-10.07
-8.60
-2.84
3.80
7.44
5.99
0.29
-6.43
-10.34
-9.26
-3.88
2.71
6.78
6.16
1.51
-4.14
-7.22
-5.75
-0.60
5.06
7.68
5.51
-0.25
-6.25
-9.08
-7.28
-2.24
2.69
4.39
1.92
-3.09
-7.37
-8.11
-4.61
1.40
6.80
8.87
6.88
2.24
-2.33
-4.28
-2.78
0.97
4.48
5.29
2.46
-2.71
-7.34
-8.57
-5.14
1.63
8.37
11.50
9.19
2.43
-5.32
-10.26
-10.24
-5.94
-0.44
2.75
1.88
-2.08
-6.13
-7.14
-3.99
1.70
6.53
7.51
3.90
-2.09
-6.57
-6.41
-1.11
6.68
12.71
13.55
8.64
0.63
-6.12
-8.07
-4.51
2.17
7.82
9.11
5.26
-1.52
-7.37
-9.11
-6.05
-0.29
4.48
5.28
1.54
-4.67
-9.79
-10.90
-7.54
-1.87
2.65
3.33
-0.09
-5.24
-8.55
-7.46
-1.92
5.30
10.32
10.39
5.49
-1.65
-7.05
-7.90
-4.09
1.91
6.42
6.89
3.34
-1.79
-5.10
-4.35
0.15
5.75
9.01
7.77
2.45
-4.11
-8.27
-7.64
-2.47
4.42
9.28
9.49
5.08
-1.36
-6.31
-7.35
-4.52
-0.21
2.42
1.48
-2.49
-6.80
-8.24
-5.15
1.55
8.82
13.06
12.21
7.05
0.55
-3.66
-3.32
1.03
6.54
9.65
8.22
2.76
-3.78
-7.74
-6.91
-1.69
5.01
9.53
9.52
5.22
-0.73
-4.81
-4.80
-1.05
3.81
6.39
4.61
-0.95
-7.30
-10.84
-9.49
-3.97
2.49
6.09
4.70
-0.79
-6.94
-9.87
-7.57
-1.28
5.25
8.00
5.14
-1.92
-9.20
-12.62
-10.34
-3.80
3.17
6.58
4.67
-1.08
-7.05
-9.52
-6.89
-0.67
5.60
8.45
6.47
1.19
-3.88
-5.38
-2.15
3.99
9.22
9.92
4.99
-3.51
-11.28
-14.10
-10.26
-1.48
8.04
13.90
13.82
8.83
2.42
-1.61
-1.34
2.29
6.22
7.23
4.09
-1.70
-6.85
-8.29
-5.15
0.55
5.10
5.34
0.61
-6.76
-12.70
-13.84
-9.61
-2.58
3.13
4.17
0.04
-6.54
-11.41
-11.37
-6.01
1.99
8.63
10.84
8.14
2.83
-1.53
-2.29
0.77
5.45
8.45
7.37
2.27
-4.47
-9.38
-9.85
-5.60
1.05
6.62
8.25
5.44
0.25
-3.90
-4.32
-0.62
4.95
8.82
8.34
3.28
-3.85
-9.23
-10.02
-6.00
0.34
5.21
5.84
2.11
-3.45
-7.16
-6.45
-1.47
5.12
9.55
9.35
4.75
-1.39
-5.31
-4.43
0.90
7.67
11.95
11.07
5.40
-1.90
-6.74
-6.54
-1.65
4.78
8.73
7.73
2.24
-4.56
-8.66
-7.59
-1.90
5.12
9.26
7.84
1.31
-7.06
-13.02
-13.77
-9.58
-3.42
0.68
0.30
-4.17
-9.64
-12.30
-9.91
-3.15
4.77
9.92
9.89
5.11
-1.43
-5.96
-6.11
-2.23
2.90
5.73
4.19
-1.07
-6.90
-9.62
-7.24
-0.68
6.66
10.91
10.12
5.30
-0.20
-2.75
-0.59
5.11
11.01
13.47
10.76
3.94
-3.60
-8.05
-7.31
-2.09
4.45
8.42
7.41
1.85
-5.26
-10.09
-10.20
-5.98
-0.18
3.70
3.61
0.21
-3.76
-5.23
-2.86
2.02
6.23
6.77
2.60
-4.60
-11.23
-13.89
-11.23
-4.77
2.04
5.61
4.25
-0.87
-6.58
-9.28
-7.20
-1.32
5.14
8.67
7.45
2.42
-3.30
-6.37
-5.12
-0.59
4.30
6.53
4.83
0.46
-3.69
-4.83
-2.01
3.34
8.11
9.46
6.35
0.26
-5.60
-8.11
-5.97
-0.53
4.99
7.16
4.53
-1.56
-7.68
-10.14
-7.35
-0.54
6.73
10.75
9.72
4.75
-0.91
-3.87
-2.49
2.18
7.15
9.29
7.32
2.46
-2.25
-3.75
-0.96
4.64
9.74
11.10
7.48
0.52
-6.26
-9.40
-7.63
-2.58
2.20
3.40
0.06
-5.93
-10.86
-11.63
-7.68
-1.31
3.50
3.61
-1.34
-8.65
-14.09
-14.37
-9.06
-0.91
5.67
7.30
3.47
-3.11
-8.06
-7.99
-2.41
6.00
12.96
15.12
11.98
6.06
1.22
0.43
3.88
8.96
12.00
10.59
5.03
-1.79
-6.12
-5.77
-1.28
4.32
7.35
5.66
-0.09
-6.90
-11.21
-10.94
-6.69
-1.29
1.83
0.76
-3.96
-9.52
-12.61
-11.26
-5.97
0.56
5.01
5.33
1.86
-2.82
-5.47
-4.02
1.11
7.29
11.06
10.19
4.97
-1.85
-6.49
-6.29
-1.21
6.09
11.65
12.44
8.11
1.01
-4.95
-6.65
-3.60
1.90
6.14
6.22
1.84
-4.52
-9.22
-9.58
-5.61
0.05
3.75
3.06
-1.75
-7.81
-11.39
-10.10
-4.36
2.88
7.81
8.07
4.17
-0.95
-3.64
-1.85
3.59
9.47
12.14
9.69
3.21
-3.87
-7.79
-6.62
-1.32
4.82
8.26
7.09
2.15
-3.57
-6.73
-5.55
-0.92
4.23
6.69
4.79
-0.44
-5.90
-8.24
-5.90
-0.09
5.80
8.18
5.40
-1.23
-8.13
-11.50
-9.56
-3.56
2.98
6.39
5.01
0.08
-5.06
-7.02
-4.43
1.22
6.46
8.01
4.73
-1.59
-7.28
-9.03
-5.79
0.49
6.02
7.43
3.63
-3.42
-9.87
-12.18
-9.06
-2.21
4.70
8.10
6.65
1.87
-2.77
-3.93
-0.54
5.63
10.98
12.19
8.28
1.34
-4.87
-7.00
-4.20
1.41
5.98
6.41
2.11
-4.67
-10.00
-10.77
-6.36
1.07
7.64
10.11
7.59
1.97
-3.27
-5.07
-2.67
2.14
6.08
6.37
2.50
-3.42
-7.94
-8.26
-3.86
3.03
8.76
10.34
6.99
0.69
-4.91
-6.67
-3.66
2.31
7.64
9.12
5.87
-0.28
-5.74
-7.33
-4.30
1.33
5.97
6.56
2.56
-3.68
-8.42
-8.58
-3.68
3.86
10.09
11.76
8.03
0.96
-5.74
-8.83
-7.33
-2.95
0.86
1.21
-2.63
-8.76
-13.64
-14.31
-10.13
-3.21
2.76
4.63
1.71
-3.83
-8.24
-8.32
-3.47
4.01
10.12
11.50
7.40
0.14
-6.21
-8.20
-5.00
1.24
6.57
7.75
4.14
-1.97
-6.87
-7.49
-3.46
2.90
7.92
8.79
5.21
-0.43
-4.57
-4.62
-0.40
5.69
10.12
10.36
6.29
0.28
-4.10
-4.34
-0.43
5.18
8.83
7.96
2.79
-3.92
-8.31
-7.73
-2.53
4.19
8.34
7.19
1.04
-6.75
-11.92
-11.65
-6.22
1.15
6.23
6.31
1.63
-4.71
-8.69
-7.80
-2.51
4.05
7.91
6.70
0.99
-6.06
-10.59
-10.25
-5.62
0.30
3.95
3.21
-1.23
-6.39
-8.86
-6.89
-1.39
4.53
7.49
5.98
1.07
-4.04
-5.96
-3.18
3.01
9.40
12.47
10.66
5.10
-1.07
-4.54
-3.67
0.66
5.61
8.08
6.51
1.64
-3.74
-6.53
-4.96
0.29
6.44
10.18
9.47
4.72
-1.34
-5.36
-5.23
-1.26
3.93
7.03
6.10
1.47
-4.23
-7.93
-7.88
-4.68
-0.83
0.76
-1.30
-6.10
-10.94
-13.02
-11.10
-6.21
-1.04
1.63
0.68
-2.79
-6.03
-6.41
-2.88
3.21
8.94
11.45
9.56
4.48
-0.84
-3.47
-2.05
2.40
7.15
9.38
7.89
3.73
-0.28
-1.33
1.63
7.20
12.16
13.36
9.59
2.42
-4.61
-7.91
-5.98
-0.32
5.27
7.04
3.29
-4.40
-11.97
-15.46
-13.17
-6.70
-0.10
2.69
0.22
-5.70
-11.18
-12.59
-8.90
-2.25
3.55
5.26
2.29
-3.01
-6.89
-6.45
-1.33
6.00
11.72
12.81
8.74
1.77
-4.33
-6.40
-3.60
2.10
7.06
8.13
4.39
-2.26
-8.15
-9.99
-6.77
-0.32
5.65
7.75
4.93
-0.99
-6.39
-7.98
-4.77
1.46
7.22
9.32
6.79
1.38
-3.56
-5.01
-2.04
3.50
8.31
9.36
5.82
-0.45
-6.00
-7.82
-5.07
0.38
5.05
5.99
2.43
-3.61
-8.60
-9.57
-5.92
0.25
5.36
6.44
2.94
-3.01
-7.90
-8.89
-5.55
-0.07
4.10
4.23
-0.04
-6.36
-11.10
-11.33
-6.56
0.93
7.45
9.93
7.61
2.43
-2.15
-3.21
-0.04
5.50
10.10
10.97
7.55
1.87
-2.72
-3.44
0.02
5.41
9.20
8.63
3.56
-3.48
-8.72
-9.32
-5.12
1.24
5.86
5.87
1.03
-5.95
-11.05
-11.29
-6.30
1.43
7.85
9.81
6.63
0.51
-4.77
-6.09
-2.82
2.91
7.47
7.83
3.56
-3.10
-8.51
-9.60
-5.89
0.37
5.62
6.98
4.07
-0.77
-4.03
-3.22
1.55
7.54
10.95
9.47
3.53
-3.79
-8.48
-8.18
-3.52
2.36
5.54
3.85
-1.85
-8.34
-11.83
-10.24
-4.45
2.36
6.49
5.92
1.40
-4.00
-6.87
-5.37
-0.37
5.02
7.40
5.01
-1.11
-7.66
-10.93
-8.89
-2.30
5.61
10.93
11.27
6.98
0.87
-3.26
-2.94
1.70
7.97
12.14
11.60
6.47
-0.52
-5.59
-6.05
-1.98
3.85
7.69
7.03
2.03
-4.52
-8.97
-9.12
-5.41
-0.66
1.66
-0.23
-5.42
-10.81
-12.99
-10.29
-3.90
2.85
6.40
5.07
-0.04
-5.51
-7.73
-4.96
1.75
9.04
13.16
12.07
6.52
-0.48
-5.34
-5.90
-2.67
1.70
4.11
2.87
-1.26
-5.62
-7.28
-4.88
0.45
5.76
7.94
5.61
-0.04
-6.00
-9.07
-7.82
-3.27
1.64
3.88
2.07
-2.72
-7.52
-9.34
-6.86
-1.25
4.39
6.86
4.78
-0.57
-5.97
-7.97
-4.94
1.94
9.37
13.77
13.23
8.63
3.03
-0.20
0.73
4.92
9.40
10.94
8.02
1.78
-4.57
-7.62
-5.77
-0.18
5.86
8.84
6.94
1.23
-5.09
-8.57
-7.53
-2.96
2.14
4.59
3.00
-1.58
-6.26
-8.28
-6.55
-2.42
1.20
1.60
-2.01
-7.93
-12.90
-13.89
-9.94
-2.72
4.29
7.74
6.28
1.26
-3.96
-6.06
-3.59
2.11
7.64
9.66
6.81
0.49
-5.83
-8.59
-6.38
-0.45
5.83
9.06
7.81
3.37
-1.15
-2.67
-0.09
5.03
9.41
10.01
5.94
-1.01
-7.36
-9.96
-7.81
-2.57
2.30
3.74
0.78
-4.87
-9.82
-11.11
-7.94
-2.17
2.68
3.58
-0.02
-5.98
-10.59
-10.79
-6.02
1.43
7.79
9.90
7.03
1.29
-3.80
-5.30
-2.40
3.14
8.08
9.66
7.11
1.99
-2.60
-4.04
-1.59
3.19
7.17
7.65
4.05
-1.69
-6.11
-6.19
-1.20
6.66
13.45
15.64
12.04
4.55
-2.96
-6.85
-5.53
-0.37
5.24
7.95
6.23
1.23
-4.04
-6.66
-5.54
-1.99
0.99
0.75
-3.26
-9.14
-13.50
-13.51
-8.78
-1.59
4.33
5.85
2.51
-3.33
-7.92
-8.28
-3.84
3.02
8.55
9.77
6.08
-0.36
-5.79
-7.16
-3.74
2.55
8.13
9.93
7.06
1.32
-3.88
-5.43
-2.40
3.34
8.14
8.72
4.10
-3.54
-10.10
-11.84
-7.56
0.64
8.49
12.05
9.96
4.14
-1.46
-3.33
-0.42
5.12
9.35
8.98
3.45
-4.69
-11.24
-12.82
-8.89
-2.08
3.36
4.08
-0.38
-7.25
-12.30
-12.27
-6.81
1.27
7.65
9.12
5.15
-1.77
-7.64
-9.38
-6.34
-0.67
4.01
4.77
1.01
-5.21
-10.28
-11.13
-7.04
-0.04
6.25
8.66
6.36
1.32
-3.00
-3.70
-0.32
4.93
8.55
7.96
3.19
-3.08
-7.04
-6.10
-0.43
7.00
12.01
11.79
6.39
-1.18
-6.72
-7.29
-2.72
4.26
9.66
10.68
7.04
1.07
-3.77
-5.00
-2.41
2.01
5.26
5.27
2.09
-2.25
-4.84
-3.66
1.12
7.20
11.25
10.69
5.33
-2.56
-9.34
-11.86
-9.28
-3.50
1.97
3.97
1.49
-3.67
-8.15
-9.09
-5.73
-0.06
4.44
5.02
1.23
-4.69
-9.08
-9.21
-4.86
1.66
6.70
7.55
3.98
-1.67
-5.91
-6.04
-1.72
4.78
10.07
11.33
8.08
2.29
-2.80
-4.58
-2.60
1.17
3.69
2.71
-1.75
-7.27
-10.58
-9.53
-4.52
1.69
5.51
4.78
-0.04
-6.06
-9.58
-8.35
-2.87
3.90
8.24
7.63
2.33
-4.91
-10.38
-11.42
-7.83
-1.92
2.98
4.48
2.44
-1.00
-2.72
-0.71
4.69
10.80
14.09
12.29
5.86
-2.16
-7.81
-8.30
-3.72
3.07
8.04
8.31
3.69
-3.19
-8.54
-9.60
-6.24
-0.87
3.20
3.59
0.51
-3.61
-5.69
-3.88
1.18
6.71
9.38
7.43
1.73
-4.63
-7.94
-6.21
-0.24
6.74
10.92
9.86
4.08
-3.43
-8.87
-9.65
-5.87
-0.04
4.50
5.53
3.06
-0.74
-3.04
-2.10
1.70
6.17
8.66
7.55
3.32
-1.76
-4.96
-4.62
-1.18
2.98
4.92
2.89
-2.61
-8.97
-12.81
-11.94
-6.62
0.46
5.73
6.70
3.40
-1.61
-4.93
-4.27
0.19
5.82
9.19
8.15
3.08
-3.38
-7.70
-7.48
-2.88
3.64
8.64
9.58
6.33
1.15
-2.79
-3.19
-0.03
4.41
7.01
5.77
1.10
-4.33
-7.20
-5.58
-0.33
5.44
8.09
5.69
-0.75
-7.74
-11.41
-9.76
-3.82
2.91
6.47
4.81
-1.06
-7.65
-11.02
-9.12
-3.05
3.76
7.48
6.17
0.92
-4.86
-7.57
-5.36
0.70
7.32
10.92
9.62
4.26
-2.01
-5.64
-4.74
-0.09
5.23
7.73
5.53
-0.49
-7.19
-10.87
-9.58
-4.13
2.40
6.45
6.10
2.13
-2.65
-5.06
-3.44
1.38
6.66
9.45
8.16
3.60
-1.52
-4.30
-3.15
1.09
5.57
7.18
4.28
-2.23
-9.21
-13.07
-11.84
-6.32
0.34
4.43
3.80
-0.96
-7.01
-10.85
-10.37
-6.03
-0.38
3.44
3.51
0.37
-3.47
-4.99
-2.56
2.96
8.64
11.19
8.96
3.06
-3.11
-5.92
-3.49
2.98
9.84
13.10
10.72
3.80
-4.11
-8.90
-8.29
-3.09
3.43
7.39
6.51
1.42
-4.87
-8.72
-7.89
-3.06
2.75
5.97
4.57
-0.63
-6.51
-9.55
-8.00
-2.95
2.56
5.15
3.35
-1.66
-6.80
-8.97
-6.69
-1.08
5.00
8.46
7.74
3.63
-1.20
-3.69
-2.14
2.84
8.54
11.70
10.34
5.14
-0.92
-4.28
-2.93
2.19
7.61
9.50
5.84
-2.02
-10.21
-14.46
-12.71
-6.24
1.11
5.15
3.79
-1.91
-8.29
-11.39
-9.16
-2.54
5.10
9.91
9.69
5.03
-1.09
-5.14
-4.94
-0.99
3.88
6.36
4.51
-0.85
-6.59
-9.16
-6.75
-0.48
6.17
9.42
7.47
1.59
-4.61
-7.35
-4.85
1.62
8.49
12.02
10.56
5.15
-0.87
-4.03
-2.76
1.87
6.82
8.90
6.64
1.21
-4.38
-7.08
-5.54
-1.03
3.37
4.66
1.72
-3.97
-9.10
-10.52
-7.20
-0.80
5.05
6.85
3.16
-4.41
-11.99
-15.62
-13.35
-6.27
2.03
7.49
7.98
4.15
-0.97
-3.81
-2.55
2.05
7.11
9.37
7.11
1.32
-5.09
-8.86
-8.19
-3.79
1.54
4.58
3.59
-0.84
-5.95
-8.44
-6.48
-0.73
5.93
9.98
9.35
4.57
-1.45
-5.15
-4.37
0.43
6.39
9.93
8.97
4.06
-2.03
-5.85
-5.56
-1.83
2.58
4.54
2.51
-2.49
-7.50
-9.47
-6.95
-0.95
5.54
9.36
8.94
5.03
0.10
-3.00
-2.89
-0.27
2.51
2.91
-0.21
-5.77
-10.96
-12.81
-9.89
-3.19
4.37
9.37
9.77
5.96
0.42
-3.60
-3.96
-0.68
4.04
7.21
6.80
2.97
-1.91
-4.76
-3.62
0.94
6.12
8.50
6.18
0.16
-6.17
-8.98
-6.38
0.30
7.26
10.36
7.64
0.39
-7.52
-11.90
-10.59
-4.62
2.57
7.06
6.70
2.24
-3.15
-5.88
-3.90
2.01
8.65
12.33
10.93
5.10
-2.12
-7.04
-7.49
-4.06
0.41
2.64
0.90
-3.89
-8.74
-10.52
-7.84
-2.00
3.70
6.00
3.50
-2.39
-8.28
-10.65
-7.92
-1.44
5.34
8.81
7.20
1.64
-4.44
-7.47
-5.62
-0.03
5.96
8.73
6.65
1.02
-4.69
-6.86
-3.99
2.41
8.72
11.28
8.53
1.87
-5.12
-8.91
-7.74
-2.70
3.08
6.28
5.25
0.89
-3.98
-6.29
-4.60
0.04
4.69
6.26
3.35
-2.81
-8.88
-11.38
-8.52
-1.36
6.75
11.94
11.96
7.28
0.74
-4.14
-5.23
-2.89
0.50
2.01
0.16
-4.32
-8.68
-10.01
-6.93
-0.51
6.22
10.02
9.26
4.81
-0.52
-3.63
-2.96
0.64
4.43
5.53
2.78
-2.52
-7.24
-8.34
-4.72
1.97
8.30
10.93
8.59
2.64
-3.68
-7.17
-6.42
-2.42
2.22
4.74
3.98
0.71
-2.78
-4.04
-1.95
2.56
7.09
8.83
6.34
0.45
-6.13
-10.24
-10.04
-6.03
-0.79
2.51
2.12
-1.34
-5.23
-6.55
-3.75
2.11
8.02
10.72
8.55
2.54
-4.20
-8.16
-7.54
-3.09
2.24
5.05
3.55
-1.41
-6.85
-9.39
-7.28
-1.56
4.65
7.87
6.32
1.00
-4.95
-8.07
-6.64
-1.61
3.99
6.80
5.17
0.04
-5.52
-8.19
-6.21
-0.46
5.96
9.59
8.41
3.13
-3.30
-7.24
-6.53
-1.68
4.42
8.18
7.38
2.49
-3.59
-7.24
-6.23
-1.00
5.60
9.94
9.68
5.12
-1.13
-5.63
-6.23
-3.25
0.86
3.00
1.59
-2.62
-6.74
-7.73
-4.24
2.42
8.82
11.41
8.48
1.31
-6.60
-11.38
-10.95
-6.10
0.01
3.71
2.97
-1.56
-6.93
-9.72
-8.07
-2.78
3.11
6.17
4.70
-0.27
-5.50
-7.40
-4.34
2.44
9.45
12.87
10.84
4.48
-2.66
-6.67
-5.47
0.05
6.64
10.56
9.76
5.04
-0.62
-3.85
-2.98
1.01
5.17
6.41
3.44
-2.39
-7.88
-9.86
-7.01
-0.69
5.91
9.53
8.60
4.09
-1.11
-3.80
-2.39
2.31
7.54
10.18
8.49
3.19
-2.96
-6.79
-6.56
-2.94
1.41
3.38
1.35
-3.82
-9.28
-11.74
-9.50
-3.41
3.51
7.84
7.66
3.69
-1.27
-3.97
-2.67
1.89
6.92
9.36
7.73
2.95
-2.11
-4.46
-2.79
1.78
6.26
7.61
4.48
-1.90
-8.44
-11.65
-9.77
-3.77
3.09
6.92
5.28
-1.26
-9.40
-14.92
-14.96
-9.58
-1.79
4.21
5.52
2.04
-3.55
-7.37
-6.80
-1.82
4.97
9.89
10.47
6.73
1.18
-2.83
-3.04
0.35
4.83
7.05
4.93
-1.09
-8.18
-12.56
-11.83
-6.29
1.06
6.30
6.58
2.01
-4.55
-9.19
-9.15
-4.43
2.22
6.93
7.14
3.01
-2.71
-6.27
-5.46
-0.70
5.12
8.47
7.43
2.77
-2.56
-5.23
-3.47
1.87
7.88
11.22
10.04
4.95
-1.38
-5.63
-5.71
-1.79
3.86
8.16
8.84
5.82
1.12
-2.38
-2.82
-0.38
2.59
3.18
-0.12
-6.33
-12.32
-14.57
-11.40
-4.08
3.74
7.98
6.47
0.24
-7.00
-10.98
-9.23
-2.44
5.94
11.70
12.16
7.65
1.12
-3.66
-4.24
-0.92
3.67
6.26
4.97
0.51
-4.22
-5.97
-3.15
3.21
9.85
13.14
11.17
4.86
-2.61
-7.48
-7.54
-3.40
1.99
5.06
3.63
-1.78
-8.22
-12.05
-11.04
-5.67
1.15
5.61
5.26
0.41
-6.14
-10.55
-10.20
-5.22
1.65
6.66
7.15
3.11
-2.83
-6.96
-6.75
-2.24
3.95
8.19
7.93
3.28
-3.27
-8.15
-8.75
-5.00
0.77
5.17
5.71
2.23
-2.98
-6.58
-6.19
-1.83
4.18
8.44
8.55
4.62
-0.94
-4.81
-4.77
-1.04
3.87
6.69
5.48
0.78
-4.65
-7.46
-5.76
-0.28
6.05
9.69
8.56
3.32
-3.05
-6.93
-6.09
-1.09
5.00
8.47
7.00
1.16
-5.87
-10.09
-8.99
-3.11
4.33
9.17
8.64
3.09
-4.29
-9.29
-9.11
-3.87
3.39
8.56
8.74
3.85
-3.37
-8.93
-9.80
-5.69
0.97
6.39
7.64
4.37
-1.08
-5.15
-5.22
-1.15
4.52
8.31
7.81
3.26
-2.57
-6.03
-4.74
0.83
7.58
11.52
10.10
3.69
-4.51
-10.19
-10.38
-5.01
3.09
9.81
12.02
9.23
3.68
-1.18
-2.68
-0.50
3.34
5.72
4.43
-0.50
-6.73
-10.90
-10.63
-5.95
0.62
5.37
5.46
0.64
-6.62
-12.46
-13.80
-10.18
-3.93
1.10
2.00
-1.55
-7.10
-10.85
-9.97
-4.37
3.22
8.81
9.42
4.86
-2.11
-7.39
-7.86
-3.19
4.00
9.69
10.75
6.80
0.32
-4.82
-5.63
-1.75
4.48
9.41
10.18
6.47
0.57
-3.99
-4.48
-0.61
5.37
9.87
10.21
6.09
-0.16
-5.01
-5.75
-2.13
3.55
7.82
8.07
4.17
-1.54
-5.66
-5.72
-1.67
4.04
7.91
7.39
2.38
-4.73
-10.33
-11.64
-8.26
-2.38
2.54
3.70
0.64
-4.60
-8.72
-9.17
-5.70
-0.43
3.30
3.11
-1.17
-7.22
-11.58
-11.71
-7.28
-0.42
5.55
7.95
6.30
2.50
-0.39
-0.03
3.79
8.86
11.90
10.56
4.92
-2.47
-7.86
-8.43
-3.89
3.33
9.45
11.25
7.93
1.39
-4.82
-7.53
-5.55
-0.26
5.21
7.82
6.26
1.66
-3.16
-5.36
-3.85
0.07
3.44
3.47
-0.68
-7.31
-12.97
-14.53
-10.99
-4.18
2.19
4.66
2.08
-3.68
-8.93
-10.24
-6.52
0.39
6.82
9.44
7.19
1.86
-3.11
-4.57
-1.53
4.44
10.08
12.41
10.34
5.18
-0.06
-2.52
-1.07
3.14
7.27
8.52
5.75
0.24
-5.04
-7.08
-4.59
1.23
7.19
9.95
7.90
2.17
-4.09
-7.36
-6.00
-1.14
3.90
5.56
2.19
-4.86
-12.09
-15.81
-14.44
-9.31
-3.90
-1.55
-3.47
-8.06
-11.87
-11.80
-7.02
0.55
7.30
10.01
7.72
2.22
-3.02
-4.82
-2.08
3.56
8.67
10.14
6.98
1.00
-4.25
-5.56
-2.16
3.95
9.03
9.90
5.90
-0.78
-6.23
-7.25
-3.22
3.60
9.35
10.82
7.40
1.34
-3.52
-4.10
0.04
6.47
11.18
10.97
5.33
-3.22
-10.48
-12.85
-9.35
-2.08
4.94
8.11
6.17
0.61
-5.20
-8.08
-6.82
-2.63
1.61
3.15
1.00
-3.60
-7.86
-9.16
-6.57
-1.60
2.81
3.91
0.85
-4.66
-9.24
-9.91
-5.71
1.55
8.16
10.77
8.23
2.28
-3.50
-5.72
-3.22
2.41
7.81
9.91
7.69
2.76
-1.76
-3.06
-0.34
4.72
8.93
9.47
5.55
-1.15
-7.32
-9.90
-7.79
-2.42
3.03
5.44
3.52
-1.49
-6.48
-8.38
-5.94
-0.54
4.57
6.28
3.38
-2.63
-8.33
-10.47
-7.76
-1.72
4.19
6.64
4.34
-1.20
-6.57
-8.50
-5.73
0.27
6.24
8.99
7.33
2.56
-2.27
-4.18
-1.99
3.01
7.88
9.76
7.44
2.21
-3.00
-5.23
-3.13
2.20
7.70
10.26
8.36
2.92
-3.13
-6.72
-6.23
-2.42
2.10
4.40
3.11
-0.96
-5.23
-6.86
-4.59
0.57
5.78
8.07
5.98
0.65
-4.92
-7.55
-5.73
-0.67
4.43
6.33
3.70
-2.04
-7.46
-9.30
-6.32
0.01
6.24
9.03
6.98
1.39
-4.56
-7.56
-6.12
-1.36
3.71
5.86
3.58
-2.02
-7.83
-10.57
-8.63
-3.09
2.92
6.11
4.83
0.12
-4.93
-7.03
-4.65
1.19
7.41
10.68
9.36
4.31
-1.59
-5.08
-4.36
0.03
5.57
9.16
8.96
5.20
0.06
-3.61
-3.98
-1.27
2.49
4.57
3.19
-1.42
-7.07
-10.94
-10.99
-7.26
-1.70
2.88
4.42
2.70
-0.56
-2.90
-2.67
0.00
3.24
4.59
2.63
-2.03
-7.02
-9.54
-8.04
-3.37
1.69
3.95
1.88
-3.41
-8.72
-10.65
-7.72
-1.23
5.45
8.75
7.11
1.81
-3.89
-6.57
-4.69
0.54
5.96
8.33
6.12
0.56
-5.07
-7.38
-4.76
1.62
8.39
11.81
9.84
3.50
-3.87
-8.28
-7.44
-2.02
4.83
9.22
8.87
4.35
-1.38
-4.72
-3.66
1.11
6.66
9.46
7.52
1.64
-5.21
-9.37
-8.65
-3.56
2.99
7.40
7.20
2.61
-3.73
-8.30
-8.71
-5.08
0.08
3.46
2.87
-1.27
-6.34
-9.01
-7.25
-1.62
5.04
9.26
8.93
4.51
-1.22
-4.71
-3.70
1.52
8.23
12.82
12.88
8.59
2.54
-1.74
-1.89
1.84
6.73
9.32
7.35
1.29
-5.93
-10.58
-10.34
-5.52
1.01
5.50
5.45
1.07
-4.93
-8.84
-8.12
-2.85
4.12
8.79
8.30
2.53
-5.74
-12.29
-13.85
-9.89
-2.89
3.18
5.09
2.21
-3.29
-7.80
-8.57
-5.28
-0.14
3.45
3.07
-1.20
-6.80
-10.13
-8.74
-2.75
5.12
10.96
11.94
7.88
1.24
-4.18
-5.49
-2.23
3.40
7.83
8.26
4.25
-2.06
-7.17
-8.27
-4.87
0.96
5.76
6.73
3.34
-2.39
-7.18
-8.34
-5.44
-0.57
2.96
2.59
-1.80
-7.87
-12.02
-11.67
-6.82
-0.06
4.83
5.25
1.31
-4.22
-7.61
-6.43
-1.03
5.58
9.63
8.80
3.63
-2.80
-6.68
-5.59
0.13
7.63
13.10
13.87
9.76
3.10
-2.59
-4.46
-1.75
3.79
9.05
11.19
9.28
4.68
0.31
-1.18
1.04
5.35
8.65
8.23
3.51
-3.44
-9.00
-10.10
-6.06
0.94
7.01
8.80
5.43
-1.07
-6.98
-8.94
-5.99
-0.10
4.99
5.97
1.91
-5.11
-11.15
-12.79
-9.07
-2.22
3.73
5.25
1.52
-5.11
-10.57
-11.45
-7.04
0.20
6.16
7.65
4.10
-2.14
-7.13
-7.80
-3.60
3.28
9.13
10.85
7.78
1.82
-3.59
-5.45
-2.93
2.21
6.68
7.68
4.45
-1.21
-5.91
-6.89
-3.48
2.37
7.17
8.08
4.50
-1.52
-6.50
-7.52
-3.96
2.12
7.16
8.29
4.81
-1.33
-6.66
-8.39
-5.81
-0.71
3.68
4.65
1.61
-3.63
-7.91
-8.54
-4.82
1.52
7.23
9.49
7.38
2.38
-2.41
-4.25
-2.24
2.11
5.75
6.03
2.32
-3.54
-8.29
-9.14
-5.57
0.40
5.32
6.41
3.11
-2.51
-6.99
-7.58
-3.68
2.80
8.42
10.32
7.68
2.19
-2.97
-4.92
-2.73
1.99
6.07
6.61
2.77
-3.66
-9.13
-10.47
-6.71
0.30
6.76
9.28
6.63
0.48
-5.71
-8.62
-7.00
-2.26
2.48
4.30
2.08
-2.80
-7.30
-8.59
-5.60
0.36
6.18
8.80
6.88
1.67
-3.83
-6.44
-4.70
0.32
5.66
8.27
6.82
2.39
-2.13
-3.94
-1.95
2.59
6.70
7.68
4.56
-1.14
-6.30
-7.99
-5.14
0.73
6.31
8.47
5.97
0.17
-5.61
-8.19
-6.26
-1.20
3.74
5.40
2.62
-3.06
-8.27
-9.79
-6.47
0.10
6.33
8.75
5.97
-0.61
-7.44
-10.88
-9.07
-3.05
3.95
8.22
7.71
3.15
-2.50
-5.84
-4.99
-0.76
3.83
5.51
2.76
-3.29
-9.24
-11.51
-8.34
-0.85
7.46
12.59
12.32
7.32
0.77
-3.45
-3.02
1.64
7.55
11.02
9.79
4.39
-2.25
-6.56
-6.31
-2.08
3.36
6.67
5.84
1.43
-3.85
-6.86
-5.88
-1.57
3.24
5.32
3.09
-2.53
-8.51
-11.33
-9.19
-3.09
3.75
7.51
6.15
0.59
-5.90
-9.59
-8.46
-3.39
2.35
5.16
3.18
-2.62
-8.93
-12.00
-9.77
-3.00
5.02
10.45
10.85
6.53
0.39
-3.79
-3.55
0.94
6.95
10.73
9.87
4.75
-1.72
-5.77
-5.13
-0.44
5.22
8.09
6.24
0.65
-5.32
-8.12
-6.11
-0.62
4.88
6.97
4.35
-1.43
-6.83
-8.51
-5.39
0.77
6.28
7.68
3.79
-3.52
-10.44
-13.21
-10.27
-3.08
4.69
9.22
8.60
3.79
-2.04
-5.40
-4.49
-0.09
4.87
7.09
4.95
-0.51
-6.20
-8.66
-6.33
-0.46
5.48
7.90
5.14
-1.37
-7.92
-10.75
-8.10
-1.31
5.94
9.73
8.07
2.00
-5.10
-9.37
-8.64
-3.51
3.07
7.46
7.46
3.43
-1.98
-5.47
-5.19
-1.80
1.97
2.97
-0.14
-5.98
-11.14
-12.14
-7.59
0.81
9.14
13.43
11.76
5.41
-1.83
-5.93
-4.70
1.05
8.12
12.73
12.74
8.63
3.09
-0.65
-0.75
2.30
6.01
7.50
5.35
0.42
-4.67
-7.02
-5.30
-0.49
4.67
7.09
5.19
-0.21
-6.30
-9.77
-8.65
-3.44
3.04
7.36
7.21
2.73
-3.48
-7.97
-8.43
-4.92
0.18
3.48
2.87
-1.40
-6.77
-9.83
-8.49
-3.19
3.25
7.30
6.77
2.13
-3.67
-7.01
-5.68
-0.17
6.52
10.63
9.85
4.54
-2.37
-7.07
-7.00
-2.30
4.33
9.25
9.82
5.91
-0.08
-4.78
-5.73
-2.87
1.49
4.17
3.08
-1.49
-6.93
-9.87
-8.29
-2.79
3.69
7.58
6.66
1.44
-5.20
-9.70
-9.84
-5.97
-0.83
2.21
1.09
-3.76
-9.50
-12.60
-10.82
-4.61
3.06
8.37
8.66
4.04
-2.68
-7.64
-8.03
-3.78
2.44
6.84
6.78
2.24
-4.05
-8.26
-7.63
-2.19
5.35
10.99
11.76
7.37
0.36
-5.39
-6.74
-3.07
3.41
9.05
10.79
7.89
2.22
-2.81
-4.24
-1.27
4.28
9.20
10.63
7.86
2.67
-1.76
-2.71
0.49
5.90
10.17
10.56
6.46
-0.14
-5.75
-7.40
-4.36
1.51
6.81
8.57
5.97
0.76
-3.96
-5.58
-3.57
0.17
2.59
1.45
-3.28
-9.13
-12.70
-11.62
-6.14
0.84
5.43
4.91
-0.64
-8.41
-14.36
-15.54
-11.64
-5.07
0.48
2.25
-0.14
-4.54
-7.53
-6.56
-1.42
5.64
11.14
12.24
8.52
2.16
-3.29
-4.83
-1.83
3.62
7.97
8.33
4.12
-2.41
-7.55
-8.25
-3.87
3.34
9.49
11.25
7.75
0.92
-5.53
-8.25
-6.21
-1.09
3.78
5.38
2.87
-2.00
-5.97
-6.22
-2.10
4.41
9.76
10.91
7.11
0.28
-5.88
-8.15
-5.48
0.42
6.08
8.37
6.26
1.54
-2.43
-2.83
0.83
6.27
9.77
8.50
2.34
-5.92
-12.13
-13.17
-8.70
-1.37
4.80
6.64
3.58
-2.20
-7.11
-8.25
-4.99
0.70
5.54
6.83
4.02
-1.05
-5.17
-5.79
-2.56
2.44
5.87
5.15
0.10
-6.77
-11.72
-11.81
-6.70
1.10
7.63
9.69
6.68
0.81
-4.05
-4.77
-0.74
5.82
11.02
11.73
7.27
-0.07
-6.34
-8.18
-4.76
1.73
7.35
8.70
4.87
-1.96
-7.89
-9.49
-5.88
0.69
6.13
6.95
2.31
-5.45
-12.12
-14.19
-10.78
-4.13
1.86
3.90
1.36
-3.70
-7.70
-7.76
-3.52
2.80
7.64
8.17
4.04
-2.47
-7.66
-8.58
-4.65
1.91
7.43
8.85
5.53
-0.41
-5.35
-6.31
-2.61
3.74
9.28
11.13
8.49
3.10
-1.83
-3.58
-1.31
3.35
7.41
8.18
4.94
-0.69
-5.60
-6.98
-4.02
1.54
6.43
7.65
4.24
-2.10
-7.99
-10.32
-7.92
-2.22
3.59
6.36
4.78
0.10
-4.59
-6.16
-3.18
3.14
9.57
12.78
11.09
5.58
-0.65
-4.27
-3.62
0.37
4.79
6.50
4.06
-1.42
-6.86
-9.13
-6.85
-1.29
4.33
6.64
4.21
-1.60
-7.35
-9.53
-6.61
0.01
6.57
9.35
6.73
0.32
-6.06
-8.57
-5.82
0.32
5.84
6.95
2.46
-5.49
-12.57
-14.82
-10.89
-2.88
4.89
8.40
6.15
-0.02
-6.10
-8.26
-5.14
1.46
7.60
9.60
6.17
-0.83
-7.46
-10.00
-7.03
-0.24
6.50
9.55
7.54
2.05
-3.34
-5.25
-2.58
2.95
7.83
8.81
4.91
-2.07
-8.55
-11.33
-9.25
-3.87
1.41
3.39
0.94
-4.53
-9.72
-11.32
-7.98
-0.84
6.90
11.81
12.10
8.53
3.86
1.12
1.89
5.41
9.09
10.18
7.54
2.27
-2.79
-4.80
-2.71
2.09
6.55
7.63
4.20
-2.26
-8.41
-10.98
-8.59
-2.55
3.81
6.97
5.42
0.26
-5.29
-7.74
-5.53
0.17
6.15
8.92
6.87
1.17
-4.86
-7.82
-6.31
-1.69
2.65
3.49
-0.22
-6.63
-12.00
-13.01
-8.76
-1.33
5.24
7.35
3.87
-3.26
-10.18
-13.23
-10.92
-4.71
1.99
5.76
5.11
1.13
-3.16
-4.72
-2.23
3.09
8.27
10.34
8.15
2.98
-2.07
-3.97
-1.57
3.72
8.72
10.34
7.33
1.07
-5.13
-8.01
-6.15
-0.76
4.90
7.50
5.48
-0.01
-5.84
-8.72
-7.04
-1.91
3.63
6.36
4.87
0.31
-4.20
-5.53
-2.42
3.78
9.73
12.07
9.46
3.27
-3.13
-6.29
-4.59
0.83
6.74
9.74
8.19
2.98
-2.82
-5.87
-4.48
0.57
6.32
9.40
7.92
2.59
-3.78
-7.91
-7.91
-4.43
-0.18
1.69
-0.27
-5.03
-9.53
-10.55
-6.77
0.36
7.36
10.58
8.42
2.24
-4.37
-7.72
-6.12
-0.72
5.03
7.51
5.07
-1.15
-7.76
-11.14
-9.59
-4.21
1.75
4.79
3.22
-1.88
-7.40
-10.08
-8.45
-3.70
1.08
2.75
0.04
-5.69
-11.19
-13.22
-10.51
-4.46
1.70
4.76
3.36
-1.21
-5.92
-7.74
-5.50
-0.39
4.69
6.99
5.57
1.75
-1.62
-1.90
1.67
7.48
12.41
13.67
10.38
4.14
-1.82
-4.43
-2.53
2.51
7.53
9.38
6.73
0.67
-5.74
-9.36
-8.56
-4.14
1.19
4.45
4.00
0.47
-3.72
-5.84
-4.48
-0.38
4.07
6.23
4.92
1.00
-2.91
-4.17
-1.57
3.88
9.42
12.15
10.68
5.93
0.67
-2.04
-0.63
4.05
9.13
11.38
9.19
3.37
-2.96
-6.38
-5.15
-0.23
5.16
7.47
4.87
-1.56
-8.50
-12.21
-10.63
-4.63
2.62
7.31
7.29
3.06
-2.46
-5.78
-4.97
-0.72
4.08
6.12
3.77
-1.86
-7.48
-9.65
-6.92
-0.76
5.13
7.07
3.71
-3.26
-9.93
-12.52
-9.58
-2.81
4.01
7.21
5.32
-0.12
-5.60
-7.78
-5.40
0.06
5.31
7.18
4.53
-1.20
-6.70
-8.74
-6.13
-0.31
5.32
7.31
4.15
-2.72
-9.72
-13.06
-10.91
-4.45
2.73
6.77
5.84
1.00
-4.33
-6.56
-4.05
1.99
8.32
11.51
9.98
4.77
-1.09
-4.39
-3.56
0.52
5.01
6.90
4.62
-1.00
-7.08
-10.29
-8.66
-2.68
4.84
10.24
11.07
7.41
1.76
-2.42
-2.61
1.17
6.43
9.82
8.95
3.94
-2.59
-7.17
-7.54
-3.93
0.93
3.60
2.01
-3.29
-9.36
-12.59
-10.95
-5.12
1.67
5.60
4.39
-1.33
-8.29
-12.50
-11.48
-5.64
1.85
6.97
7.16
2.69
-3.44
-7.32
-6.35
-0.80
6.35
11.23
11.28
6.67
0.21
-4.36
-4.62
-0.77
4.41
7.28
5.49
-0.56
-7.88
-12.50
-11.87
-6.22
1.49
7.19
8.15
4.46
-1.07
-4.64
-3.73
1.39
7.76
11.68
10.81
5.66
-0.75
-4.70
-3.90
1.21
7.69
11.87
11.46
6.74
0.42
-4.03
-4.42
-1.13
3.25
5.38
3.28
-2.36
-8.55
-11.68
-9.69
-3.32
4.16
8.75
8.04
2.54
-4.63
-9.44
-9.28
-4.40
2.33
7.16
7.55
3.68
-1.77
-5.28
-4.64
-0.21
5.25
8.27
6.77
1.36
-5.01
-8.66
-7.40
-1.89
4.91
9.28
8.94
4.33
-1.71
-5.67
-5.41
-1.34
3.85
6.85
5.73
1.10
-4.34
-7.23
-5.72
-0.59
5.08
7.67
5.17
-1.54
-9.05
-13.33
-12.08
-6.14
1.00
5.13
3.84
-2.04
-9.06
-13.14
-12.04
-6.62
-0.21
3.52
2.74
-1.45
-5.85
-7.09
-3.72
2.88
9.30
12.02
9.43
2.84
-4.30
-8.19
-6.87
-1.14
5.89
10.52
10.50
6.16
0.18
-4.03
-4.24
-0.59
4.50
7.76
7.16
3.01
-2.17
-5.08
-3.66
1.55
7.49
10.37
7.82
0.48
-8.25
-14.01
-14.00
-8.59
-1.01
4.52
5.26
1.48
-3.80
-6.81
-5.35
-0.11
5.77
8.63
6.50
0.44
-6.16
-9.45
-7.35
-0.79
6.77
11.23
10.22
4.34
-3.14
-8.16
-8.16
-3.48
2.96
7.35
7.21
2.77
-3.24
-7.29
-7.08
-2.87
2.76
6.42
5.94
1.56
-4.26
-8.27
-8.29
-4.41
1.14
5.40
6.28
3.81
0.02
-2.37
-1.55
2.20
6.62
8.74
6.74
1.04
-5.72
-10.08
-9.74
-4.86
2.01
7.25
8.20
4.68
-1.01
-5.35
-5.69
-1.77
4.13
8.47
8.55
3.98
-3.04
-8.88
-10.63
-7.66
-1.91
3.15
4.61
1.76
-3.57
-8.06
-8.91
-5.46
0.46
5.61
7.25
4.80
0.11
-3.63
-3.85
-0.22
5.18
9.07
8.97
4.74
-1.32
-5.88
-6.49
-3.03
2.17
5.84
5.52
1.09
-5.15
-9.68
-9.80
-5.10
2.20
8.36
10.24
7.04
0.77
-4.81
-6.30
-2.79
3.77
9.57
11.12
7.38
0.29
-6.34
-8.98
-6.49
-0.73
4.56
6.03
2.59
-3.85
-9.60
-11.26
-7.88
-1.42
4.39
6.22
3.18
-2.55
-7.14
-7.43
-2.82
4.13
9.38
9.76
5.04
-2.04
-7.34
-7.78
-3.23
3.50
8.35
8.46
3.83
-2.63
-6.97
-6.49
-1.27
5.91
11.24
12.10
8.49
2.90
-1.19
-1.32
2.49
7.88
11.47
10.82
5.83
-1.17
-6.76
-8.30
-5.43
-0.25
3.92
4.34
0.48
-5.80
-11.29
-13.26
-11.00
-6.15
-1.69
-0.25
-2.53
-6.88
-10.24
-10.01
-5.58
1.13
6.65
8.00
4.52
-1.69
-6.78
-7.40
-2.74
4.85
11.18
12.50
7.75
-0.79
-8.76
-12.18
-9.66
-3.11
3.50
6.46
4.46
-0.81
-5.69
-6.84
-3.20
3.39
9.32
11.26
8.32
2.41
-2.89
-4.42
-1.38
4.16
8.61
9.00
4.72
-2.07
-7.67
-9.07
-5.70
0.34
5.58
7.12
4.41
-0.65
-4.86
-5.64
-2.50
2.74
7.07
7.99
5.00
-0.09
-4.28
-5.11
-2.10
2.84
6.52
6.33
1.84
-4.76
-9.94
-10.84
-6.94
-0.44
4.96
6.23
2.83
-3.10
-7.93
-8.73
-5.04
1.03
6.03
7.11
3.82
-1.90
-6.89
-8.42
-5.92
-1.15
2.92
3.71
0.53
-4.82
-9.32
-10.30
-7.05
-1.25
3.84
5.42
2.64
-2.83
-7.67
-8.85
-5.40
1.06
7.14
9.59
7.28
1.67
-3.92
-6.15
-3.62
2.40
8.75
12.06
10.71
5.79
0.28
-2.68
-1.67
2.11
5.60
5.95
2.23
-3.80
-8.62
-9.14
-4.55
3.23
10.41
13.58
11.66
6.30
0.87
-1.42
0.54
5.28
9.77
11.01
7.95
2.09
-3.47
-5.80
-3.85
0.86
5.11
5.96
2.36
-4.09
-9.95
-12.17
-9.61
-3.81
1.72
3.80
1.32
-4.20
-9.44
-11.17
-8.30
-2.32
3.48
5.77
3.36
-2.31
-7.98
-10.30
-7.91
-2.20
3.73
6.61
5.10
0.49
-4.09
-5.53
-2.45
3.80
9.85
12.37
9.79
3.28
-3.75
-7.64
-6.53
-1.27
4.84
8.00
6.28
0.61
-5.69
-8.91
-7.33
-2.22
2.97
4.76
1.91
-3.76
-8.49
-8.99
-4.49
2.70
8.53
9.70
5.51
-1.70
-8.04
-10.25
-7.52
-1.75
3.63
5.73
3.76
-0.61
-4.36
-4.87
-1.37
4.57
10.09
12.52
10.89
6.35
1.51
-1.09
-0.43
2.55
5.49
6.09
3.46
-1.37
-6.03
-8.22
-7.05
-3.65
-0.41
0.32
-2.27
-6.80
-10.56
-11.04
-7.43
-1.24
4.55
7.11
5.37
0.67
-4.00
-5.78
-3.53
1.51
6.36
8.07
5.56
0.14
-5.06
-7.00
-4.58
0.75
5.76
7.36
4.50
-1.24
-6.58
-8.43
-5.75
-0.23
4.82
6.33
3.25
-2.84
-8.63
-10.96
-8.54
-2.59
3.86
7.61
7.20
3.48
-0.93
-3.03
-1.47
2.89
7.33
8.84
6.03
-0.08
-6.53
-10.00
-8.73
-3.46
2.92
6.99
6.78
2.85
-2.00
-4.40
-2.49
3.01
9.02
11.99
10.04
4.06
-2.73
-6.71
-6.01
-1.60
3.39
5.48
3.09
-2.62
-8.31
-10.54
-7.79
-1.36
5.42
9.04
7.90
3.11
-2.23
-4.78
-3.01
1.99
7.13
9.08
6.33
0.09
-6.46
-9.88
-8.44
-3.16
2.87
6.26
5.23
0.63
-4.65
-7.45
-6.09
-1.43
3.68
6.21
4.67
-0.07
-5.16
-7.58
-5.89
-1.01
4.22
6.63
4.54
-1.24
-7.85
-11.85
-11.16
-6.25
0.16
4.59
4.75
0.99
-4.04
-7.01
-5.77
-0.81
5.09
8.50
7.43
2.48
-3.29
-6.30
-4.47
1.45
8.28
12.24
11.07
5.45
-1.40
-5.62
-4.94
-0.01
5.92
8.99
7.05
1.02
-5.68
-9.12
-7.26
-1.21
5.45
8.81
6.86
0.74
-5.99
-9.50
-7.97
-2.53
3.29
5.78
3.23
-3.11
-9.70
-12.72
-10.24
-3.45
4.16
8.65
7.90
2.67
-3.73
-7.56
-6.65
-1.59
4.57
8.30
7.63
3.36
-1.49
-3.55
-1.22
4.28
9.60
11.28
7.90
0.87
-6.22
-9.79
-8.24
-2.78
3.22
6.29
4.73
-0.43
-6.15
-9.12
-7.66
-2.68
2.93
5.89
4.50
-0.48
-6.10
-8.95
-7.05
-0.88
6.76
12.24
13.06
9.18
2.96
-2.15
-3.58
-1.04
3.48
6.83
6.62
2.59
-3.15
-7.39
-7.84
-4.47
0.36
3.22
1.77
-3.70
-10.31
-14.18
-12.71
-6.19
2.30
8.50
9.47
5.21
-1.42
-6.39
-6.81
-2.68
3.33
7.48
7.26
2.80
-3.18
-7.01
-6.33
-1.54
4.47
7.94
6.43
0.38
-7.07
-11.75
-10.84
-4.55
4.11
10.74
12.13
7.97
0.89
-5.06
-6.76
-3.75
1.68
5.88
6.12
2.27
-3.22
-6.70
-5.62
-0.18
6.74
11.20
10.47
4.69
-3.11
-8.67
-8.97
-3.96
3.52
9.25
10.03
5.50
-1.83
-8.01
-9.79
-6.51
-0.19
5.69
8.10
6.21
1.68
-2.36
-3.20
-0.16
5.06
9.34
9.91
6.11
-0.21
-5.65
-7.18
-3.99
1.91
6.86
7.58
3.17
-4.20
-10.56
-12.38
-8.71
-1.63
4.79
7.03
4.17
-1.79
-6.99
-8.17
-4.58
1.69
6.95
8.16
4.69
-1.37
-6.56
-7.95
-4.95
0.52
5.17
6.30
3.40
-1.59
-5.45
-5.63
-1.88
3.61
7.44
7.07
2.43
-3.92
-8.22
-7.84
-2.84
3.97
8.55
8.04
2.49
-5.21
-10.93
-11.65
-7.23
-0.33
5.08
5.96
2.05
-4.15
-8.84
-9.03
-4.30
2.97
8.98
10.55
6.97
0.38
-5.42
-7.13
-3.78
2.78
8.87
11.18
8.51
2.45
-3.60
-6.47
-5.00
-0.64
3.53
4.63
1.86
-3.15
-7.25
-7.70
-3.90
2.38
7.87
9.75
7.21
1.99
-2.79
-4.42
-2.19
2.26
5.89
6.13
2.47
-3.24
-7.91
-9.00
-6.07
-0.93
3.26
4.06
1.12
-3.63
-7.09
-6.89
-2.87
2.81
6.84
6.68
1.99
-4.99
-10.67
-12.09
-8.52
-1.91
4.17
6.54
4.09
-1.49
-6.80
-8.62
-5.76
0.32
6.25
8.83
6.90
1.91
-2.80
-3.99
-0.59
5.74
11.58
13.52
10.34
3.58
-3.27
-6.72
-5.28
-0.13
5.44
8.13
6.41
1.40
-3.83
-6.09
-3.96
1.31
6.51
8.31
5.38
-0.98
-7.40
-10.47
-8.68
-3.18
2.87
6.21
5.30
1.17
-3.35
-5.21
-3.03
2.03
6.97
8.65
5.67
-0.76
-7.35
-10.58
-8.67
-2.56
4.55
9.04
8.92
4.85
-0.29
-3.19
-2.08
2.17
6.65
8.19
5.21
-1.27
-8.18
-12.15
-11.48
-6.98
-1.50
1.74
1.03
-2.81
-7.17
-9.06
-7.07
-2.21
2.70
4.81
2.87
-1.96
-6.73
-8.55
-6.27
-1.14
3.92
6.00
4.03
-0.60
-4.99
-6.29
-3.45
2.15
7.46
9.50
7.04
1.32
-4.60
-7.52
-5.90
-0.68
5.13
8.21
6.81
1.71
-4.22
-7.66
-6.83
-2.44
2.75
5.61
4.47
0.15
-4.59
-6.79
-4.94
0.06
5.36
7.86
6.12
1.11
-4.32
-7.02
-5.55
-0.84
4.31
6.75
5.01
-0.03
-5.59
-8.60
-7.37
-2.50
3.45
7.45
7.69
4.43
-0.02
-2.73
-1.86
2.36
7.69
11.13
10.73
6.77
1.63
-1.65
-1.20
2.41
6.56
8.18
5.65
-0.08
-5.87
-8.27
-5.53
1.27
8.71
12.79
11.12
4.43
-4.08
-10.27
-11.36
-7.44
-1.32
3.21
3.48
-0.64
-6.53
-10.57
-10.20
-5.45
1.06
5.58
5.55
0.98
-5.53
-10.17
-10.16
-5.32
1.80
7.50
8.91
5.72
0.36
-3.64
-3.72
0.10
5.21
8.04
6.28
0.42
-6.51
-10.68
-9.84
-4.65
1.62
5.12
3.73
-1.67
-7.69
-10.51
-8.25
-2.05
4.55
7.67
5.43
-1.02
-8.10
-11.83
-9.96
-3.19
5.29
11.51
12.90
9.47
3.85
-0.42
-0.95
2.16
6.51
8.72
6.69
0.89
-5.86
-9.97
-9.18
-4.07
2.34
6.32
5.62
0.79
-5.07
-8.25
-6.57
-0.71
6.13
10.08
8.86
2.99
-4.43
-9.51
-9.76
-5.38
0.98
5.76
6.58
3.47
-1.27
-4.49
-3.98
0.15
5.66
9.35
8.86
4.12
-2.61
-7.86
-8.91
-5.45
0.28
4.69
4.97
0.79
-5.49
-10.19
-10.40
-5.74
1.49
7.59
9.67
7.14
1.96
-2.55
-3.62
-0.65
4.49
8.53
8.74
4.54
-1.99
-7.38
-8.64
-5.12
1.00
6.15
7.39
4.23
-1.13
-5.21
-5.53
-2.07
2.72
5.46
4.07
-0.94
-6.78
-10.00
-8.48
-2.81
4.16
8.82
8.77
4.21
-2.22
-6.96
-7.47
-3.62
2.19
6.47
6.60
2.35
-3.95
-8.68
-9.05
-4.70
2.15
7.79
9.29
6.05
0.21
-4.74
-5.85
-2.47
3.37
8.14
8.90
5.07
-1.28
-6.48
-7.51
-3.81
2.49
7.63
8.51
4.57
-1.96
-7.41
-8.81
-5.51
0.31
5.11
6.03
2.51
-3.47
-8.49
-9.77
-6.70
-1.06
3.81
5.18
2.25
-3.25
-8.17
-9.66
-6.78
-1.10
4.26
6.30
3.95
-1.40
-6.53
-8.43
-5.85
-0.02
6.00
9.17
8.11
3.90
-0.66
-2.76
-1.28
2.58
6.07
6.61
3.51
-1.59
-5.55
-5.74
-1.65
4.70
9.78
10.58
6.41
-0.65
-6.93
-9.14
-6.27
-0.17
5.59
7.71
5.05
-0.84
-6.65
-9.22
-7.31
-2.31
2.75
4.91
3.06
-1.49
-5.75
-6.92
-4.07
1.43
6.60
8.62
6.56
1.82
-2.59
-3.76
-0.70
5.09
10.44
12.26
9.36
3.17
-3.00
-5.90
-4.07
1.15
6.45
8.39
5.42
-1.22
-8.19
-11.90
-10.61
-5.32
0.91
4.69
4.27
0.46
-3.99
-6.07
-4.38
0.17
4.83
6.62
4.28
-1.18
-6.95
-10.01
-8.95
-4.77
-0.17
1.96
0.29
-4.12
-8.46
-9.86
-7.04
-1.13
4.90
7.92
6.55
1.81
-3.35
-5.72
-3.83
1.33
6.80
9.33
7.32
1.76
-4.34
-7.71
-6.67
-2.17
2.92
5.43
3.94
-0.50
-4.92
-6.30
-3.40
2.45
8.11
10.46
8.20
2.67
-3.01
-5.69
-3.93
1.20
6.81
9.78
8.62
4.04
-1.32
-4.48
-3.88
-0.12
4.27
6.22
4.02
-1.66
-8.07
-11.80
-10.71
-5.27
1.66
6.42
6.64
2.50
-3.23
-7.08
-6.81
-2.74
2.49
5.66
4.97
1.07
-3.40
-5.43
-3.60
1.10
5.79
7.48
4.87
-0.90
-6.74
-9.43
-7.50
-1.98
4.19
7.73
6.95
2.68
-2.25
-4.60
-2.58
3.07
9.39
12.91
11.57
5.89
-1.24
-6.32
-7.24
-4.37
-0.22
2.09
0.91
-3.03
-7.06
-8.32
-5.52
0.21
5.95
8.72
7.17
2.39
-2.85
-5.52
-4.15
0.39
5.30
7.39
4.82
-1.69
-9.19
-13.97
-13.63
-8.43
-1.20
4.27
5.31
1.88
-3.40
-6.96
-6.42
-2.04
3.51
6.74
5.57
0.63
-5.13
-8.21
-6.66
-1.20
5.16
8.90
7.96
2.93
-3.31
-7.31
-6.86
-2.24
3.99
8.51
9.02
5.41
-0.16
-4.49
-5.13
-1.74
3.78
8.45
9.79
7.32
2.83
-0.90
-1.69
0.60
3.94
5.50
3.43
-1.78
-7.48
-10.36
-8.44
-2.52
4.28
8.14
6.71
0.49
-7.34
-12.84
-13.30
-8.72
-1.82
3.73
5.35
2.96
-1.10
-3.49
-1.99
3.21
9.53
13.57
13.02
8.13
1.60
-3.02
-3.32
0.53
5.89
9.14
7.85
2.19
-5.17
-10.50
-11.08
-6.71
0.17
5.89
7.50
4.46
-1.24
-6.18
-7.57
-4.77
0.34
4.48
4.94
1.12
-5.00
-9.97
-10.81
-6.75
0.26
6.67
9.26
6.95
1.37
-4.06
-6.27
-4.04
1.25
6.44
8.60
6.72
2.18
-2.10
-3.46
-1.21
3.01
6.26
6.10
2.14
-3.66
-8.22
-9.14
-6.11
-1.16
2.57
2.66
-1.17
-6.82
-10.95
-10.88
-6.08
1.48
8.28
11.22
9.12
3.49
-2.42
-5.43
-4.10
0.47
5.32
7.40
5.38
0.31
-4.95
-7.39
-5.72
-1.02
3.89
6.06
4.23
-0.35
-4.81
-6.34
-3.95
0.73
4.45
4.31
-0.41
-7.71
-13.72
-15.09
-10.90
-3.20
3.93
6.85
4.36
-1.59
-7.15
-8.73
-5.08
2.00
8.78
11.69
9.43
3.65
-2.07
-4.26
-1.72
3.84
8.80
9.79
5.66
-1.60
-8.10
-10.18
-6.46
1.29
9.16
13.38
12.27
7.04
0.99
-2.53
-2.02
1.55
5.47
6.97
4.87
0.20
-4.51
-6.84
-5.73
-2.29
1.01
1.86
-0.70
-5.56
-10.11
-11.79
-9.49
-4.29
0.96
3.30
1.35
-3.91
-9.55
-12.36
-10.65
-5.23
0.95
4.56
3.68
-1.28
-7.81
-12.84
-14.37
-12.48
-9.01
-6.46
-6.56
-9.57
-14.23
-18.77
-21.61
-22.41
-22.10
-22.06
-23.56
-26.87
-31.10
-34.89
-37.21
-38.19
-39.21
-41.96
-47.24
-54.34
-61.03
-65.01
-65.29
-63.07
-61.38
-63.32
-70.25
-80.82
-91.70
-99.31
-101.95
-100.11
-95.80
-90.79
-84.70
-74.84
-57.66
-31.00
4.46
44.92
86.02
125.18
162.14
199.20
239.30
283.85
331.10
376.43
413.75
438.66
449.49
447.00
433.22
410.15
379.05
340.76
298.90
254.80
210.31
167.76
129.54
97.43
72.31
54.13
42.13
35.31
32.23
32.22
34.41
37.41
38.86
35.71
24.77
3.19
-30.61
-76.85
-132.97
-195.09
-258.48
-319.00
-373.11
-418.11
-452.24
-474.18
-483.21
-477.70
-456.65
-415.15
-351.33
-266.63
-166.24
-58.71
45.63
132.49
194.16
226.94
230.55
207.53
163.85
109.29
54.02
8.44
-21.75
-36.08
-39.20
-37.37
-35.53
-35.15
-34.92
-33.06
-28.86
-23.30
-17.35
-11.69
-5.91
0.68
8.47
17.05
25.03
30.76
32.85
31.27
26.79
20.87
14.76
9.15
3.87
-2.04
-9.77
-20.29
-33.83
-50.00
-67.90
-86.75
-106.17
-126.29
-147.76
-171.27
-197.39
-226.12
-256.98
-288.86
-320.52
-350.76
-378.30
-401.87
-420.07
-431.36
-434.08
-427.79
-411.36
-384.00
-345.65
-297.17
-240.30
-177.55
-111.96
-46.75
15.00
70.80
118.63
157.19
185.93
205.03
215.32
218.05
214.72
206.86
196.13
183.84
171.00
158.32
146.08
134.25
122.76
111.46
100.30
89.35
79.03
69.89
62.71
58.56
58.46
63.20
73.28
88.65
108.69
132.02
156.74
180.67
201.29
216.21
223.39
221.27
209.05
186.71
154.89
114.64
67.56
15.65
-38.87
-93.84
-147.14
-196.92
-241.63
-280.09
-311.69
-336.11
-353.24
-363.37
-366.81
-363.88
-355.11
-341.00
-322.13
-299.16
-272.76
-243.61
-212.22
-179.17
-145.01
-110.14
-75.12
-40.64
-7.43
23.57
51.24
74.70
93.18
106.39
114.33
117.29
115.68
109.69
99.58
85.74
68.89
50.66
33.31
19.43
11.47
10.99
18.22
32.12
50.68
71.91
94.37
117.64
141.87
167.22
193.01
217.48
238.10
252.79
260.76
262.81
261.54
259.72
259.44
261.88
267.33
275.46
285.08
293.37
295.59
285.85
259.43
215.79
160.17
102.55
53.89
21.21
4.64
-2.07
-7.42
-17.24
-31.89
-47.02
-57.03
-58.69
-52.85
-42.94
-32.38
-22.31
-11.45
2.48
20.33
40.06
57.72
68.96
71.15
64.66
52.64
39.63
29.92
25.92
27.62
32.86
38.57
42.36
43.44
42.69
41.61
41.14
40.88
39.31
34.81
27.05
17.35
8.41
3.02
2.77
7.13
13.81
19.77
22.67
21.72
17.82
12.64
7.57
3.09
-1.25
-6.16
-11.86
-17.57
-21.82
-23.21
-21.20
-16.84
-12.54
-11.03
-13.96
-20.89
-29.10
-34.69
-34.43
-27.39
-15.51
-2.52
8.18
15.28
19.93
24.20
29.10
33.20
33.16
25.86
10.85
-8.54
-26.31
-36.76
-37.46
-30.59
-21.53
-15.57
-14.77
-16.81
-16.75
-10.51
2.54
19.01
33.58
41.95
43.10
39.23
33.84
29.43
26.36
23.24
18.50
11.82
4.40
-1.80
-5.08
-4.98
-2.44
0.73
2.52
1.49
-2.53
-8.33
-13.81
-16.91
-16.73
-14.12
-11.28
-10.44
-12.63
-16.95
-21.09
-22.79
-21.44
-18.60
-17.26
-20.06
-27.53
-37.51
-46.18
-50.21
-48.48
-42.83
-36.91
-34.12
-35.49
-39.11
-40.99
-37.08
-25.05
-4.87
21.86
53.28
88.41
127.47
171.17
219.97
273.74
331.23
391.68
455.04
521.70
591.49
662.67
731.40
792.06
838.31
864.28
865.70
840.37
788.36
711.84
614.78
502.36
380.31
254.32
129.54
10.34
-99.90
-198.78
-284.87
-357.53
-416.80
-463.23
-497.71
-521.37
-535.43
-541.15
-539.81
-532.68
-520.93
-505.60
-487.59
-467.62
-446.26
-423.95
-401.08
-377.97
-354.94
-332.26
-310.14
-288.73
-268.10
-248.30
-229.32
-211.18
-193.90
-177.49
-161.98
-147.38
-133.70
-120.91
-108.98
-97.89
-87.60
-78.07
-69.28
-61.17
-53.74
-46.95
-40.80
-35.26
-30.29
-25.88
-22.01
-18.65
-15.75
-13.28
-11.19
-9.43
-7.95
-6.74
-5.73
-4.90
-4.23
-3.67
-3.22
-2.84
-2.53
-2.27
-2.06
-1.88
-1.73
-1.60
-1.49
-1.39
-1.30
-1.22
-1.15
-1.08
-1.02
-0.97
-0.92
-0.88
-0.84
-0.80
-0.76
-0.73
-0.70
-0.67
-0.64
-0.62
-0.59
-0.57
-0.55
-0.53
-0.52
-0.50
-0.48
-0.46
-0.45
-0.44
-0.42
-0.41
-0.39
-0.38
-0.37
-0.36
-0.35
-0.35
-0.34
-0.34
-0.34
-0.33
-0.32
-0.31
-0.28
-0.25
-0.21
-0.15
-0.09
-0.01
0.08
0.17
0.26
0.36
0.45
0.55
0.64
0.73
0.83
0.92
1.03
1.14
1.26
1.38
1.52
1.67
1.84
2.02
2.22
2.45
2.70
2.99
3.33
3.74
4.18
4.65
5.12
5.56
6.00
6.46
7.01
7.69
8.52
9.52
10.60
11.70
12.80
13.87
14.97
16.19
17.65
19.35
21.28
23.33
25.34
27.25
29.03
30.86
32.98
35.64
38.88
42.55
46.25
49.34
51.25
51.48
49.85
46.44
41.45
35.04
27.18
17.63
6.20
-7.01
-21.03
-34.80
-46.87
-55.93
-61.34
-63.42
-63.37
-62.80
-63.06
-64.99
-67.90
-70.44
-71.39
-69.95
-66.36
-61.75
-57.65
-55.40
-56.10
-60.25
-67.38
-75.63
-81.40
-80.24
-68.38
-44.83
-12.35
22.75
53.20
73.51
82.02
81.34
76.68
73.44
74.66
79.83
85.06
84.92
74.75
52.62
20.19
-17.88
-55.22
-85.36
-103.39
-106.38
-93.83
-67.93
-33.28
3.81
36.55
59.68
71.06
71.94
66.26
59.02
54.44
54.49
58.55
63.17
63.21
53.76
31.98
-0.90
-39.55
-76.27
-104.17
-119.64
-123.39
-119.71
-112.54
-104.85
-97.43
-89.76
-80.98
-70.97
-60.28
-49.79
-40.15
-31.48
-23.74
-16.50
-9.54
-2.75
3.58
9.05
13.06
14.96
14.37
10.85
3.80
-7.77
-24.66
-46.38
-70.21
-91.19
-103.64
-103.55
-90.64
-68.81
-44.67
-24.61
-12.09
-6.83
-5.83
-5.72
-4.57
-2.25
0.14
1.49
1.70
1.49
1.57
1.88
1.40
-1.24
-6.75
-14.94
-24.75
-34.59
-43.01
-49.36
-54.05
-58.41
-64.15
-71.74
-81.00
-90.99
-100.29
-107.45
-111.41
-111.67
-107.96
-103.40
-98.17
-91.77
-83.37
-72.19
-57.88
-40.75
-21.91
-3.06
14.00
30.33
47.09
65.22
85.31
107.41
131.03
155.03
178.01
198.58
219.22
241.99
267.84
296.73
328.40
363.21
402.04
445.18
490.82
537.84
580.68
610.68
619.65
603.70
564.95
510.39
448.53
364.64
256.63
133.13
10.90
-93.25
-169.54
-216.95
-240.71
-249.07
-250.21
-246.39
-236.93
-222.85
-206.22
-190.29
-179.17
-176.69
-185.95
-208.87
-243.52
-287.80
-336.88
-384.21
-421.87
-442.68
-442.30
-421.72
-387.32
-347.20
-309.83
-280.77
-262.73
-252.01
-244.73
-238.26
-232.01
-226.23
-220.22
-212.74
-202.40
-188.52
-171.40
-152.71
-133.91
-117.81
-105.35
-95.60
-86.59
-76.30
-63.69
-48.94
-33.68
-20.00
-9.78
-3.75
-1.69
-2.56
-5.03
-8.08
-11.23
-14.74
-19.13
-24.80
-31.50
-38.58
-45.09
-50.21
-53.44
-54.77
-54.64
-53.68
-52.38
-50.84
-48.86
-46.14
-42.39
-37.56
-31.82
-25.62
-19.51
-13.97
-9.28
-5.49
-2.49
-0.12
1.72
3.00
3.61
3.57
3.23
3.37
5.12
9.69
17.96
30.16
45.71
63.50
82.29
101.23
120.13
139.37
159.47
180.54
202.05
222.78
241.40
257.00
269.55
279.77
288.66
296.99
305.14
313.70
323.98
337.95
357.21
381.09
405.00
420.81
419.58
395.72
350.52
292.47
233.67
184.14
147.41
119.81
93.77
62.85
24.95
-17.89
-62.48
-107.70
-154.51
-203.25
-249.93
-285.41
-299.22
-286.33
-252.60
-214.72
-193.60
-204.45
-249.51
-316.82
-386.28
-439.37
-466.60
-469.55
-457.28
-439.45
-421.35
-402.99
-381.62
-355.28
-324.91
-293.62
-264.21
-237.01
-209.38
-177.31
-138.05
-92.02
-42.95
3.33
41.80
70.35
90.74
107.99
128.64
158.35
200.02
252.35
310.13
366.32
414.38
450.59
475.38
492.68
507.94
525.51
546.36
567.50
583.51
588.72
579.52
555.83
520.49
478.15
433.21
388.78
346.69
308.17
273.72
243.34
216.72
193.01
171.24
150.50
130.29
110.60
92.77
78.36
69.73
70.81
86.56
121.32
175.93
246.16
323.20
397.82
460.98
506.34
531.93
539.86
535.60
525.33
514.52
506.46
504.02
505.58
505.57
497.59
476.96
443.25
398.20
344.25
282.28
214.62
140.72
58.14
-34.28
-135.43
-240.22
-342.80
-437.07
-538.07
-642.25
-733.33
-791.73
-805.97
-778.47
-716.49
-634.02
-543.09
-452.98
-366.49
-285.18
-217.78
-170.58
-156.69
-179.22
-232.26
-302.73
-376.60
-441.04
-488.89
-517.47
-524.92
-510.13
-472.12
-414.54
-345.89
-277.83
-220.03
-178.63
-155.54
-148.53
-153.86
-166.67
-183.77
-204.22
-225.62
-243.98
-254.89
-255.31
-243.97
-221.66
-189.82
-151.56
-111.20
-71.86
-38.49
-12.79
8.12
28.66
51.14
74.38
93.08
100.11
90.18
62.86
23.98
-16.73
-50.32
-72.22
-83.15
-87.51
-90.71
-95.70
-102.22
-106.92
-105.21
-94.77
-76.52
-53.65
-29.59
-5.92
18.20
44.98
76.45
113.92
155.98
198.67
237.14
267.17
286.58
295.41
295.27
288.38
277.56
264.35
248.90
230.96
211.09
191.54
176.33
170.26
168.71
168.17
166.03
162.00
157.59
153.38
146.92
132.93
105.61
61.88
5.01
-56.68
-112.65
-154.23
-177.82
-185.36
-182.25
-174.28
-165.22
-155.46
-144.20
-131.11
-117.37
-105.20
-96.38
-91.00
-87.49
-83.50
-76.22
-64.21
-47.68
-28.13
-7.73
11.79
29.57
45.62
60.15
73.97
86.52
96.36
101.87
101.73
95.62
84.28
69.50
53.36
38.09
25.31
15.78
9.61
6.42
5.92
7.71
11.66
17.44
24.88
33.63
43.02
52.64
62.22
71.87
81.86
92.57
104.27
117.24
131.60
146.58
161.57
175.75
188.22
198.06
204.26
205.52
200.05
190.10
176.17
158.86
138.65
116.20
92.10
67.28
42.82
20.03
0.46
-15.15
-26.10
-32.44
-34.76
-34.49
-33.22
-32.45
-33.13
-35.41
-39.18
-43.59
-47.80
-51.20
-53.48
-54.86
-55.53
-55.53
-54.69
-52.93
-50.25
-47.18
-45.03
-45.39
-49.90
-59.25
-72.96
-89.36
-106.41
-122.15
-135.49
-146.49
-155.96
-165.29
-176.00
-189.41
-206.44
-226.98
-248.36
-265.23
-270.67
-258.63
-226.80
-177.98
-119.31
-60.01
-8.36
30.43
54.89
66.45
68.36
64.71
60.00
58.37
62.50
72.51
84.98
93.32
89.41
65.43
15.36
-63.74
-170.49
-298.39
-435.52
-566.44
-676.12
-753.50
-794.49
-802.53
-786.22
-755.35
-717.48
-676.44
-632.99
-587.15
-539.65
-492.09
-446.39
-403.58
-363.25
-324.10
-284.85
-245.24
-206.14
-169.20
-136.01
-107.42
-83.21
-62.24
-43.06
-24.57
-6.39
11.18
27.54
42.31
55.58
68.04
80.58
93.80
107.52
120.73
131.89
139.53
142.85
141.99
138.08
132.77
127.85
124.74
124.18
126.38
131.23
138.74
149.11
162.58
178.99
197.43
216.23
233.18
246.18
253.70
255.54
253.19
249.38
247.12
248.76
255.51
267.67
285.13
307.74
335.87
370.53
412.96
464.27
525.13
595.37
673.08
753.79
829.55
890.43
927.38
935.32
914.90
872.08
815.91
755.07
695.37
637.58
580.34
523.13
467.69
417.10
373.28
335.67
301.09
265.26
221.86
167.36
103.41
36.30
-26.77
-81.69
-128.52
-170.58
-212.17
-260.59
-319.54
-385.61
-449.14
-499.73
-532.15
-547.91
-553.79
-558.95
-577.69
-621.07
-691.33
-780.72
-875.92
-963.47
-1031.08
-1068.29
-1032.12
-898.29
-681.91
-435.94
-216.73
-54.87
47.17
103.75
132.84
148.43
152.57
144.52
125.20
102.80
88.04
87.98
104.20
132.06
163.62
186.76
193.42
183.76
162.99
140.42
123.74
117.55
119.88
124.36
120.28
99.15
59.48
7.88
-43.50
-81.88
-93.72
-72.51
-23.74
34.36
81.96
108.68
116.30
115.15
116.75
134.99
169.27
212.28
253.88
286.26
305.84
311.85
306.06
272.75
212.27
133.39
51.44
-17.87
-62.88
-79.43
-72.81
-54.08
-37.13
-31.58
-44.40
-76.07
-122.85
-175.74
-224.03
-259.28
-275.52
-270.81
-245.70
-205.77
-159.17
-114.71
-79.80
-53.73
-41.41
-45.52
-65.07
-93.57
-122.02
-140.63
-141.33
-120.81
-82.11
-35.17
8.61
40.25
56.96
61.63
60.19
58.13
57.71
57.76
54.56
46.03
33.07
19.17
8.35
2.93
2.13
2.33
-1.64
-14.47
-37.67
-69.22
-104.40
-138.33
-165.37
-181.53
-184.68
-174.33
-151.82
-120.06
-84.15
-50.88
-26.17
-12.52
-7.48
-4.65
3.18
19.83
43.33
66.52
80.64
79.83
63.59
36.18
3.92
-27.87
-56.24
-80.50
-100.57
-115.40
-122.98
-121.76
-112.01
-96.55
-79.73
-65.31
-54.89
-46.60
-37.92
-23.98
-0.46
34.75
80.99
135.33
194.69
256.43
318.79
381.42
445.10
511.00
579.94
650.69
719.54
781.03
827.44
850.33
844.05
807.03
743.20
660.49
566.94
469.07
372.50
280.38
193.83
114.60
42.95
-19.63
-70.79
-109.22
-134.39
-144.55
-140.28
-125.81
-106.54
-93.41
-96.84
-116.37
-148.62
-204.21
-287.70
-391.76
-509.88
-634.49
-763.60
-894.56
-1022.99
-1143.33
-1249.44
-1333.93
-1392.28
-1424.26
-1395.01
-1285.92
-1098.01
-854.52
-591.48
-341.72
-123.78
56.12
198.80
309.10
387.28
434.63
454.75
453.51
438.73
419.06
400.78
386.92
378.66
371.55
361.54
346.58
326.81
304.38
282.69
264.03
249.21
238.60
229.88
220.94
211.05
200.78
191.64
185.61
183.93
186.57
192.75
201.85
210.63
215.53
213.17
200.69
176.19
139.55
92.02
36.31
-22.79
-81.29
-136.22
-185.91
-229.69
-267.54
-299.76
-327.36
-350.83
-367.34
-373.75
-365.83
-339.55
-292.86
-227.03
-147.06
-60.94
23.98
105.48
182.01
253.16
318.03
374.39
419.07
449.85
466.28
450.84
404.53
335.15
253.21
166.90
80.42
-5.15
-89.09
-170.48
-244.96
-304.59
-348.02
-374.43
-384.48
-379.73
-361.59
-330.13
-285.08
-223.12
-140.25
-37.28
81.57
209.57
340.60
461.66
561.50
615.93
610.50
545.24
433.20
295.43
151.71
16.34
-102.70
-200.85
-281.48
-342.64
-380.16
-391.20
-374.22
-330.52
-262.72
-172.14
-64.59
51.78
170.97
286.67
382.78
441.85
451.67
412.69
335.51
234.63
123.47
13.66
-87.27
-175.46
-248.16
-306.85
-352.49
-385.41
-405.98
-414.26
-409.16
-389.90
-356.65
-303.27
-232.41
-150.45
-65.92
12.48
78.19
128.01
161.50
180.06
186.70
184.10
175.90
165.32
154.31
143.95
134.55
126.05
117.92
109.78
100.81
91.44
82.59
75.12
69.62
66.14
64.11
62.41
60.07
56.09
50.80
45.44
41.61
40.52
42.30
45.78
48.93
50.07
48.58
45.82
44.18
45.47
49.93
55.97
61.00
62.56
59.45
51.52
39.21
23.64
4.75
-15.74
-33.70
-43.68
-41.82
-28.62
-10.38
2.81
1.71
-17.49
-50.93
-88.98
-121.33
-141.71
-149.78
-149.80
-147.07
-144.58
-141.02
-134.77
-123.97
-108.59
-90.81
-73.38
-58.07
-45.03
-32.69
-19.26
-3.87
12.99
29.29
42.04
49.08
50.03
46.29
41.37
38.88
41.72
51.10
66.07
83.47
99.23
109.62
112.25
106.64
93.87
75.91
54.24
31.08
7.32
-16.69
-40.47
-63.16
-83.54
-100.64
-113.80
-122.11
-124.09
-117.87
-101.81
-76.06
-43.34
-8.65
22.27
45.20
58.94
64.90
65.45
62.82
58.20
52.21
45.66
39.53
34.60
30.63
26.33
19.76
9.91
-3.11
-18.70
-36.19
-55.61
-76.45
-96.58
-111.83
-116.92
-108.04
-85.86
-56.29
-28.57
-10.65
-5.02
-7.65
-10.86
-8.05
1.70
13.00
18.01
12.38
-1.52
-15.48
-20.57
-12.75
4.36
21.55
29.43
24.06
9.66
-4.52
-9.94
-3.58
9.58
20.03
19.09
3.76
-21.84
-49.26
-70.77
-83.78
-90.68
-96.64
-105.03
-113.91
-116.89
-107.23
-83.03
-48.89
-13.89
13.78
30.25
38.26
45.42
59.93
86.41
124.43
169.11
213.87
253.14
281.97
296.76
295.97
279.73
250.09
210.55
165.46
114.67
62.29
11.85
-34.35
-74.07
-104.81
-123.70
-128.84
-120.97
-104.00
-83.14
-63.40
-46.76
-31.06
-11.84
14.22
46.53
79.34
103.88
112.26
99.73
66.81
19.07
-34.56
-84.57
-123.35
-147.46
-157.65
-157.38
-151.05
-141.63
-129.92
-115.27
-97.78
-79.53
-64.62
-57.42
-60.40
-72.77
-90.29
-106.56
-115.41
-113.43
-101.22
-83.39
-66.59
-56.50
-55.50
-61.65
-70.27
-76.49
-78.20
-76.62
-75.02
-76.21
-80.21
-83.92
-82.72
-72.71
-52.47
-23.73
9.43
42.35
71.58
96.14
117.21
136.94
157.03
177.70
197.46
213.86
224.75
229.17
227.47
220.70
209.99
195.83
178.24
157.15
133.24
108.04
83.75
62.45
45.37
32.58
23.11
15.52
8.40
1.00
-6.99
-15.27
-23.46
-31.21
-38.40
-45.14
-51.63
-57.95
-63.74
-68.42
-71.04
-70.98
-68.09
-62.57
-55.01
-45.84
-35.33
-23.82
-11.78
0.09
10.95
20.22
27.91
34.26
39.72
44.41
47.92
49.59
48.84
45.33
39.16
30.94
21.03
9.96
-1.80
-13.88
-25.88
-37.51
-48.57
-59.03
-68.72
-77.71
-85.79
-92.60
-97.76
-100.54
-100.38
-97.00
-90.74
-82.48
-73.80
-66.14
-60.60
-57.75
-57.16
-57.91
-59.08
-59.93
-59.83
-58.21
-53.65
-44.03
-27.19
-1.72
32.09
71.92
114.55
157.05
197.21
233.47
263.82
284.85
292.78
285.05
262.19
228.56
190.60
153.89
121.08
91.41
62.22
31.61
-0.29
-31.74
-60.81
-87.22
-112.66
-139.33
-168.47
-199.41
-229.62
-255.86
-275.65
-287.95
-293.26
-293.14
-288.72
-280.86
-270.45
-258.03
-243.37
-225.91
-205.05
-181.25
-155.81
-128.74
-99.38
-67.32
-32.89
2.83
37.70
68.62
91.90
105.09
110.35
112.15
114.03
116.58
118.29
117.37
113.08
106.43
100.59
103.00
121.08
157.79
210.27
272.69
339.05
404.31
463.87
496.80
487.13
435.67
358.59
272.43
185.81
101.23
19.82
-57.11
-129.95
-192.86
-236.12
-253.85
-247.46
-223.59
-190.83
-158.11
-136.31
-126.54
-126.82
-130.64
-131.53
-126.16
-114.29
-97.79
-81.56
-76.57
-93.73
-137.34
-203.19
-282.46
-364.89
-439.51
-495.06
-498.88
-433.19
-311.24
-171.56
-50.52
35.33
88.67
122.05
150.25
179.74
204.82
216.69
211.29
192.66
169.68
151.24
138.79
133.63
134.76
136.29
131.47
115.84
89.27
55.20
19.14
-12.07
-30.75
-31.77
-15.41
14.51
53.07
96.11
139.99
180.69
213.74
235.50
242.86
233.83
209.24
173.45
133.38
96.38
67.93
50.46
43.99
45.70
51.38
56.88
59.63
59.24
56.84
53.81
50.57
46.66
40.34
29.55
12.59
-11.41
-41.97
-77.39
-114.81
-150.84
-182.06
-206.13
-222.12
-230.56
-232.98
-230.78
-224.93
-215.58
-202.49
-185.40
-164.91
-142.12
-118.31
-94.71
-72.00
-50.69
-30.76
-11.99
6.05
23.41
40.02
55.57
69.48
81.16
90.28
97.41
103.94
111.93
123.04
138.19
157.09
178.20
199.06
216.77
228.89
233.90
231.38
221.98
207.12
188.35
166.91
143.44
117.86
89.90
58.76
23.98
-14.35
-55.42
-97.54
-138.26
-174.57
-204.20
-225.07
-237.49
-242.36
-240.74
-233.49
-221.06
-204.21
-183.50
-160.15
-133.48
-102.75
-65.61
-19.72
34.98
94.58
150.95
194.54
216.60
213.70
184.98
137.95
84.89
38.87
8.02
-4.72
3.14
22.11
53.69
95.41
139.80
176.36
195.62
197.84
186.57
171.14
161.87
166.38
182.93
203.31
217.15
217.33
202.85
177.92
149.60
123.00
100.33
78.75
54.48
25.19
-8.99
-46.36
-85.39
-125.06
-165.93
-208.27
-252.87
-299.78
-347.93
-395.72
-441.98
-486.86
-531.24
-575.91
-619.00
-655.35
-676.50
-673.31
-639.65
-575.60
-488.47
-390.63
-295.83
-214.98
-154.00
-114.07
-92.91
-86.56
-90.67
-100.93
-113.05
-123.31
-128.92
-128.37
-121.89
-110.29
-93.69
-71.82
-44.00
-10.01
28.95
70.01
109.13
141.77
164.28
176.17
178.98
176.45
173.73
176.33
188.76
212.72
245.43
279.19
305.28
315.85
308.53
288.27
266.02
254.00
259.72
281.81
310.53
334.77
345.31
339.33
320.56
296.79
276.25
265.52
268.66
273.32
270.78
256.01
228.38
188.73
137.40
75.46
7.33
-59.12
-115.63
-154.73
-174.37
-177.97
-172.15
-163.11
-155.51
-150.46
-145.44
-135.84
-115.04
-79.19
-29.90
25.64
79.72
122.54
147.70
153.45
141.98
119.09
91.53
65.67
43.54
30.39
26.13
27.05
27.50
22.33
9.61
-9.29
-30.93
-51.52
-68.24
-80.69
-88.63
-91.85
-90.77
-85.95
-78.44
-69.88
-60.05
-47.80
-32.30
-12.78
10.34
34.77
57.39
75.14
85.95
89.52
87.27
81.59
75.78
73.19
75.64
82.91
92.36
98.80
96.39
80.81
51.46
12.28
-29.45
-66.55
-93.44
-107.32
-108.22
-97.50
-77.24
-49.90
-18.86
15.52
47.96
72.45
84.05
80.15
61.17
29.53
-11.44
-58.31
-108.33
-160.46
-214.43
-270.47
-328.37
-386.28
-439.94
-483.73
-512.32
-523.42
-519.82
-508.36
-497.40
-493.79
-500.13
-514.33
-531.55
-546.57
-555.64
-557.04
-550.23
-534.36
-508.29
-470.60
-420.76
-360.02
-291.30
-218.58
-145.67
-75.38
-9.37
51.81
107.89
158.40
202.53
239.06
266.74
284.97
293.82
293.97
286.59
272.62
253.13
229.33
202.97
176.23
151.80
132.19
119.10
112.97
112.62
116.25
121.96
128.65
136.41
146.06
158.57
174.41
192.98
212.92
232.87
252.59
273.26
297.50
328.20
367.41
415.74
472.33
534.07
595.45
648.61
683.80
692.05
667.82
611.49
530.12
435.72
340.79
254.09
178.86
114.01
57.94
10.75
-25.36
-48.46
-59.38
-62.09
-62.54
-66.02
-75.88
-93.47
-118.44
-149.68
-185.04
-221.19
-254.15
-281.18
-301.92
-318.34
-332.26
-341.87
-340.93
-320.84
-275.95
-207.45
-124.17
-38.52
38.31
99.93
145.86
179.01
202.87
219.35
229.62
234.89
238.21
243.58
253.34
266.59
278.01
280.02
265.37
230.08
175.79
110.20
45.46
-5.25
-31.08
-26.58
7.95
65.77
134.96
202.03
255.97
290.69
305.78
305.27
295.07
283.24
275.68
274.10
276.36
278.70
277.14
268.52
251.38
225.26
194.33
162.30
130.73
99.43
68.81
40.31
16.76
1.66
-2.09
11.55
44.80
93.97
150.22
203.95
246.14
270.57
274.25
225.13
112.64
-46.23
-215.43
-363.70
-476.46
-554.44
-608.89
-651.49
-689.25
-721.25
-746.55
-766.24
-783.89
-790.98
-782.23
-754.24
-707.03
-644.57
-569.72
-486.85
-401.49
-319.35
-243.79
-177.23
-119.83
-70.00
-25.61
17.71
63.24
111.35
159.93
206.95
250.38
289.83
327.02
364.63
406.66
455.84
511.23
567.56
616.36
647.58
653.17
630.18
581.45
514.84
439.75
363.62
290.06
219.61
151.17
84.35
20.35
-38.33
-88.88
-128.66
-155.69
-168.46
-165.80
-147.40
-114.12
-68.74
-15.90
38.29
87.84
127.70
154.73
167.48
165.42
148.35
115.88
67.49
2.76
-77.64
-171.96
-277.41
-389.81
-503.04
-608.88
-698.25
-763.83
-803.57
-821.14
-824.04
-819.18
-808.70
-789.02
-753.48
-697.50
-622.31
-535.64
-447.80
-366.80
-294.65
-227.42
-158.25
-81.30
6.13
103.93
209.94
320.83
431.13
532.47
614.06
665.28
679.13
655.56
601.89
529.87
451.86
376.43
306.74
242.10
180.87
122.84
69.83
24.40
-11.92
-38.97
-58.12
-71.58
-81.23
-88.67
-95.84
-106.57
-125.96
-157.95
-201.94
-251.36
-295.01
-319.92
-316.52
-282.14
-222.99
-151.37
-80.18
-17.62
33.86
75.94
112.18
145.54
177.39
206.25
228.38
239.39
235.29
212.27
167.66
101.74
19.62
-61.49
-119.47
-141.88
-131.76
-101.03
-61.56
-21.11
17.08
52.56
84.99
112.93
133.77
146.76
153.65
157.64
161.62
166.99
175.11
183.15
187.12
183.09
169.48
147.42
119.78
89.96
60.92
35.21
13.46
-4.86
-20.74
-34.71
-46.78
-57.20
-66.89
-77.66
-85.98
-91.02
-92.44
-90.08
-83.82
-73.58
-60.50
-46.39
-33.25
-22.54
-16.27
-15.81
-22.29
-36.90
-54.20
-70.00
-82.30
-92.00
-100.66
-109.85
-120.11
-130.86
-140.25
-144.37
-138.59
-119.00
-84.59
-38.53
11.28
55.24
85.83
100.03
100.26
91.93
81.02
72.00
66.84
64.94
64.20
62.56
58.09
49.86
37.60
22.28
6.05
-8.34
-18.24
-22.34
-21.30
-19.60
-22.37
-35.25
-60.96
-97.53
-137.49
-169.59
-182.04
-167.11
-125.72
-68.16
-9.98
35.04
60.37
69.14
71.79
80.56
103.49
139.94
180.80
214.84
234.34
238.04
229.55
213.86
189.16
156.91
117.45
70.58
14.48
-49.15
-115.91
-181.33
-242.05
-295.34
-338.20
-357.17
-345.89
-303.44
-234.82
-149.31
-58.74
25.58
101.44
168.20
226.39
273.68
307.52
325.27
325.69
308.59
276.12
233.26
180.35
123.17
63.37
8.29
-42.08
-84.60
-113.53
-122.24
-105.24
-61.07
6.93
87.66
167.29
235.51
289.92
331.66
363.96
389.67
409.60
422.23
420.99
393.35
334.20
245.82
135.65
15.74
-101.54
-205.26
-287.53
-349.19
-393.86
-423.45
-437.45
-436.86
-423.46
-402.61
-379.40
-356.26
-339.24
-332.25
-334.06
-340.16
-348.06
-355.16
-360.90
-362.09
-331.04
-258.73
-158.62
-58.44
18.09
50.74
47.49
18.96
-25.17
-78.26
-138.79
-208.15
-281.63
-331.27
-331.18
-268.39
-153.16
-22.46
110.27
233.55
339.20
422.74
481.07
510.60
509.85
468.98
392.18
300.77
216.69
154.42
117.21
99.18
89.08
77.72
60.55
40.85
26.19
18.29
14.41
10.73
5.24
-2.68
-11.87
-20.75
-26.60
-26.98
-23.65
-20.27
-19.73
-22.65
-28.25
-34.90
-41.35
-46.13
-48.47
-49.99
-53.11
-59.88
-70.84
-85.09
-100.83
-115.93
-128.13
-135.64
-139.04
-138.08
-133.00
-123.98
-111.09
-94.65
-75.45
-54.66
-33.87
-14.83
1.09
12.80
19.96
22.99
22.64
19.79
15.27
9.73
3.55
-2.92
-9.74
-16.99
-24.39
-31.83
-39.08
-45.89
-52.10
-57.65
-62.67
-67.56
-72.80
-78.21
-83.55
-88.22
-91.56
-92.82
-91.38
-86.71
-78.27
-68.39
-57.87
-46.94
-35.18
-22.03
-6.98
10.07
28.65
47.90
66.76
84.89
102.14
118.79
135.33
152.46
171.07
191.85
214.90
238.84
261.01
277.31
283.67
277.58
259.32
231.91
199.87
167.63
138.15
112.65
90.93
72.30
56.20
42.49
31.15
21.91
14.36
8.03
2.79
-1.22
-3.73
-4.67
-4.25
-3.12
-2.24
-2.50
-4.40
-7.81
-11.88
-15.51
-17.70
-17.96
-16.38
-13.63
-10.63
-8.31
-7.42
-8.33
-10.98
-14.85
-18.99
-22.21
-23.58
-22.66
-19.81
-16.03
-12.55
-10.45
-10.22
-11.78
-14.57
-17.96
-21.40
-24.73
-28.12
-31.89
-36.46
-42.08
-48.74
-56.05
-63.16
-68.77
-71.43
-69.88
-63.45
-52.33
-37.61
-20.90
-3.84
12.26
26.67
38.91
48.44
54.44
56.04
52.84
45.43
35.39
24.80
15.56
8.69
4.25
1.63
0.04
-1.18
-2.29
-3.35
-4.30
-5.00
-5.35
-5.24
-4.80
-4.38
-4.58
-5.86
-8.19
-10.89
-12.79
-12.97
-11.14
-8.15
-5.52
-4.84
-7.01
-11.77
-17.93
-23.82
-28.15
-30.34
-30.59
-29.54
-27.64
-24.81
-20.42
-13.67
-4.14
7.67
20.38
32.12
41.07
46.20
47.43
45.54
41.53
36.38
30.60
24.45
18.15
12.07
6.76
2.74
0.39
-0.32
0.32
1.80
3.62
5.37
6.87
8.22
9.62
11.35
13.44
15.69
17.54
18.45
18.17
16.83
15.07
13.63
13.13
13.82
15.60
18.19
21.50
25.75
31.41
39.00
48.63
59.89
71.77
83.00
92.47
99.69
105.00
109.38
114.03
119.95
127.61
136.77
146.60
155.73
162.44
165.18
163.01
156.16
145.99
134.22
121.63
107.09
87.28
58.02
16.58
-36.28
-95.55
-153.34
-201.33
-233.74
-248.97
-249.77
-241.75
-231.41
-224.63
-225.28
-234.63
-250.67
-268.31
-279.82
-277.26
-255.27
-213.65
-158.54
-101.15
-54.86
-30.81
-34.38
-63.59
-110.55
-164.98
-218.23
-265.47
-305.93
-340.30
-367.78
-384.04
-381.84
-354.23
-298.63
-218.93
-124.05
-25.24
67.90
149.61
218.27
274.66
319.96
354.68
379.01
394.51
404.28
411.98
420.19
429.08
436.08
437.02
427.88
406.29
373.79
334.58
294.47
259.15
232.57
215.84
206.55
199.29
179.40
136.43
68.39
-15.24
-97.18
-160.84
-197.75
-209.58
-204.46
-191.84
-177.25
-162.27
-146.23
-128.93
-111.74
-97.16
-87.37
-82.75
-81.77
-80.73
-75.93
-65.18
-48.76
-28.70
-7.70
11.83
28.98
44.25
59.51
76.49
96.90
119.47
141.92
161.62
175.56
181.92
180.11
171.07
156.07
136.01
110.88
80.69
45.63
4.84
-41.02
-89.48
-136.09
-175.65
-203.69
-217.47
-215.65
-198.57
-170.84
-137.51
-102.91
-69.97
-40.56
-16.72
-1.40
1.73
-7.82
-35.26
-84.28
-155.10
-243.62
-342.28
-442.35
-535.83
-616.22
-659.59
-650.00
-584.05
-474.11
-341.85
-207.62
-84.95
19.48
104.01
169.75
215.86
242.66
252.47
250.20
242.95
237.76
238.96
248.66
266.29
287.01
305.20
318.10
322.78
318.83
306.97
287.06
258.73
221.04
172.32
112.49
44.39
-26.23
-90.89
-141.34
-172.18
-181.31
-170.43
-144.97
-112.00
-78.78
-51.63
-35.01
-29.08
-34.72
-47.53
-60.12
-64.49
-55.84
-35.78
-11.20
9.85
22.11
24.35
19.15
10.40
-0.15
-13.27
-30.61
-52.64
-77.87
-103.23
-126.18
-147.52
-166.39
-182.05
-193.51
-198.47
-193.53
-175.35
-141.74
-90.13
-25.65
45.09
114.55
174.88
218.31
238.78
233.98
207.46
166.98
123.53
88.45
69.11
67.26
79.42
100.03
123.40
147.40
168.27
182.60
187.42
180.09
158.57
122.40
74.38
18.54
-35.16
-79.80
-112.61
-136.28
-154.50
-170.03
-183.12
-190.86
-189.32
-176.20
-154.58
-128.18
-104.14
-85.43
-69.06
-48.76
-18.90
21.48
68.46
113.00
145.46
159.79
155.68
137.52
111.82
85.32
59.44
36.28
12.68
-16.96
-56.07
-103.47
-154.17
-202.30
-241.61
-268.09
-280.08
-278.41
-264.30
-237.84
-198.75
-146.18
-86.53
-27.25
24.98
65.65
92.63
106.56
110.98
110.12
107.73
105.49
104.21
103.32
102.04
102.36
101.86
99.57
94.68
86.63
74.42
57.74
36.62
12.18
-14.14
-40.99
-66.37
-88.76
-107.45
-122.78
-135.42
-146.50
-156.46
-165.68
-174.64
-183.02
-190.16
-195.23
-197.39
-195.01
-190.94
-185.49
-178.32
-169.07
-157.13
-142.01
-123.61
-102.50
-79.55
-55.60
-30.71
-4.89
21.77
49.16
76.83
103.66
128.05
148.35
163.39
173.54
180.20
185.56
192.09
201.79
215.52
233.05
253.40
275.43
298.77
323.50
350.07
379.23
411.77
448.32
488.74
531.26
571.65
603.52
619.45
613.60
584.24
534.82
473.11
408.32
348.05
296.08
252.46
214.85
180.78
148.82
118.79
90.97
65.11
40.30
15.44
-9.72
-34.33
-56.49
-74.38
-87.27
-95.90
-102.41
-109.27
-118.29
-129.74
-142.41
-154.07
-162.45
-166.04
-164.41
-158.32
-149.17
-138.58
-127.73
-117.30
-107.54
-98.38
-89.84
-81.88
-74.60
-68.15
-62.94
-59.82
-59.88
-63.98
-72.21
-83.74
-96.78
-109.57
-121.12
-131.42
-141.24
-151.46
-162.87
-176.07
-191.80
-210.31
-231.20
-252.33
-269.67
-278.20
-273.77
-254.84
-222.83
-181.11
-132.90
-80.18
-24.08
33.57
88.97
136.83
172.28
192.99
199.83
195.45
182.17
160.45
129.13
87.23
36.47
-18.11
-69.57
-111.81
-141.75
-159.33
-166.35
-164.57
-154.90
-137.24
-111.67
-79.49
-44.02
-10.69
14.63
27.06
24.18
6.26
-24.23
-63.51
-107.16
-151.03
-191.93
-227.48
-256.32
-278.36
-294.91
-307.96
-318.76
-326.22
-326.58
-315.76
-290.97
-252.84
-205.56
-155.75
-110.07
-72.67
-44.10
-22.15
-5.73
6.30
15.85
26.47
42.31
65.99
97.25
132.49
165.70
186.22
185.93
162.96
123.16
76.89
34.75
4.79
-8.86
-6.75
-0.66
-3.25
-21.84
-54.68
-94.64
-134.65
-170.22
-199.65
-223.18
-250.90
-291.34
-347.87
-417.25
-494.89
-578.96
-668.79
-761.67
-795.40
-726.21
-553.44
-324.89
-97.21
96.52
248.35
364.52
455.28
529.34
583.01
614.00
622.33
613.34
594.63
571.58
546.53
519.91
491.16
445.23
379.18
297.46
210.87
130.90
64.75
14.56
-20.79
-43.17
-57.32
-64.21
-62.37
-48.37
-21.10
15.09
51.97
81.40
98.92
103.30
98.08
87.82
76.84
67.49
59.68
52.55
45.90
40.44
36.56
35.04
35.35
36.67
37.84
37.54
34.90
29.81
22.37
12.95
2.24
-10.02
-24.26
-40.34
-57.24
-73.51
-86.90
-96.79
-104.52
-112.52
-122.45
-133.27
-139.55
-136.48
-120.13
-90.33
-51.25
-9.67
27.89
57.45
78.19
91.20
97.55
98.04
93.25
84.04
72.36
60.95
52.44
49.15
51.62
58.51
67.60
76.53
83.40
87.37
88.71
87.80
85.65
82.54
78.47
73.19
66.36
57.78
47.60
35.84
22.78
8.67
-6.44
-22.26
-38.12
-52.90
-65.01
-72.56
-74.15
-69.07
-57.67
-41.43
-22.83
-4.51
10.65
20.53
24.11
21.42
13.49
1.97
-11.16
-23.85
-33.96
-40.28
-41.80
-38.18
-30.08
-18.67
-5.77
6.28
15.27
19.23
16.88
8.25
-5.54
-22.93
-41.74
-59.95
-76.12
-89.43
-99.68
-107.28
-112.58
-115.85
-117.99
-119.79
-122.14
-126.21
-133.33
-144.95
-162.71
-188.58
-220.80
-258.83
-300.84
-342.94
-379.54
-404.76
-414.46
-407.62
-386.27
-354.34
-316.55
-276.29
-235.56
-195.62
-157.82
-123.83
-95.20
-72.48
-54.87
-40.98
-29.05
-17.90
-7.20
2.67
11.20
18.02
23.23
27.34
30.76
33.93
37.04
40.10
42.86
45.15
46.92
48.23
49.22
49.89
50.28
50.44
50.57
51.00
52.24
54.80
58.92
64.49
71.07
78.07
85.09
92.07
99.32
107.42
116.92
127.92
140.14
153.07
166.32
180.00
194.82
211.87
232.50
258.07
289.88
328.90
375.06
426.25
477.75
522.63
553.58
565.36
556.89
531.68
496.35
458.06
421.90
390.02
362.09
337.00
314.52
295.40
280.34
268.70
258.04
244.99
227.48
206.00
183.42
163.21
147.11
134.14
121.40
105.99
86.95
65.83
45.36
27.51
12.34
-1.96
-17.67
-36.44
-58.84
-84.78
-113.89
-145.52
-178.50
-210.61
-238.94
-260.76
-274.60
-280.79
-281.23
-278.49
-275.14
-272.86
-271.94
-270.83
-266.33
-254.34
-231.46
-196.85
-153.55
-108.40
-70.02
-46.00
-39.70
-49.06
-67.50
-86.57
-99.22
-101.99
-95.39
-82.23
-65.51
-46.98
-26.83
-4.69
19.21
43.46
65.66
83.71
96.52
104.32
108.29
109.80
109.89
109.25
108.21
106.69
104.24
100.12
93.51
84.12
72.40
59.43
46.40
33.73
21.14
8.19
-5.12
-17.96
-28.89
-36.60
-40.75
-42.08
-42.00
-42.10
-43.27
-45.68
-48.76
-51.43
-52.30
-49.91
-43.12
-31.85
-17.36
-2.20
10.59
18.55
20.95
18.88
14.62
10.43
7.42
5.27
2.66
-1.69
-8.21
-16.30
-24.78
-32.54
-39.03
-44.17
-48.04
-50.58
-51.44
-50.34
-47.28
-42.92
-38.42
-35.14
-34.12
-35.71
-39.58
-44.83
-50.45
-55.69
-60.25
-64.19
-68.02
-72.29
-77.37
-83.33
-89.75
-95.95
-101.31
-105.38
-108.00
-109.22
-109.03
-107.39
-104.25
-99.78
-94.57
-89.67
-86.15
-84.69
-85.40
-87.60
-90.47
-93.38
-96.36
-100.12
-105.56
-113.23
-122.95
-133.93
-145.02
-155.17
-163.53
-169.48
-172.57
-172.40
-168.77
-161.85
-152.27
-140.78
-127.65
-112.38
-93.97
-71.65
-45.53
-16.80
12.81
42.06
70.93
100.98
134.51
172.70
214.53
256.63
294.42
323.58
341.16
346.05
339.82
326.36
310.47
295.86
283.61
271.66
255.20
228.41
186.58
129.90
64.62
1.03
-50.63
-84.09
-98.87
-100.10
-95.79
-94.01
-98.81
-109.03
-120.15
-126.98
-124.99
-110.70
-81.77
-34.94
23.57
78.27
113.86
124.25
112.45
86.14
53.50
20.74
-8.88
-34.57
-55.48
-69.52
-74.67
-71.11
-61.48
-49.75
-39.83
-34.46
-34.64
-38.96
-43.98
-46.36
-44.76
-39.85
-33.59
-28.35
-25.78
-26.70
-30.53
-35.50
-39.90
-43.18
-45.89
-49.22
-54.61
-62.84
-73.88
-86.70
-99.25
-109.20
-114.80
-115.97
-111.87
-102.70
-89.23
-72.74
-54.78
-37.02
-20.99
-8.27
-0.23
2.39
-0.67
-8.78
-20.73
-34.77
-48.94
-61.15
-69.78
-73.90
-73.20
-68.28
-60.17
-50.36
-40.55
-32.19
-26.00
-22.34
-21.21
-22.26
-25.04
-29.01
-33.55
-38.39
-43.46
-48.30
-52.74
-56.80
-60.42
-63.39
-65.28
-65.16
-61.64
-57.68
-54.17
-51.59
-50.41
-50.98
-53.57
-58.40
-65.44
-74.43
-84.93
-95.63
-105.36
-112.91
-117.38
-118.15
-115.16
-108.83
-100.00
-89.89
-79.38
-69.61
-61.63
-56.27
-54.01
-55.15
-59.52
-66.64
-75.93
-86.28
-96.68
-106.25
-114.17
-119.83
-122.96
-123.32
-120.96
-116.09
-108.86
-99.52
-88.39
-75.70
-61.74
-46.76
-31.00
-14.71
1.84
18.40
34.57
49.89
63.90
76.09
86.05
93.43
98.05
99.92
99.26
96.37
91.55
85.06
77.08
67.68
56.95
45.07
32.40
19.73
8.04
-1.57
-8.11
-10.86
-9.58
-4.57
3.53
13.99
26.11
39.37
53.27
67.27
80.66
92.59
102.12
108.62
111.94
112.57
111.50
109.92
108.73
108.26
108.29
108.39
108.39
108.57
109.78
113.21
119.96
130.96
146.91
168.41
195.56
227.20
260.25
290.19
312.35
323.73
324.35
317.18
306.78
297.44
291.77
290.37
292.24
295.42
297.62
296.48
289.98
276.82
257.01
232.13
205.06
179.22
157.56
142.19
133.76
130.93
130.66
129.04
122.58
109.64
90.76
68.09
44.11
20.20
-3.91
-29.51
-57.76
-89.00
-122.20
-154.86
-183.13
-202.18
-207.57
-197.18
-172.64
-139.51
-105.55
-77.52
-58.63
-47.74
-41.10
-35.19
-29.03
-24.29
-23.90
-29.35
-39.24
-49.70
-56.58
-57.40
-52.67
-45.04
-38.03
-34.24
-34.66
-38.49
-43.72
-48.53
-52.02
-55.00
-59.67
-68.57
-82.90
-101.46
-120.44
-134.83
-140.74
-137.07
-125.64
-109.87
-92.50
-74.61
-55.76
-35.27
-13.47
8.18
27.77
43.94
56.20
64.85
70.10
72.18
71.62
69.77
68.36
68.99
71.98
76.34
80.60
83.93
87.01
91.67
99.26
109.80
121.58
132.01
138.87
141.69
141.73
141.31
142.70
146.75
153.02
160.12
166.36
170.34
171.49
169.41
163.96
154.40
139.33
117.72
89.65
57.08
23.42
-7.85
-35.17
-59.44
-83.90
-112.16
-145.93
-184.34
-224.44
-262.16
-293.20
-313.33
-318.05
-303.06
-265.96
-207.49
-132.62
-49.64
32.15
104.29
159.81
193.63
202.90
187.64
152.01
103.66
52.03
5.26
-32.75
-62.87
-89.00
-114.83
-141.61
-167.61
-189.88
-205.90
-214.87
-217.90
-216.89
-213.64
-209.48
-205.79
-203.72
-203.90
-205.79
-207.46
-206.16
-199.27
-185.60
-165.96
-143.19
-120.83
-101.76
-86.79
-74.39
-61.70
-46.62
-29.35
-12.53
0.20
6.56
7.12
5.22
5.39
11.20
23.83
41.93
62.76
83.76
103.39
121.13
136.84
150.04
159.73
164.79
164.56
159.26
150.07
139.30
129.84
124.32
124.06
128.30
134.48
139.38
140.59
137.30
130.36
121.37
111.58
101.26
89.66
75.74
58.82
39.10
17.61
-4.14
-24.59
-42.45
-56.76
-66.99
-72.83
-74.13
-70.76
-62.60
-49.63
-32.50
-12.89
6.69
23.39
35.19
41.79
44.69
46.50
49.37
53.88
58.69
61.49
60.28
54.41
45.08
34.57
25.33
18.79
15.04
12.94
10.64
6.28
-1.71
-14.11
-30.77
-50.57
-71.71
-92.11
-109.75
-123.14
-131.40
-134.45
-132.60
-126.66
-117.55
-106.34
-94.22
-82.30
-71.36
-61.50
-52.13
-42.27
-31.37
-19.70
-8.34
1.22
7.79
10.92
11.32
10.74
11.55
16.03
25.59
40.29
58.67
78.22
96.27
110.97
121.62
128.37
131.64
131.48
127.71
120.54
111.14
101.37
92.90
85.98
79.17
70.18
57.39
40.91
22.59
4.97
-10.20
-22.88
-34.60
-47.34
-62.62
-80.61
-100.49
-120.81
-140.10
-157.23
-171.74
-183.97
-194.53
-203.89
-211.64
-216.58
-217.38
-213.67
-206.80
-199.13
-192.81
-188.09
-182.89
-173.64
-157.15
-132.26
-100.14
-63.46
-25.06
13.11
49.94
84.65
116.44
144.30
167.11
184.21
195.23
200.34
200.29
196.49
190.90
185.77
182.94
183.07
185.58
189.14
192.66
195.99
199.92
205.54
213.33
222.70
232.19
240.29
246.00
249.04
249.23
245.64
236.38
219.20
192.85
157.95
117.16
74.46
33.84
-1.45
-28.93
-46.83
-53.88
-49.63
-34.92
-12.26
14.47
41.02
64.14
82.50
96.43
107.34
116.44
123.94
128.71
128.40
120.18
101.71
71.95
31.52
-17.16
-70.25
-122.95
-170.28
-208.00
-233.71
-247.31
-251.22
-250.05
-249.37
-254.17
-267.67
-290.39
-320.30
-353.71
-386.32
-414.25
-434.64
-446.03
-448.53
-443.78
-433.65
-418.91
-397.83
-366.14
-318.83
-253.03
-170.40
-77.61
15.16
97.69
162.63
207.23
232.62
241.97
238.76
226.19
207.59
187.23
170.29
161.49
163.54
175.81
194.28
213.17
227.22
233.37
231.38
223.24
211.67
198.80
185.52
170.99
153.07
128.72
94.52
47.68
-12.32
-82.81
-158.07
-230.60
-293.45
-341.67
-373.09
-387.73
-386.64
-370.97
-341.80
-300.55
-249.54
-191.85
-130.39
-67.62
-5.51
53.77
106.77
149.01
176.67
189.04
190.05
187.59
190.41
204.16
228.81
258.53
284.68
300.21
302.98
296.14
285.66
276.75
271.33
268.04
264.05
257.36
248.02
237.42
226.62
214.88
199.89
179.09
151.63
119.29
85.80
54.67
27.09
1.41
-25.72
-57.03
-93.02
-131.57
-169.08
-202.01
-228.21
-247.60
-261.87
-273.76
-285.43
-296.94
-305.38
-305.43
-290.91
-257.24
-203.67
-134.09
-56.45
19.33
83.11
126.23
142.75
131.00
95.28
46.18
-1.44
-33.09
-40.11
-23.96
3.69
25.30
25.22
-3.93
-58.68
-127.23
-195.25
-251.15
-289.08
-308.60
-312.29
-302.49
-281.04
-250.53
-216.28
-185.85
-165.37
-155.85
-152.13
-145.52
-127.83
-95.33
-49.61
4.93
65.08
131.16
205.19
286.48
361.41
409.70
414.69
375.17
306.71
230.96
163.07
106.09
53.74
-2.52
-66.08
-133.37
-197.07
-251.40
-296.63
-335.19
-369.21
-398.53
-420.55
-430.08
-421.08
-389.98
-338.23
-271.96
-199.01
-125.83
-55.48
12.48
78.92
144.69
209.96
273.75
334.03
388.09
432.73
464.35
479.16
474.97
452.27
413.85
363.30
303.02
233.51
155.05
70.47
-14.59
-93.42
-160.74
-214.98
-257.69
-290.53
-311.83
-315.97
-296.47
-251.56
-187.30
-116.82
-55.54
-14.91
1.57
-0.99
-12.27
-21.30
-20.54
-6.71
19.73
56.38
100.43
148.71
197.32
241.16
274.18
290.67
287.52
265.13
227.71
182.89
139.36
103.69
78.43
61.31
46.47
26.98
-2.78
-45.25
-98.86
-158.95
-218.79
-271.07
-309.00
-327.17
-322.95
-297.84
-257.95
-212.45
-170.85
-139.44
-119.43
-107.89
-100.55
-94.66
-89.95
-87.66
-88.35
-90.66
-91.09
-85.21
-69.45
-42.25
-4.77
39.74
86.95
132.72
173.48
207.20
233.33
252.00
263.55
267.18
262.03
247.89
226.46
200.53
173.00
145.84
119.71
95.78
75.93
63.55
62.59
75.93
103.18
139.90
178.50
210.13
227.74
226.73
205.91
167.59
117.23
62.57
12.19
-25.50
-47.51
-51.54
-39.65
-19.39
-1.80
2.84
-10.42
-39.79
-77.85
-115.91
-146.61
-167.18
-178.75
-183.85
-184.22
-180.02
-170.87
-157.07
-141.01
-125.84
-114.94
-110.04
-110.29
-112.64
-113.14
-109.15
-100.10
-87.99
-75.86
-66.86
-62.86
-63.86
-68.31
-73.63
-76.88
-74.55
-63.64
-42.59
-13.26
18.81
46.36
62.96
66.19
58.32
45.77
35.79
33.73
40.86
54.56
70.72
85.16
96.14
102.73
105.79
106.97
107.70
108.18
107.04
102.06
91.14
74.07
52.34
28.73
5.82
-15.09
-33.86
-50.42
-63.68
-71.76
-72.33
-64.62
-50.35
-33.05
-16.76
-3.97
4.96
11.64
18.30
26.76
37.66
49.87
61.49
70.15
74.18
73.05
67.64
60.18
53.73
51.32
55.20
66.36
84.10
106.48
130.47
152.54
169.64
180.29
185.30
187.55
190.74
197.51
208.35
222.12
235.18
242.96
241.75
230.19
209.26
181.56
150.23
117.90
86.28
55.91
26.80
-1.34
-28.80
-56.15
-84.10
-113.06
-143.04
-172.97
-200.81
-223.47
-237.32
-238.70
-225.01
-194.91
-148.63
-88.16
-16.76
61.19
140.87
217.17
285.05
339.67
376.95
394.05
389.58
364.12
320.08
261.54
193.69
122.20
52.63
-10.16
-62.43
-101.99
-128.10
-141.26
-143.01
-135.71
-122.31
-105.82
-89.00
-74.05
-62.56
-55.60
-53.68
-56.77
-64.70
-77.45
-94.98
-117.03
-142.97
-171.55
-201.06
-229.55
-254.88
-275.28
-289.99
-299.30
-304.18
-305.90
-305.33
-302.63
-296.93
-286.45
-269.17
-243.56
-209.24
-166.98
-118.64
-66.52
-13.43
37.75
83.97
121.86
147.76
158.22
150.73
124.86
83.22
30.99
-25.21
-79.11
-126.27
-164.93
-195.60
-220.08
-239.96
-255.91
-268.38
-278.41
-287.37
-295.73
-301.53
-300.49
-288.46
-265.20
-236.69
-214.28
-210.27
-231.79
-277.23
-337.01
-398.85
-453.67
-498.29
-533.27
-558.12
-567.80
-552.99
-505.21
-422.51
-312.45
-190.34
-73.92
23.19
94.89
142.37
170.89
185.86
190.75
187.09
175.99
159.57
141.60
126.34
117.09
114.84
117.66
121.46
121.56
114.32
98.33
74.74
46.44
16.94
-10.77
-34.93
-54.90
-70.54
-81.65
-87.48
-86.71
-78.14
-61.43
-37.27
-7.27
26.65
62.82
100.17
138.48
178.08
219.27
261.64
304.39
346.92
389.29
432.27
476.22
520.18
561.06
593.87
612.78
613.75
596.51
564.60
523.89
479.96
436.18
393.41
350.54
304.40
252.68
195.16
133.41
69.05
2.96
-63.47
-126.42
-179.47
-218.78
-243.06
-253.91
-255.55
-253.09
-249.50
-242.33
-223.33
-182.69
-119.49
-39.89
45.98
127.35
193.61
234.91
244.09
218.46
160.05
68.61
-52.08
-192.08
-336.60
-472.40
-591.88
-692.95
-776.67
-802.24
-743.77
-609.78
-441.50
-280.88
-148.77
-46.60
32.63
97.31
153.13
196.09
221.08
227.95
223.32
215.88
212.51
216.61
229.12
248.75
267.79
278.61
277.97
269.78
257.70
244.17
229.85
214.56
197.68
176.07
147.42
112.44
75.54
41.58
13.72
-7.19
-21.29
-29.24
-32.65
-32.55
-28.56
-18.27
0.20
26.79
59.32
95.64
130.88
159.30
175.75
172.77
147.70
105.23
54.77
5.10
-38.53
-74.28
-101.90
-122.03
-135.54
-142.35
-142.76
-138.14
-130.36
-121.44
-112.87
-105.19
-98.60
-93.63
-90.49
-89.44
-90.11
-89.92
-84.41
-68.62
-39.83
-0.21
43.03
80.44
104.04
109.31
97.33
72.92
42.25
11.20
-16.38
-37.75
-52.17
-57.96
-56.10
-49.69
-43.89
-43.70
-50.71
-62.64
-72.93
-74.47
-63.09
-41.21
-16.43
0.50
1.63
-13.72
-38.61
-60.61
-67.57
-51.88
-13.67
41.55
103.94
163.93
214.97
253.04
275.24
278.83
261.48
216.08
147.34
63.71
-25.50
-111.68
-188.18
-250.63
-300.01
-333.25
-346.48
-336.91
-305.97
-259.01
-204.21
-150.09
-103.43
-67.88
-43.49
-28.62
-21.08
-19.71
-22.96
-29.13
-35.29
-38.25
-35.93
-27.41
-13.80
2.69
19.53
36.15
53.59
74.45
100.89
133.65
172.49
215.89
261.08
304.65
343.48
374.01
393.54
400.33
394.71
379.44
357.74
329.57
291.04
236.79
162.39
69.12
-36.24
-143.21
-240.51
-310.03
-337.86
-321.67
-268.34
-188.23
-89.61
18.79
125.86
219.28
288.73
328.22
337.97
332.25
318.00
301.47
285.99
271.70
256.34
237.35
213.01
182.81
149.66
116.45
85.49
55.79
24.96
-10.13
-53.39
-109.06
-180.69
-266.10
-358.82
-448.83
-526.84
-587.04
-627.90
-650.18
-654.62
-641.41
-606.59
-546.82
-462.71
-361.65
-256.60
-162.14
-89.81
-34.46
1.43
15.43
8.90
-10.81
-32.60
-45.74
-43.44
-24.22
7.24
40.62
67.43
82.11
82.52
69.18
44.59
12.91
-20.03
-47.88
-69.54
-82.05
-85.13
-81.74
-76.24
-72.05
-70.09
-68.91
-66.01
-60.33
-50.86
-37.62
-21.43
-3.74
13.53
28.46
39.78
47.00
50.68
49.68
44.88
38.02
30.84
24.33
18.56
12.85
5.91
-3.76
-16.73
-32.37
-49.57
-66.76
-82.42
-95.15
-103.68
-107.17
-105.06
-96.98
-82.59
-62.34
-37.44
-9.84
18.11
44.15
66.49
84.21
97.40
107.09
114.49
120.71
126.49
132.40
138.99
146.76
156.03
166.60
177.62
187.46
194.16
195.86
190.89
177.91
155.91
124.78
86.21
44.13
4.43
-26.53
-43.96
-46.38
-35.91
-17.39
3.56
22.36
36.16
43.75
44.57
38.15
24.01
2.57
-24.21
-52.73
-78.41
-97.15
-106.43
-105.97
-97.15
-82.34
-64.40
-46.58
-32.61
-25.82
-27.91
-37.28
-48.73
-54.95
-49.34
-28.96
4.32
45.03
87.20
127.02
164.32
201.32
240.24
281.17
321.07
354.73
376.39
381.84
369.04
338.59
293.15
236.69
173.72
108.83
45.91
-12.58
-65.58
-113.23
-156.35
-195.91
-232.63
-266.35
-295.29
-315.56
-321.64
-307.75
-270.34
-210.50
-135.10
-55.94
13.91
64.09
89.92
92.91
79.20
56.70
32.44
10.78
-7.62
-25.07
-45.99
-74.79
-113.99
-162.25
-214.43
-262.47
-298.02
-315.35
-313.24
-295.47
-269.09
-241.96
-219.81
-204.68
-194.69
-185.20
-170.95
-148.09
-115.47
-74.62
-28.87
17.35
59.33
92.85
114.66
123.40
120.03
107.83
91.45
75.93
65.32
61.70
65.31
74.85
87.83
100.47
108.04
106.01
92.34
69.43
44.39
26.87
25.11
42.08
74.14
112.72
148.40
174.89
190.60
197.91
200.74
202.63
205.82
211.76
221.99
238.42
262.37
293.29
327.89
360.66
385.41
397.40
395.15
380.82
359.36
336.35
315.93
299.24
284.33
267.52
245.86
219.41
191.51
167.13
150.04
140.91
136.95
133.78
127.95
118.62
107.45
96.89
88.21
80.68
72.61
62.86
51.99
42.13
35.66
33.85
36.40
41.67
47.82
53.45
57.97
61.56
64.83
68.50
72.84
77.70
82.47
86.40
88.94
90.06
90.25
90.35
91.15
93.10
96.23
99.87
103.13
105.00
104.82
102.23
97.31
90.29
81.35
70.58
57.76
42.59
24.77
4.30
-18.52
-43.02
-68.38
-94.03
-119.65
-145.31
-171.21
-197.52
-224.25
-251.15
-277.89
-303.97
-328.46
-349.43
-363.98
-368.68
-361.08
-340.77
-309.52
-270.46
-226.39
-178.73
-127.43
-72.50
-15.23
40.96
91.36
131.65
159.19
173.34
174.10
161.16
133.32
90.11
33.76
-29.79
-91.68
-142.53
-174.97
-185.90
-176.76
-152.80
-121.33
-90.06
-66.08
-54.27
-56.66
-71.75
-95.15
-120.95
-143.54
-158.97
-165.67
-164.18
-155.83
-142.10
-123.92
-101.78
-75.99
-47.14
-16.22
15.32
45.32
71.10
89.43
97.09
91.52
72.83
45.38
15.20
-12.19
-33.24
-46.93
-53.97
-54.70
-48.01
-31.23
-1.61
38.84
81.61
114.29
125.56
110.21
72.07
21.59
-27.09
-59.12
-66.72
-50.80
-17.42
25.68
71.50
114.71
147.47
163.17
163.03
146.72
111.43
57.58
-11.19
-88.72
-167.95
-250.25
-336.35
-411.60
-466.57
-500.74
-513.08
-502.83
-470.34
-418.23
-364.48
-326.22
-295.38
-270.29
-261.10
-274.12
-311.82
-373.23
-455.05
-568.70
-720.29
-880.58
-1028.39
-1160.10
-1271.66
-1360.02
-1423.78
-1361.46
-1120.15
-863.62
-663.57
-490.24
-338.59
-205.28
-87.35
19.07
118.46
199.10
252.57
302.99
363.38
427.84
491.70
552.28
608.90
661.82
698.36
708.42
708.33
708.67
708.75
710.78
718.68
735.82
763.30
790.86
807.37
816.69
818.98
807.52
777.99
728.43
659.78
575.97
479.60
375.03
273.54
181.78
99.04
22.38
-51.14
-121.87
-186.33
-239.77
-277.37
-293.20
-284.67
-253.29
-202.95
-139.43
-68.90
3.45
74.33
142.15
201.28
243.25
261.20
253.62
223.67
177.57
123.13
67.98
17.22
-26.33
-63.43
-96.92
-129.36
-162.58
-196.78
-230.94
-264.33
-300.33
-337.23
-372.11
-400.93
-418.38
-419.98
-402.26
-363.54
-298.98
-216.26
-124.65
-32.89
51.85
125.17
184.06
226.90
258.69
278.97
287.33
286.01
277.21
261.47
237.82
204.23
159.60
105.81
46.48
-12.39
-63.02
-99.34
-117.99
-118.29
-101.75
-74.06
-42.17
-15.44
-2.53
-8.69
-34.72
-76.53
-126.47
-176.20
-219.12
-250.73
-270.30
-278.82
-278.06
-270.42
-258.37
-244.08
-229.24
-214.78
-200.13
-184.35
-166.18
-144.40
-118.24
-87.55
-52.79
-14.97
24.70
64.87
103.82
139.71
170.80
196.04
215.52
230.56
243.65
257.70
275.17
297.35
323.79
352.66
381.28
406.96
427.48
441.43
448.25
448.42
444.15
438.95
436.66
439.52
446.20
451.29
446.68
424.32
379.24
311.41
225.30
128.06
27.34
-70.17
-159.34
-236.07
-296.96
-339.43
-362.34
-366.90
-356.85
-338.15
-317.49
-299.95
-286.71
-274.39
-257.38
-231.50
-197.73
-162.73
-136.17
-126.12
-134.97
-158.94
-191.21
-226.60
-264.05
-306.16
-355.39
-410.25
-463.96
-506.36
-527.65
-522.01
-489.14
-433.06
-360.46
-278.94
-196.24
-119.58
-55.63
-10.25
12.39
10.23
-15.82
-61.59
-120.52
-184.61
-245.91
-297.93
-336.35
-358.95
-365.33
-356.31
-333.32
-298.33
-253.59
-201.46
-144.40
-84.66
-24.11
35.77
93.44
146.75
192.70
227.13
245.68
244.53
221.94
178.77
118.84
48.17
-25.80
-94.73
-150.37
-185.48
-195.79
-180.81
-144.12
-91.72
-29.36
39.51
114.36
196.18
284.49
374.58
458.03
524.85
567.19
582.04
571.25
539.90
494.00
438.44
376.52
310.81
244.09
179.83
121.72
72.62
34.07
6.64
-10.56
-19.42
-22.39
-21.34
-16.92
-8.45
5.21
25.07
53.83
92.22
138.63
189.25
239.61
286.59
329.54
369.30
407.05
448.58
496.57
549.94
604.07
653.72
696.25
732.15
762.56
787.40
813.78
845.92
885.22
928.51
969.91
1003.39
1024.14
1029.33
1019.15
1008.81
1012.56
1038.08
1079.89
1121.65
1144.14
1132.91
1083.04
930.23
651.67
268.75
-153.84
-541.93
-846.60
-1053.66
-1173.13
-1224.40
-1226.79
-1180.78
-1095.16
-983.29
-865.81
-764.61
-693.83
-656.02
-643.47
-643.52
-635.50
-610.99
-567.93
-513.54
-458.56
-410.41
-371.13
-339.76
-316.01
-296.44
-280.79
-269.18
-262.80
-262.08
-266.02
-273.31
-283.42
-296.27
-308.02
-313.58
-306.20
-281.26
-237.86
-179.35
-112.38
-45.09
14.74
62.53
96.72
119.30
133.92
144.64
154.08
162.20
166.43
163.05
149.85
128.29
103.98
83.81
72.18
68.28
66.29
58.60
40.12
11.13
-22.77
-53.76
-75.81
-87.01
-89.48
-87.23
-83.74
-80.75
-78.58
-77.42
-78.45
-83.84
-95.84
-115.61
-142.16
-172.43
-202.32
-228.07
-247.61
-261.25
-271.35
-281.07
-292.73
-306.42
-319.34
-326.77
-323.65
-306.75
-276.15
-235.57
-191.25
-149.71
-115.81
-91.13
-74.19
-61.54
-49.37
-34.97
-17.25
3.33
25.68
48.27
69.55
87.71
100.72
106.83
104.92
95.37
79.94
61.30
42.13
24.37
8.99
-3.96
-14.56
-23.03
-29.45
-33.86
-36.49
-37.59
-37.56
-36.92
-36.52
-37.42
-40.72
-46.94
-55.36
-63.90
-69.29
-68.43
-59.48
-43.08
-22.37
-2.11
12.94
19.63
17.07
6.83
-8.41
-25.61
-42.30
-56.65
-67.38
-73.39
-73.88
-68.65
-58.16
-43.85
-27.66
-11.67
2.29
12.72
18.60
19.41
15.26
7.19
-3.13
-13.82
-23.24
-30.68
-36.42
-41.49
-46.81
-52.72
-58.87
-64.70
-69.87
-74.30
-78.34
-82.55
-87.71
-94.21
-102.01
-110.58
-119.11
-126.73
-132.19
-134.14
-131.70
-125.25
-115.98
-105.81
-96.30
-88.06
-79.94
-68.27
-48.06
-15.26
30.21
85.33
144.44
201.28
250.30
288.19
315.39
334.94
349.88
359.47
362.40
356.90
341.72
314.70
273.35
217.62
150.67
77.15
-1.26
-80.60
-156.10
-221.48
-272.60
-307.08
-320.41
-305.14
-254.52
-170.23
-57.14
74.12
211.42
339.32
428.10
449.61
394.02
300.51
195.25
92.50
-10.38
-107.71
-191.01
-250.78
-275.68
-254.33
-181.80
-67.09
75.12
224.50
366.62
490.42
588.47
641.82
638.65
579.18
474.14
363.96
261.45
171.40
95.30
29.42
-24.75
-63.48
-85.93
-97.76
-106.33
-121.00
-143.15
-169.88
-196.75
-218.99
-232.20
-234.62
-228.20
-216.21
-204.26
-194.03
-185.75
-179.55
-174.89
-169.86
-162.04
-149.65
-131.94
-111.10
-88.56
-66.15
-46.26
-30.94
-20.90
-15.56
-13.29
-12.09
-11.12
-9.40
-6.35
-2.03
3.52
10.55
19.47
30.49
43.21
56.40
69.05
80.55
90.66
99.27
106.13
110.56
111.88
109.78
104.58
97.25
88.99
80.66
72.13
62.41
50.11
34.23
14.99
-6.09
-26.57
-43.79
-55.82
-61.96
-62.70
-59.55
-55.04
-51.85
-52.52
-58.36
-68.45
-79.77
-87.78
-87.93
-78.09
-61.01
-43.86
-36.08
-44.72
-70.97
-109.92
-152.27
-187.73
-207.94
-208.53
-188.79
-150.68
-97.33
-32.33
39.52
112.55
181.62
242.74
290.56
319.46
324.13
301.09
250.61
176.37
87.14
-11.01
-111.89
-209.42
-298.36
-374.81
-436.15
-472.77
-470.45
-423.27
-335.38
-219.60
-93.10
27.87
131.37
210.20
260.71
280.87
270.90
235.53
184.65
130.82
85.24
54.32
38.68
34.86
37.29
41.07
43.65
44.49
43.51
40.23
34.01
25.10
15.25
6.74
1.13
-0.99
-0.31
1.60
2.95
2.54
0.22
-3.06
-6.05
-7.91
-8.25
-7.31
-5.78
-4.56
-4.44
-5.62
-7.73
-10.03
-11.77
-12.35
-11.34
-8.60
-4.07
2.22
10.47
20.95
33.85
48.87
65.11
81.16
95.04
105.34
110.19
108.67
100.95
88.22
72.20
54.93
38.15
22.94
9.99
-0.38
-8.06
-12.60
-13.37
-10.03
-2.88
6.69
16.16
22.76
23.96
17.97
5.37
-11.43
-29.11
-44.67
-56.09
-62.93
-65.94
-66.57
-67.23
-68.86
-71.40
-74.07
-75.37
-73.09
-65.29
-51.46
-33.96
-19.36
-14.70
-26.30
-56.36
-101.45
-152.64
-198.72
-229.99
-235.43
-217.19
-181.57
-136.09
-85.72
-32.71
22.48
78.91
134.72
186.82
232.67
271.22
301.36
322.73
334.95
337.12
327.58
305.21
269.94
219.15
160.20
100.22
45.49
0.34
-33.25
-55.74
-68.89
-75.25
-77.68
-77.39
-75.70
-73.05
-69.61
-65.70
-61.94
-59.03
-57.85
-59.41
-63.74
-71.62
-83.09
-97.62
-114.46
-134.31
-154.22
-171.82
-184.63
-189.87
-185.97
-171.58
-146.23
-110.66
-66.61
-16.29
36.92
89.25
137.40
178.16
209.54
230.35
240.70
241.95
236.72
227.91
217.67
207.97
200.42
196.10
195.13
197.00
201.11
206.51
211.56
213.08
207.34
191.05
161.85
117.69
57.31
-19.65
-114.35
-219.61
-329.03
-435.58
-531.82
-610.07
-664.08
-689.68
-685.00
-651.31
-592.35
-515.21
-427.46
-336.11
-246.24
-160.76
-80.83
-6.55
61.80
123.19
174.58
212.54
233.76
235.94
219.34
185.07
137.67
85.76
40.45
11.40
4.44
19.03
48.88
83.28
112.14
129.23
133.81
129.46
120.48
109.61
96.51
80.00
58.39
31.55
0.84
-31.89
-65.21
-98.62
-131.77
-166.84
-200.57
-228.94
-247.10
-250.85
-238.07
-208.56
-164.24
-105.55
-39.40
27.95
89.26
137.71
167.77
176.78
167.04
144.75
118.39
95.55
84.10
85.11
97.71
118.70
142.90
163.66
173.66
167.18
141.56
99.27
46.05
-9.70
-60.68
-102.43
-133.34
-154.16
-166.63
-172.84
-174.97
-175.57
-175.92
-176.93
-179.11
-182.21
-185.59
-188.30
-189.21
-187.11
-184.53
-181.70
-178.51
-174.66
-169.65
-162.89
-153.53
-141.03
-125.22
-106.55
-83.79
-56.61
-25.98
5.78
35.90
62.16
83.27
98.84
109.02
118.28
130.50
147.40
167.82
188.89
208.05
223.76
235.28
242.25
250.35
264.13
284.95
309.86
334.11
354.26
369.78
382.35
394.93
418.18
460.79
526.25
610.69
705.93
803.45
896.44
979.69
1002.30
931.59
764.21
530.19
272.33
24.14
-197.55
-387.88
-547.49
-678.21
-774.27
-834.60
-859.33
-852.51
-820.62
-769.94
-705.12
-629.67
-546.75
-453.65
-350.23
-241.83
-138.85
-53.00
6.79
36.42
36.62
11.38
-29.78
-77.35
-123.79
-165.03
-199.45
-226.43
-245.49
-256.17
-258.73
-252.45
-237.71
-216.04
-190.12
-162.15
-133.96
-106.33
-79.28
-52.59
-25.54
2.06
29.94
57.44
85.45
114.74
145.98
179.68
215.83
253.88
292.60
330.46
365.95
400.35
434.41
468.20
501.45
534.19
567.23
601.40
636.16
668.13
693.32
703.96
690.95
648.05
574.90
477.83
366.95
252.85
125.64
-13.90
-156.54
-287.06
-390.32
-457.38
-487.06
-484.72
-458.84
-419.06
-371.52
-322.20
-277.26
-241.88
-219.72
-209.42
-208.33
-210.80
-210.19
-198.73
-172.92
-134.14
-86.60
-35.74
14.08
60.48
103.88
145.87
189.96
239.10
289.65
338.34
381.31
414.57
434.35
438.92
427.43
400.74
359.98
305.88
240.01
164.43
82.00
-4.43
-89.40
-168.32
-236.63
-290.78
-328.92
-350.45
-356.79
-350.98
-338.67
-321.40
-301.81
-281.45
-261.00
-240.84
-220.96
-201.54
-182.84
-168.07
-154.25
-141.52
-129.72
-117.81
-103.52
-83.57
-55.31
-18.74
18.26
51.95
72.88
72.77
47.49
-1.53
-67.46
-140.01
-183.35
-218.17
-235.51
-235.10
-219.83
-193.50
-158.84
-116.86
-67.56
-12.05
42.48
95.12
141.45
179.67
211.06
238.29
262.41
281.02
288.92
278.60
253.04
217.77
181.70
152.99
134.97
125.40
118.53
108.71
91.95
72.74
56.24
47.13
47.48
56.05
69.02
81.40
87.87
83.57
68.69
46.20
22.60
5.74
1.07
8.57
21.97
30.21
22.85
-3.79
-45.63
-92.48
-132.63
-157.95
-166.33
-161.06
-150.29
-141.13
-137.55
-140.60
-150.60
-168.45
-195.73
-232.85
-277.49
-328.69
-382.41
-431.81
-469.68
-491.59
-497.45
-490.82
-476.24
-457.50
-443.30
-439.01
-444.87
-457.04
-470.98
-483.80
-494.38
-501.63
-504.08
-508.13
-517.85
-532.68
-548.03
-559.33
-565.56
-569.56
-576.11
-536.61
-427.91
-257.69
-58.89
134.38
302.51
438.26
539.33
605.43
638.78
637.27
604.00
547.74
480.37
411.98
348.44
292.25
245.25
207.24
174.50
144.49
117.02
94.55
79.51
72.64
72.98
78.91
88.68
97.16
100.02
95.57
84.98
70.82
55.59
41.62
31.39
24.29
18.82
13.54
7.79
1.86
-3.66
-8.52
-12.60
-15.86
-18.28
-19.94
-21.06
-21.50
-20.73
-18.09
-13.17
-5.69
4.17
15.91
28.94
42.15
54.13
63.49
69.05
70.03
66.26
58.09
46.44
32.82
18.88
6.18
-3.97
-10.56
-13.25
-11.94
-7.22
0.02
8.87
18.30
27.29
34.80
40.09
42.25
40.81
35.21
25.12
10.61
-7.97
-29.86
-54.09
-79.36
-104.44
-128.07
-149.42
-167.82
-182.87
-194.48
-202.60
-207.22
-208.35
-205.95
-199.85
-190.02
-176.52
-159.37
-139.02
-116.01
-91.00
-65.01
-39.32
-15.29
5.81
22.92
35.75
44.50
50.24
54.70
59.90
67.71
79.57
96.29
118.00
144.25
174.17
206.77
241.01
275.95
310.89
345.35
378.66
409.75
436.87
457.40
468.52
467.90
454.72
430.50
399.13
365.73
335.13
310.48
292.41
279.55
269.59
260.42
250.84
240.40
229.02
216.87
204.58
193.20
184.17
178.41
175.56
173.80
170.35
162.97
151.25
136.93
123.02
112.75
108.16
109.79
116.70
126.84
137.31
144.74
146.03
139.15
124.20
103.74
81.91
63.16
50.70
45.72
47.65
54.95
66.00
79.14
92.36
102.97
108.03
105.53
95.64
81.09
66.18
54.81
48.65
46.27
43.80
36.84
22.14
-1.47
-33.21
-71.00
-112.26
-153.92
-192.55
-224.70
-247.35
-258.95
-260.15
-253.76
-244.04
-235.48
-231.70
-234.68
-244.76
-261.12
-282.42
-307.72
-336.64
-369.36
-406.09
-446.63
-489.85
-533.39
-573.21
-603.84
-619.26
-614.25
-586.52
-537.81
-473.86
-402.82
-332.92
-270.01
-216.55
-171.99
-134.31
-102.13
-75.85
-57.27
-48.12
-48.08
-53.81
-59.16
-57.28
-43.17
-15.65
22.13
64.32
104.83
140.07
169.20
193.96
216.98
240.57
266.09
293.94
324.43
357.68
394.25
433.63
473.95
511.77
542.95
563.99
573.17
571.35
561.35
547.43
532.60
517.64
501.20
481.59
458.50
433.32
408.63
386.68
370.06
359.38
353.50
350.63
348.91
347.30
344.68
339.59
330.16
317.78
304.10
290.17
276.41
262.44
248.22
234.13
220.80
208.36
199.31
193.59
187.59
175.50
152.11
115.48
67.76
14.32
-60.97
-162.07
-281.79
-404.33
-512.48
-595.50
-650.84
-681.53
-692.43
-688.23
-669.30
-635.73
-590.45
-538.26
-484.51
-432.66
-384.13
-338.44
-294.64
-249.40
-200.12
-148.43
-97.86
-52.64
-15.54
11.91
29.68
39.04
35.64
22.10
3.27
-13.96
-25.59
-32.94
-42.74
-63.21
-99.72
-151.35
-211.83
-276.90
-341.77
-402.01
-453.23
-490.89
-510.66
-509.58
-487.16
-431.64
-345.52
-238.88
-125.92
-19.78
70.81
142.41
195.42
231.73
254.34
263.71
261.29
249.66
232.36
213.31
196.06
183.37
176.33
174.54
173.61
168.03
152.30
123.09
81.12
31.75
-16.53
-55.11
-78.77
-88.21
-87.68
-82.88
-77.78
-73.64
-69.65
-64.42
-57.09
-48.21
-38.79
-28.58
-16.19
0.83
24.63
55.76
92.54
132.45
170.48
201.81
222.90
232.03
229.06
215.03
191.60
159.13
121.23
79.99
37.32
-4.87
-44.72
-81.22
-113.47
-141.20
-165.42
-185.29
-200.71
-210.89
-214.33
-209.29
-194.46
-169.01
-133.29
-88.47
-36.66
18.11
71.54
119.36
157.64
183.35
194.62
190.88
172.95
143.61
105.80
63.68
21.98
-14.46
-41.48
-55.95
-56.33
-42.76
-16.24
19.49
60.14
101.22
138.79
169.68
191.81
204.19
207.02
202.12
190.47
173.88
154.26
133.54
113.22
94.28
76.68
59.14
47.05
41.40
41.79
46.56
53.37
59.69
63.53
63.59
59.60
52.07
40.72
25.81
7.77
-12.90
-35.33
-58.19
-79.83
-98.78
-114.16
-127.04
-139.34
-153.59
-172.43
-197.57
-229.12
-265.27
-302.84
-338.11
-368.28
-391.25
-405.92
-412.56
-412.94
-409.87
-406.04
-402.51
-397.52
-386.87
-365.14
-328.63
-277.51
-217.56
-158.23
-109.24
-77.08
-62.79
-61.84
-66.66
-69.63
-65.29
-52.32
-33.21
-12.65
4.15
12.89
10.93
-3.26
-30.03
-67.59
-111.50
-154.43
-187.91
-204.98
-202.65
-183.47
-154.10
-122.19
-92.92
-67.99
-46.85
-29.50
-18.14
-15.07
-20.21
-28.92
-32.26
-20.52
11.84
64.31
130.36
200.08
264.85
319.90
364.61
400.97
431.19
455.90
475.30
489.65
499.62
506.13
509.22
507.42
497.86
477.03
442.06
392.22
329.16
256.30
178.24
99.52
24.44
-43.05
-99.50
-142.43
-170.55
-184.62
-188.21
-187.04
-188.08
-196.50
-213.27
-233.99
-250.37
-252.09
-231.05
-185.42
-121.18
-50.87
10.99
52.13
65.63
51.06
15.62
-28.39
-68.31
-95.95
-110.32
-116.52
-122.60
-135.52
-156.94
-179.73
-190.00
-173.48
-122.02
-36.64
74.46
199.71
327.77
439.36
512.64
534.41
507.69
447.56
369.54
284.64
200.28
122.21
55.31
4.00
-29.49
-47.52
-56.37
-64.68
-79.67
-105.02
-140.81
-184.50
-231.25
-277.44
-319.58
-355.09
-382.61
-400.65
-406.84
-398.48
-373.56
-331.10
-267.12
-187.65
-101.76
-19.00
52.94
109.43
149.07
173.07
184.42
187.20
184.71
179.86
174.10
167.79
160.68
152.53
143.53
134.21
125.71
118.69
113.87
111.11
109.43
107.55
104.47
99.81
93.91
87.65
81.65
76.75
73.63
72.76
73.82
75.21
73.70
65.15
46.33
16.88
-19.44
-55.90
-85.16
-102.22
-105.98
-98.97
-85.36
-68.65
-50.45
-30.88
-10.00
11.19
30.34
44.76
52.91
53.95
48.65
38.69
25.92
11.78
-2.77
-16.94
-30.04
-41.02
-48.87
-52.67
-51.95
-46.99
-38.79
-28.81
-18.72
-9.88
-2.96
1.72
4.60
6.51
8.63
12.02
17.46
24.97
33.45
41.35
45.71
44.06
35.07
19.48
-0.34
-21.06
-39.25
-52.67
-60.05
-62.74
-62.52
-60.35
-55.19
-44.91
-27.77
-3.28
25.86
55.73
79.40
90.86
86.51
66.80
34.49
-6.62
-51.06
-93.99
-129.24
-155.13
-173.20
-189.04
-209.16
-239.87
-284.83
-342.68
-411.36
-460.76
-468.14
-423.24
-333.79
-217.44
-92.80
22.37
131.90
236.35
332.34
410.60
464.24
481.78
464.81
424.54
376.76
335.94
306.86
286.31
262.79
224.31
163.36
81.91
-11.46
-104.52
-184.02
-240.09
-265.39
-257.95
-220.68
-161.70
-91.08
-19.81
43.31
93.72
130.10
153.91
166.44
167.87
157.37
134.74
100.76
57.74
9.34
-40.53
-87.52
-127.06
-155.04
-168.50
-166.66
-152.29
-131.00
-109.53
-92.84
-82.08
-74.06
-63.64
-46.63
-21.38
10.38
45.23
78.40
105.38
122.59
128.84
125.60
116.68
107.56
101.53
98.30
92.02
75.46
45.10
5.20
-33.87
-61.01
-69.60
-62.53
-48.71
-40.17
-45.12
-64.88
-94.44
-128.34
-164.82
-205.01
-252.25
-291.85
-304.85
-277.74
-212.23
-121.43
-22.20
65.74
141.16
205.61
262.74
314.83
363.10
402.04
427.25
435.14
423.61
394.18
350.65
301.39
256.07
223.92
210.77
217.88
239.85
265.78
283.11
280.63
253.54
203.21
136.17
61.26
-12.53
-78.63
-133.34
-174.99
-203.97
-221.46
-230.45
-235.73
-243.55
-259.08
-284.86
-319.79
-360.12
-400.52
-435.59
-462.11
-479.38
-489.59
-495.70
-500.40
-505.05
-510.28
-513.41
-508.32
-486.88
-441.50
-369.87
-275.50
-167.32
-56.96
42.33
121.77
178.21
212.87
229.52
230.18
215.89
187.37
146.34
92.97
30.32
-35.58
-97.18
-146.70
-180.44
-199.03
-206.97
-189.89
-142.96
-72.66
7.57
77.59
143.14
213.19
293.25
381.78
471.07
548.73
604.21
631.14
627.40
576.70
476.50
342.51
200.97
76.20
-17.98
-76.03
-98.99
-94.98
-77.74
-63.42
-65.56
-89.59
-129.46
-171.92
-201.90
-209.98
-196.37
-168.72
-136.90
-108.09
-86.35
-68.10
-50.69
-32.99
-16.38
-3.39
4.53
8.62
11.64
16.13
22.64
28.73
30.69
24.68
8.72
-16.36
-46.33
-75.82
-100.03
-115.91
-122.21
-116.37
-97.07
-63.81
-17.97
36.97
94.52
145.92
182.00
196.25
186.57
155.21
108.20
53.18
-2.73
-54.16
-98.09
-134.21
-164.18
-190.50
-215.51
-238.61
-255.60
-259.63
-244.05
-206.11
-149.42
-83.92
-22.08
24.98
51.98
60.09
55.15
44.30
33.63
27.38
27.88
35.67
49.10
64.54
77.21
83.92
85.76
87.96
97.61
118.60
147.68
174.34
185.03
169.16
123.66
54.41
-27.25
-108.37
-178.34
-229.90
-258.76
-262.42
-239.89
-192.85
-125.82
-46.75
34.68
108.91
168.85
210.69
234.64
244.39
245.71
245.04
247.92
257.94
275.32
297.09
317.24
328.37
324.62
304.47
271.53
233.89
201.01
179.39
170.89
172.71
179.24
185.18
187.05
183.07
172.04
152.97
124.93
88.88
48.64
9.76
-22.40
-45.45
-61.44
-76.02
-95.56
-124.09
-161.65
-205.07
-250.24
-294.13
-335.59
-373.74
-405.72
-425.98
-428.22
-408.78
-369.77
-319.22
-267.58
-223.47
-189.61
-162.36
-134.31
-98.58
-51.71
5.27
68.03
131.62
191.82
245.90
291.54
326.83
350.18
361.26
361.31
353.68
343.35
335.89
335.79
343.45
354.35
359.41
348.39
313.63
253.99
175.58
89.31
7.10
-62.50
-115.62
-152.52
-174.94
-184.17
-180.18
-162.10
-130.17
-86.59
-35.89
16.29
64.03
102.71
129.79
144.64
148.03
141.29
125.76
102.45
72.19
35.71
-6.59
-54.49
-108.20
-167.05
-228.27
-286.03
-331.98
-357.46
-356.79
-329.65
-281.16
-220.12
-155.39
-92.93
-34.71
20.10
73.68
127.81
182.93
238.24
290.92
336.17
367.38
378.05
363.97
325.61
268.25
200.79
132.88
72.18
22.95
-13.98
-40.12
-57.87
-69.79
-78.65
-86.69
-95.67
-106.35
-118.29
-130.21
-140.61
-148.46
-153.87
-158.99
-167.19
-181.16
-201.21
-223.41
-240.07
-242.27
-223.53
-182.27
-122.60
-52.60
18.81
84.22
138.85
180.25
207.06
218.71
215.50
199.34
173.81
143.44
112.80
85.47
63.58
47.68
37.21
30.96
27.73
26.50
26.73
28.06
30.18
32.22
32.80
30.43
24.07
13.64
-0.34
-16.82
-35.44
-56.76
-82.41
-114.19
-153.20
-198.79
-248.61
-298.86
-345.06
-383.32
-411.12
-427.56
-432.90
-428.91
-417.61
-401.04
-379.79
-352.27
-315.03
-264.20
-198.04
-118.89
-33.97
46.87
113.89
161.02
186.99
194.67
188.58
172.33
147.64
114.81
74.64
29.45
-16.63
-59.24
-93.88
-116.74
-124.98
-117.47
-95.40
-62.46
-24.09
14.30
48.96
79.60
109.48
143.44
184.79
233.28
284.73
333.13
373.02
401.13
416.07
417.82
405.95
379.46
337.20
279.31
208.47
129.76
49.78
-25.56
-92.15
-149.09
-197.80
-241.69
-284.48
-329.07
-376.91
-427.42
-477.68
-522.35
-554.41
-566.19
-552.26
-511.57
-448.46
-371.24
-289.56
-211.33
-141.40
-82.09
-34.44
0.17
19.98
23.77
12.16
-11.35
-40.94
-69.99
-92.72
-104.76
-103.64
-88.69
-61.32
-25.77
11.23
41.96
59.85
61.52
47.76
22.76
-7.65
-37.90
-64.41
-84.61
-96.00
-96.03
-83.27
-58.76
-26.80
5.29
28.90
35.10
20.08
-12.58
-52.94
-89.09
-111.97
-118.37
-110.99
-95.91
-82.44
-74.98
-70.74
-62.12
-42.28
-9.05
34.37
81.75
126.41
157.88
170.28
163.93
143.79
114.41
77.07
29.94
-29.29
-100.98
-189.63
-294.09
-405.82
-510.99
-597.02
-656.35
-686.48
-687.25
-613.60
-448.52
-216.90
23.44
219.83
349.62
417.97
444.41
452.44
456.45
455.94
447.54
431.28
412.86
393.90
374.67
352.28
322.41
281.50
224.38
153.09
78.66
17.46
-17.14
-20.51
2.14
39.40
78.92
108.74
123.48
124.82
118.59
109.95
101.47
93.71
87.18
83.08
81.88
83.97
89.28
96.94
104.75
110.01
111.10
108.19
102.76
95.98
87.96
77.20
61.05
36.96
4.14
-35.12
-75.48
-110.15
-133.25
-141.77
-135.69
-116.75
-86.18
-44.75
6.70
65.65
127.26
185.83
237.56
282.38
322.78
361.06
393.33
412.10
409.45
382.77
338.55
290.91
254.58
237.06
235.98
235.83
221.57
185.10
129.09
64.45
4.36
-42.26
-73.50
-90.00
-100.23
-106.93
-108.55
-101.12
-81.02
-47.09
-1.47
51.87
112.89
174.21
234.00
290.43
339.79
375.72
389.92
373.96
297.12
190.33
52.46
-106.32
-270.44
-421.92
-544.65
-628.29
-670.76
-677.67
-655.35
-618.75
-575.47
-528.92
-480.03
-429.36
-378.37
-329.80
-286.31
-246.23
-212.19
-182.47
-155.03
-128.77
-103.81
-81.24
-62.30
-47.71
-35.61
-27.40
-22.85
-22.16
-26.26
-36.31
-53.31
-77.20
-106.46
-137.30
-166.89
-191.38
-207.43
-212.91
-207.14
-190.74
-165.37
-133.20
-96.30
-57.45
-19.06
16.58
47.45
71.72
88.22
96.45
96.59
89.52
76.69
59.62
40.08
19.59
-0.63
-19.62
-36.67
-51.21
-63.01
-71.91
-78.09
-81.89
-83.87
-84.70
-85.13
-85.91
-87.68
-91.12
-96.75
-105.00
-116.22
-130.90
-149.22
-171.00
-195.46
-220.93
-245.18
-265.31
-278.33
-281.43
-272.73
-251.25
-216.72
-169.59
-110.66
-41.33
36.59
120.35
206.23
289.41
364.55
426.83
472.80
501.28
513.31
511.77
500.19
481.83
458.90
432.47
402.76
369.76
334.19
297.58
262.45
231.84
209.07
196.99
196.67
205.82
218.61
226.69
221.64
198.32
157.92
108.80
64.52
38.86
40.60
70.53
122.11
184.94
249.30
309.16
362.50
409.61
450.77
485.50
512.87
532.64
545.18
550.58
546.85
529.49
492.92
433.52
352.63
256.61
155.03
57.50
-28.77
-100.13
-155.83
-196.79
-224.31
-240.04
-246.25
-246.54
-245.12
-245.85
-251.01
-261.10
-275.19
-291.55
-309.02
-327.35
-347.25
-369.41
-394.22
-421.44
-450.15
-478.34
-502.15
-515.92
-512.94
-487.60
-437.76
-366.74
-283.18
-198.45
-123.52
-65.80
-28.43
-10.79
-10.39
-24.35
-49.72
-83.21
-120.35
-156.24
-186.51
-208.84
-223.38
-232.08
-237.81
-242.58
-246.82
-249.01
-246.89
-238.50
-223.25
-202.04
-176.37
-147.26
-114.20
-75.08
-26.89
32.61
103.70
183.66
267.20
348.01
420.63
481.92
531.71
572.38
607.81
641.83
676.40
710.00
737.65
751.88
744.96
712.13
654.23
579.01
500.00
432.97
390.64
378.25
391.70
419.11
445.46
457.89
449.68
421.21
378.24
328.47
278.58
232.82
193.67
162.89
142.05
131.94
131.45
136.84
142.54
142.50
132.12
109.78
77.07
37.75
-3.75
-43.83
-80.63
-113.73
-143.33
-169.36
-190.83
-205.94
-212.64
-209.69
-197.15
-176.70
-151.25
-124.02
-97.83
-74.51
-54.90
-38.91
-26.24
-16.56
-9.82
-6.15
-5.72
-8.39
-13.52
-20.22
-27.21
-33.30
-37.40
-38.80
-37.08
-32.29
-24.87
-15.41
-4.76
6.18
16.60
25.77
33.13
38.27
41.00
41.22
38.91
34.12
27.09
18.13
7.83
-3.11
-14.09
-24.50
-34.07
-42.89
-51.31
-59.58
-67.90
-76.25
-84.38
-92.26
-100.03
-108.30
-118.05
-130.32
-145.63
-163.79
-183.62
-203.36
-221.31
-236.50
-249.11
-260.42
-272.46
-287.06
-305.26
-326.94
-350.99
-375.94
-400.46
-424.02
-446.68
-469.00
-491.78
-515.97
-542.04
-569.27
-594.80
-613.03
-617.07
-600.70
-561.15
-500.69
-426.24
-346.61
-269.42
-198.97
-135.68
-78.03
-24.34
25.68
71.31
111.86
147.65
180.17
210.95
240.72
268.76
293.65
314.19
330.22
342.40
351.59
358.00
361.00
360.06
354.94
345.95
332.98
314.69
288.94
253.94
209.67
158.38
103.86
49.13
-4.59
-58.11
-113.07
-169.51
-225.27
-276.48
-319.67
-353.46
-379.08
-399.67
-418.84
-439.96
-464.47
-491.45
-517.78
-538.36
-546.64
-536.87
-505.50
-453.34
-386.17
-311.56
-236.49
-166.38
-104.77
-53.87
-16.15
6.59
12.35
-0.83
-31.48
-75.04
-125.74
-178.01
-226.99
-268.91
-297.71
-305.95
-286.71
-232.53
-138.76
-6.95
154.82
332.90
509.27
667.88
797.28
875.82
883.29
814.65
686.92
531.70
388.77
265.16
157.19
62.27
-20.29
-84.62
-123.04
-130.67
-104.83
-46.43
38.52
140.26
250.26
359.91
463.20
553.55
608.98
610.44
551.33
462.77
361.97
258.90
152.22
46.80
-52.01
-140.86
-215.55
-272.77
-311.50
-335.17
-345.65
-343.64
-327.48
-291.00
-235.43
-169.37
-107.87
-65.48
-51.60
-63.55
-89.96
-116.33
-132.78
-137.51
-133.00
-123.82
-112.52
-101.31
-90.35
-79.49
-69.25
-60.85
-54.88
-47.64
-33.68
-7.48
32.39
79.94
125.16
157.73
170.68
162.06
136.47
101.07
64.93
34.12
11.13
-4.05
-12.72
-16.29
-16.13
-12.02
-4.08
10.34
33.45
66.34
109.33
162.28
226.17
292.57
356.59
397.21
400.05
360.11
283.30
182.17
68.92
-47.88
-163.28
-273.23
-375.07
-464.60
-540.87
-602.43
-647.70
-675.75
-685.99
-678.30
-652.27
-608.85
-547.75
-466.67
-369.09
-261.69
-152.85
-50.64
38.46
110.61
163.84
199.38
219.89
228.29
227.93
222.07
214.10
207.04
203.18
203.43
207.88
215.49
224.30
232.58
239.02
243.40
246.27
248.95
253.27
261.10
273.27
288.78
304.87
317.25
321.60
315.09
297.44
271.12
240.18
208.50
178.51
151.10
125.91
102.41
80.63
61.24
45.16
32.99
24.75
20.13
18.90
21.08
26.87
36.34
49.05
63.95
79.24
92.80
102.72
107.56
106.68
100.19
88.59
72.48
52.48
28.89
2.09
-27.33
-58.43
-89.82
-119.69
-146.17
-167.49
-182.42
-190.28
-191.00
-185.08
-173.49
-157.43
-138.25
-117.44
-96.30
-76.03
-57.49
-41.28
-27.63
-16.54
-7.73
-0.85
4.44
8.46
11.45
13.57
14.95
15.75
16.20
16.66
17.48
19.03
21.66
25.51
30.59
36.70
43.24
49.46
54.42
57.19
56.89
52.89
44.81
32.74
17.29
-0.56
-19.51
-38.12
-54.90
-68.54
-77.93
-82.51
-82.13
-77.11
-68.13
-56.11
-42.12
-27.17
-12.13
2.33
15.76
27.96
38.89
48.65
57.37
65.10
71.92
77.84
82.88
86.82
89.55
90.84
90.46
88.16
83.65
76.71
67.21
55.18
40.84
24.71
7.49
-10.04
-26.98
-42.59
-56.22
-67.55
-76.71
-84.07
-90.29
-96.12
-102.42
-109.69
-118.29
-128.10
-138.69
-149.38
-159.27
-167.53
-173.50
-176.88
-177.48
-175.60
-171.62
-166.09
-159.48
-152.02
-143.76
-134.39
-123.45
-110.28
-94.35
-75.31
-53.16
-28.39
-1.89
25.04
50.99
74.55
94.53
110.10
120.95
127.32
129.89
129.68
127.73
125.14
122.74
121.00
120.00
119.46
118.89
117.60
115.01
110.49
103.71
94.59
83.23
70.00
55.30
39.74
23.86
8.27
-6.54
-20.04
-31.87
-41.63
-49.00
-53.88
-56.16
-55.95
-53.50
-49.17
-43.50
-37.15
-30.72
-24.62
-19.37
-15.02
-11.41
-8.18
-4.65
-0.10
6.11
14.61
25.76
39.50
55.42
72.81
90.44
107.07
121.29
131.76
137.43
137.57
131.89
120.56
104.22
83.65
60.03
34.53
8.30
-17.46
-41.75
-63.61
-82.15
-96.46
-105.83
-109.35
-106.46
-96.90
-80.74
-58.89
-32.80
-4.66
22.92
46.97
64.75
73.90
72.86
61.22
39.50
9.40
-26.54
-65.18
-103.37
-138.08
-166.86
-188.11
-200.89
-205.14
-201.37
-190.36
-173.14
-150.82
-124.33
-94.46
-61.91
-27.23
8.98
45.98
82.93
118.62
151.78
180.91
204.49
221.01
229.24
228.32
217.90
198.23
170.15
135.37
96.06
54.83
14.33
-22.85
-54.67
-79.69
-97.28
-107.70
-111.81
-111.01
-107.00
-101.45
-95.64
-90.53
-86.51
-83.55
-81.33
-79.38
-77.30
-74.87
-72.20
-69.54
-67.34
-65.85
-65.15
-64.97
-64.60
-62.96
-58.58
-49.99
-35.94
-15.64
11.08
43.56
80.35
119.24
157.55
192.45
221.33
242.10
253.39
254.85
246.96
230.97
208.61
181.87
152.68
122.70
93.11
64.60
37.38
11.46
-13.29
-36.93
-59.38
-80.40
-99.51
-116.36
-130.66
-142.37
-151.51
-158.24
-162.72
-165.21
-165.91
-164.90
-162.18
-157.76
-151.64
-143.79
-134.34
-123.51
-111.78
-99.63
-87.67
-76.28
-65.77
-56.26
-47.65
-39.61
-31.76
-23.76
-15.32
-6.35
3.17
13.02
22.98
32.66
41.87
50.40
58.11
64.95
70.97
76.15
80.49
84.00
86.54
88.11
88.70
88.34
87.19
85.49
83.43
81.28
79.19
77.15
75.06
72.59
69.34
64.84
58.69
50.60
40.52
28.68
15.46
1.52
-12.40
-25.56
-37.21
-46.84
-54.10
-58.78
-60.93
-60.78
-58.63
-54.86
-49.96
-44.31
-38.30
-32.31
-26.57
-21.33
-16.79
-13.01
-10.04
-7.92
-6.59
-5.99
-6.01
-6.54
-7.38
-8.38
-9.31
-9.95
-10.18
-9.74
-8.52
-6.44
-3.50
0.24
4.61
9.43
14.43
19.28
23.81
27.69
30.75
32.83
33.84
33.67
32.26
29.55
25.48
20.12
13.49
5.69
-3.01
-12.24
-21.57
-30.48
-38.36
-44.64
-48.81
-50.54
-49.67
-46.19
-40.38
-32.67
-23.78
-14.40
-5.30
2.78
9.17
13.40
15.25
14.65
11.85
7.18
1.24
-5.33
-11.83
-17.58
-22.02
-24.65
-25.18
-23.44
-19.43
-13.37
-5.60
3.35
12.89
22.36
31.04
38.32
43.75
47.02
48.07
47.00
44.09
39.85
34.73
29.12
23.23
17.20
10.87
3.98
-3.88
-13.06
-23.69
-35.71
-48.68
-61.95
-74.57
-85.44
-93.49
-97.82
-97.75
-92.97
-83.47
-69.52
-51.69
-30.69
-7.30
17.80
43.89
70.36
96.61
122.05
146.18
168.28
187.68
203.69
215.53
222.53
223.94
219.09
207.39
188.42
161.99
128.18
87.61
41.28
-9.19
-61.64
-113.57
-162.21
-204.85
-239.16
-263.40
-276.69
-279.20
-272.08
-257.20
-237.03
-214.18
-191.09
-169.71
-151.18
-135.87
-123.41
-112.73
-102.34
-90.74
-76.75
-59.81
-39.79
-17.08
7.41
32.46
56.77
79.05
98.16
113.17
123.32
128.29
128.04
122.84
113.26
100.31
85.20
69.14
53.16
37.87
23.87
11.67
1.53
-6.40
-11.59
-13.50
-11.90
-7.18
-0.93
5.74
11.97
16.90
20.06
22.27
24.87
29.01
34.75
39.71
42.62
42.46
38.31
29.68
18.48
7.62
-0.06
-3.20
-4.19
-3.56
-1.00
4.16
13.29
30.23
59.17
102.90
161.31
229.00
302.71
380.01
457.88
516.72
537.18
508.70
436.50
355.68
278.18
208.71
149.16
95.51
46.48
1.92
-39.02
-78.03
-116.95
-159.30
-202.79
-242.64
-275.16
-299.51
-317.13
-331.33
-345.64
-362.12
-382.38
-402.60
-416.73
-419.69
-408.85
-383.94
-346.88
-301.21
-251.41
-203.81
-162.89
-131.96
-113.41
-107.78
-113.20
-125.28
-138.36
-147.15
-149.14
-143.51
-131.11
-113.59
-91.73
-64.85
-31.37
9.99
58.51
110.71
161.32
204.71
236.39
254.26
258.67
251.86
236.92
216.88
194.53
172.18
151.58
133.65
118.31
104.18
89.03
70.66
48.04
22.22
-4.10
-27.66
-46.07
-58.61
-65.90
-69.08
-68.85
-65.25
-58.45
-49.61
-41.23
-36.66
-38.96
-49.53
-67.47
-90.11
-113.93
-135.75
-153.22
-164.68
-168.87
-164.91
-152.51
-132.07
-104.74
-71.88
-34.38
7.82
55.52
109.69
170.47
236.65
305.47
372.69
432.88
479.47
505.50
505.09
475.12
416.88
336.42
243.25
147.92
59.83
-14.43
-71.31
-109.42
-128.87
-130.87
-117.87
-93.95
-64.56
-35.92
-13.53
-1.06
0.30
-8.19
-23.85
-43.48
-64.30
-84.36
-102.48
-117.81
-129.52
-136.56
-138.04
-133.46
-123.13
-108.34
-91.15
-74.00
-59.01
-47.52
-39.86
-35.51
-33.54
-33.05
-33.38
-34.19
-35.22
-36.08
-36.12
-34.66
-31.13
-25.52
-18.42
-10.76
-3.62
2.20
6.21
8.30
8.49
7.01
4.24
0.66
-3.12
-6.45
-8.95
-10.70
-12.19
-14.36
-17.99
-23.46
-30.72
-39.27
-48.39
-57.46
-66.09
-73.99
-81.11
-87.05
-91.01
-91.94
-88.74
-80.75
-67.82
-50.32
-28.85
-3.81
25.07
58.82
98.87
146.56
202.44
265.77
333.96
402.32
464.06
511.18
535.60
530.97
494.38
426.92
333.46
221.47
99.70
-23.07
-138.71
-240.20
-321.95
-379.87
-412.23
-419.84
-405.84
-374.85
-332.22
-282.98
-231.58
-181.67
-136.01
-96.74
-65.31
-42.39
-27.57
-19.72
-17.03
-17.64
-20.02
-23.26
-27.14
-31.61
-36.67
-41.68
-45.75
-47.71
-46.64
-42.29
-35.14
-26.26
-16.84
-7.83
0.35
7.59
13.98
19.61
24.38
28.15
30.85
32.54
33.48
34.07
34.62
35.24
35.78
35.75
34.70
32.28
28.58
24.05
19.38
15.16
11.64
8.84
6.48
4.40
2.68
1.47
0.92
0.98
1.46
2.10
2.81
3.54
4.49
5.85
7.69
9.90
12.32
14.73
17.06
19.31
21.40
23.38
25.17
26.75
27.95
28.76
29.06
28.81
27.89
26.06
23.10
18.84
13.27
6.50
-1.08
-9.09
-17.01
-24.27
-30.27
-34.50
-36.40
-35.73
-32.49
-27.03
-20.09
-12.58
-5.26
1.39
7.20
12.41
17.24
21.90
26.31
30.29
33.63
36.20
37.79
37.91
35.87
30.92
22.84
12.15
0.24
-11.06
-20.23
-26.50
-29.94
-31.19
-30.94
-29.67
-27.52
-24.54
-20.71
-16.42
-12.24
-8.83
-6.85
-6.61
-8.11
-11.04
-14.92
-19.03
-22.86
-25.96
-28.02
-28.93
-28.60
-26.99
-24.25
-20.72
-16.66
-12.46
-8.39
-4.49
-0.68
3.43
8.17
13.62
19.48
25.14
29.90
33.32
35.29
35.87
35.41
34.14
32.16
29.59
26.63
23.76
21.67
21.02
21.82
23.58
25.32
25.83
24.29
20.48
14.82
8.18
1.46
-4.90
-10.71
-15.96
-20.53
-24.14
-26.43
-27.23
-26.67
-25.11
-22.99
-20.60
-17.87
-14.69
-11.00
-7.10
-3.56
-0.96
0.46
0.77
0.12
-1.44
-4.43
-9.52
-17.28
-27.65
-39.55
-51.21
-60.66
-66.56
-68.46
-66.79
-62.39
-55.90
-47.60
-37.57
-25.95
-13.49
-1.31
9.52
18.43
25.83
32.74
40.17
48.47
57.22
65.27
71.52
75.63
77.79
78.79
79.22
79.04
77.81
74.92
70.04
63.23
54.68
44.45
32.26
17.74
1.04
-16.93
-34.64
-50.24
-62.43
-70.53
-74.58
-74.91
-71.67
-64.53
-53.24
-38.23
-21.21
-5.11
6.92
12.56
11.44
5.42
-2.37
-8.72
-11.46
-10.18
-5.64
0.94
8.49
16.30
23.97
30.93
36.27
39.12
38.96
35.78
30.13
23.07
15.43
7.91
0.66
-6.50
-13.65
-20.46
-26.13
-29.57
-29.66
-25.88
-18.41
-8.31
2.71
12.95
20.82
25.33
26.10
23.29
17.53
9.72
1.02
-7.46
-14.73
-20.15
-23.52
-24.98
-25.02
-24.20
-23.13
-22.24
-22.01
-22.86
-25.20
-29.21
-34.70
-41.14
-47.55
-52.90
-56.19
-56.94
-55.01
-50.69
-44.47
-36.78
-28.01
-18.39
-7.98
3.40
15.97
29.83
44.77
59.99
74.42
86.79
96.14
102.01
104.62
104.68
103.01
100.42
97.23
93.61
89.47
84.74
79.28
72.94
65.39
56.08
44.58
30.55
14.36
-3.29
-21.28
-38.62
-54.70
-69.26
-82.23
-93.29
-101.99
-107.52
-109.37
-107.48
-102.42
-95.25
-87.00
-78.52
-70.11
-61.90
-53.75
-45.64
-37.66
-29.90
-22.44
-15.12
-7.74
-0.14
7.52
14.76
20.94
25.51
28.46
30.12
31.21
32.23
33.21
33.71
33.04
30.80
27.06
22.53
17.88
13.81
10.52
8.00
6.36
5.80
6.55
8.69
11.87
15.27
18.01
19.56
19.73
18.71
16.78
13.98
10.30
5.83
0.91
-3.80
-7.63
-10.42
-12.47
-14.53
-17.41
-21.50
-26.75
-32.71
-38.82
-44.64
-50.01
-54.71
-58.53
-61.11
-61.99
-60.86
-57.55
-52.07
-44.85
-36.50
-27.57
-18.67
-10.24
-2.49
4.46
10.51
15.60
19.56
22.23
23.60
23.76
22.92
21.42
19.69
18.12
17.07
16.54
16.11
15.04
12.57
8.50
3.47
-1.11
-3.66
-3.00
1.23
8.60
18.20
28.97
39.97
50.15
58.35
63.64
65.78
65.47
64.07
62.49
60.14
54.88
43.73
24.55
-2.69
-35.57
-70.00
-101.87
-128.28
-147.97
-160.81
-166.97
-166.21
-157.84
-141.08
-115.34
-80.57
-37.31
13.49
70.61
132.88
199.34
269.00
340.15
409.53
471.71
519.56
545.81
545.14
515.73
459.69
382.18
289.73
188.86
85.17
-16.56
-112.02
-197.13
-268.41
-323.59
-362.06
-384.74
-393.38
-389.97
-376.32
-354.10
-325.14
-291.54
-255.47
-218.98
-183.64
-150.78
-121.66
-97.73
-80.40
-70.64
-68.32
-71.86
-78.56
-85.35
-89.64
-89.76
-85.01
-75.47
-61.69
-44.33
-24.24
-2.29
20.49
42.72
62.95
79.81
92.29
99.89
102.61
100.65
94.27
83.69
69.26
51.98
33.75
17.03
4.41
-2.25
-2.19
4.25
15.86
31.13
48.42
66.08
82.44
96.09
106.08
112.19
114.89
114.91
112.92
109.27
103.91
96.71
87.76
77.26
65.25
51.58
35.67
16.93
-4.94
-29.57
-55.71
-81.29
-103.73
-120.75
-130.62
-132.90
-128.06
-117.46
-102.71
-85.36
-66.88
-48.62
-32.15
-18.87
-10.01
-5.90
-5.86
-8.37
-11.62
-14.29
-15.89
-16.59
-16.84
-16.95
-16.97
-16.65
-15.97
-15.11
-14.68
-15.25
-17.06
-19.88
-23.07
-25.99
-28.09
-29.30
-29.78
-29.84
-29.83
-30.01
-30.60
-31.78
-33.77
-36.52
-39.79
-43.11
-45.88
-47.61
-47.99
-46.89
-44.24
-40.06
-34.24
-26.64
-17.28
-6.60
4.69
15.72
25.89
35.24
44.27
53.65
64.07
75.80
88.84
103.23
119.30
137.62
158.56
181.76
205.63
227.79
245.71
257.53
262.49
260.99
254.35
244.35
232.70
220.51
208.04
194.44
178.26
157.92
132.29
101.24
65.69
27.13
-13.01
-53.56
-93.85
-133.31
-170.99
-205.81
-236.61
-262.32
-282.31
-296.34
-304.45
-306.77
-303.20
-293.00
-275.00
-248.23
-212.57
-169.57
-122.44
-75.53
-33.31
0.58
24.00
36.32
38.30
31.77
19.13
3.07
-14.00
-30.23
-44.41
-55.64
-63.28
-66.77
-65.76
-60.69
-52.71
-43.70
-35.64
-30.02
-27.33
-27.23
-28.97
-31.58
-34.45
-37.10
-39.18
-40.34
-40.30
-38.68
-34.96
-28.44
-18.35
-4.17
13.93
34.94
57.06
78.13
96.15
109.88
118.86
123.23
123.18
118.54
108.75
93.00
71.32
45.24
18.19
-5.11
-19.99
-23.48
-15.19
3.10
28.40
58.14
90.84
125.67
161.41
195.82
225.58
247.43
259.41
261.26
254.12
239.51
218.62
192.06
160.36
124.30
85.16
44.69
4.67
-33.26
-67.77
-97.76
-122.44
-141.49
-155.20
-164.41
-169.98
-172.61
-172.31
-168.67
-161.24
-150.03
-135.72
-119.66
-103.49
-88.72
-76.48
-67.11
-60.33
-55.49
-51.62
-47.64
-42.31
-34.65
-24.20
-11.37
2.67
16.11
26.89
33.31
34.18
29.36
19.33
4.99
-12.77
-32.89
-54.05
-74.51
-91.86
-103.72
-108.20
-104.68
-93.95
-77.81
-58.07
-35.97
-12.34
11.70
33.66
49.52
54.81
46.44
24.41
-7.66
-43.74
-77.27
-102.94
-117.85
-121.19
-113.51
-96.09
-70.69
-39.83
-6.89
24.77
52.71
75.87
94.48
109.45
121.33
129.95
134.44
133.70
127.27
115.65
100.17
82.80
65.86
51.82
42.92
40.94
46.61
59.19
76.29
94.29
109.25
117.88
118.19
109.76
93.67
72.06
47.36
21.71
-3.50
-27.44
-49.52
-69.07
-85.12
-96.47
-102.09
-101.52
-95.07
-83.62
-68.30
-50.25
-30.57
-10.27
9.62
27.93
43.24
54.16
59.48
58.66
52.17
41.36
28.29
14.92
2.67
-7.89
-16.58
-23.15
-26.98
-26.93
-22.12
-12.51
0.76
15.61
29.69
40.96
48.25
50.91
48.80
41.95
30.57
15.26
-2.75
-21.55
-39.08
-53.47
-63.56
-69.04
-70.37
-68.53
-64.62
-59.57
-53.95
-48.11
-42.34
-37.02
-32.47
-28.79
-25.62
-22.11
-17.22
-10.25
-1.02
9.98
21.62
32.86
42.69
50.37
55.51
57.91
57.47
54.41
49.02
41.60
32.54
22.16
10.83
-0.90
-12.30
-22.80
-32.08
-40.37
-48.47
-57.17
-66.82
-76.94
-86.25
-93.00
-95.76
-93.85
-87.61
-78.18
-66.88
-54.78
-42.45
-30.05
-17.56
-5.13
6.91
18.01
27.71
35.75
42.20
47.25
51.01
53.30
53.77
51.97
47.51
40.32
30.85
20.11
9.40
0.20
-6.34
-9.62
-9.78
-7.63
-4.28
-0.76
2.25
4.43
5.68
5.89
4.88
2.39
-1.62
-6.79
-12.43
-17.93
-23.08
-28.30
-34.34
-41.77
-50.51
-59.48
-67.02
-71.47
-71.79
-67.88
-60.25
-49.64
-36.62
-21.55
-4.84
12.59
29.34
44.02
55.74
64.67
71.89
78.86
86.78
96.11
106.30
116.22
124.78
131.35
135.90
138.65
139.74
138.63
134.41
126.02
112.87
95.37
74.93
53.35
32.01
11.53
-8.46
-28.64
-49.42
-70.56
-91.08
-109.62
-124.75
-135.37
-140.85
-140.92
-135.75
-125.85
-112.09
-95.64
-77.87
-60.10
-43.32
-28.02
-14.11
-1.13
11.43
23.97
36.66
49.44
62.02
73.86
84.06
91.42
94.66
92.66
84.92
71.75
54.16
33.63
11.99
-8.89
-27.33
-42.15
-52.82
-59.69
-63.74
-66.22
-68.24
-70.18
-71.69
-71.79
-69.36
-63.46
-53.66
-40.23
-24.13
-6.72
10.37
25.70
38.11
46.84
51.40
51.61
47.50
39.44
28.33
15.41
2.14
-10.12
-20.33
-27.88
-32.46
-34.03
-32.73
-28.90
-23.15
-16.31
-9.28
-2.74
2.98
7.79
11.78
14.96
17.34
18.91
19.87
20.63
21.83
24.08
27.82
33.24
40.15
48.10
56.38
64.03
69.98
73.20
72.84
68.34
59.45
46.18
28.74
7.68
-16.03
-40.92
-65.22
-87.07
-104.98
-117.88
-125.12
-126.47
-121.85
-111.43
-95.81
-75.97
-53.34
-29.44
-5.54
17.42
38.78
57.79
73.58
85.16
91.74
93.14
89.92
83.05
73.39
61.50
47.57
31.82
14.92
-1.99
-17.41
-30.19
-39.85
-46.58
-50.68
-51.94
-49.40
-41.76
-28.38
-9.71
12.34
35.22
56.39
74.20
87.97
97.56
102.66
102.62
96.94
85.66
70.15
52.57
35.27
19.91
6.96
-3.98
-13.66
-22.42
-30.11
-36.26
-40.64
-43.73
-46.59
-50.48
-56.40
-64.62
-74.75
-86.25
-98.58
-111.31
-124.16
-136.60
-147.67
-156.19
-161.18
-162.29
-160.11
-155.71
-150.07
-143.59
-135.90
-126.04
-112.95
-96.18
-76.06
-53.48
-29.34
-4.31
21.40
47.79
74.93
102.62
130.29
156.77
180.37
199.14
211.08
214.48
208.66
194.50
174.26
151.40
129.33
110.27
94.74
81.80
69.58
56.63
42.40
27.07
11.43
-3.70
-17.73
-30.23
-40.72
-48.88
-54.80
-59.25
-63.50
-68.46
-74.12
-79.57
-83.46
-84.88
-83.66
-80.31
-75.63
-70.22
-64.03
-56.76
-48.09
-37.92
-26.50
-14.19
-1.18
12.52
26.97
42.47
58.98
76.09
92.68
106.80
116.12
118.77
113.96
102.22
85.20
64.65
42.17
18.96
-3.99
-25.46
-43.88
-57.76
-66.06
-68.43
-65.25
-56.91
-43.86
-26.77
-6.65
14.80
35.31
52.49
64.55
70.40
69.95
63.79
52.58
37.18
18.51
-2.30
-23.94
-45.01
-64.18
-80.25
-92.09
-99.19
-101.56
-100.08
-96.02
-90.64
-84.64
-78.27
-71.18
-63.03
-53.85
-44.10
-34.47
-25.22
-15.83
-5.06
8.23
24.53
43.23
62.61
80.67
95.73
107.00
114.75
119.56
121.65
120.56
115.48
105.77
91.72
74.53
55.82
37.08
19.12
2.19
-13.84
-28.78
-42.05
-52.55
-59.19
-61.44
-59.49
-54.27
-47.00
-38.88
-30.64
-22.75
-15.21
-7.99
-1.19
4.82
9.24
10.97
8.71
1.46
-11.13
-28.16
-47.46
-65.93
-80.49
-88.99
-90.77
-86.67
-78.21
-66.88
-53.68
-39.26
-24.26
-9.67
3.23
13.23
19.63
22.70
23.43
23.08
22.44
21.77
20.95
19.94
19.18
19.41
21.45
25.61
31.58
38.32
44.67
49.66
52.92
54.70
55.37
55.24
54.26
52.19
48.65
43.59
36.99
28.86
19.25
8.23
-3.86
-16.28
-27.88
-37.35
-43.49
-45.69
-44.32
-40.22
-34.60
-28.30
-21.85
-15.55
-9.89
-5.51
-3.15
-3.35
-5.89
-9.93
-14.11
-17.22
-18.63
-18.32
-16.54
-13.44
-8.91
-2.69
5.16
14.11
23.30
31.83
39.16
45.29
50.52
54.96
58.32
59.85
58.79
55.00
49.15
42.62
36.96
33.45
32.64
34.64
39.18
45.95
54.53
64.08
73.27
80.07
82.28
77.87
65.63
45.37
17.96
-14.87
-50.76
-87.01
-120.78
-149.48
-171.00
-184.00
-188.02
-183.44
-171.27
-152.85
-129.88
-104.13
-77.55
-51.95
-28.81
-8.94
7.34
20.20
30.01
37.14
42.03
45.04
46.63
47.14
46.97
46.37
45.69
45.25
45.29
45.91
46.84
47.58
47.50
46.01
42.98
38.69
33.77
28.81
24.31
20.43
17.20
14.54
12.16
9.63
6.44
2.22
-3.19
-9.31
-15.33
-20.45
-24.09
-26.26
-27.14
-26.84
-25.30
-22.35
-18.14
-13.44
-9.68
-8.49
-11.24
-18.49
-29.97
-44.86
-61.99
-79.89
-96.86
-110.85
-119.58
-121.07
-113.99
-98.09
-74.29
-44.42
-10.84
23.62
56.08
83.84
104.42
116.13
118.38
111.96
98.88
