1563905229.00
64.000000
-0.00
-0.00
-0.00
-0.00
-0.00
-0.00
-0.00
-0.00
-0.00
-0.00
0.00
0.01
0.01
-0.00
-0.03
-0.05
-0.05
0.00
0.13
0.36
0.66
1.01
1.37
1.72
2.06
2.40
2.79
3.24
3.80
4.43
5.09
5.73
6.33
6.89
7.48
8.18
9.05
10.18
11.52
12.94
14.31
15.53
16.65
17.78
19.17
20.98
23.48
26.51
29.81
33.04
36.01
38.76
41.62
45.05
49.44
55.23
62.10
69.52
76.86
83.69
90.03
96.39
103.55
112.19
122.97
135.47
148.87
162.13
174.49
185.83
196.77
208.82
220.98
235.85
254.20
276.04
299.84
322.21
338.47
343.93
335.55
313.03
279.32
238.57
194.88
150.84
107.21
63.68
20.05
-22.96
-63.82
-100.87
-133.69
-163.08
-190.56
-217.53
-244.60
-271.72
-298.66
-325.55
-352.50
-378.82
-402.44
-419.83
-427.41
-423.13
-407.79
-384.69
-358.15
-331.27
-304.96
-278.39
-250.50
-221.67
-194.02
-170.32
-152.13
-138.67
-126.99
-113.82
-97.50
-79.00
-61.30
-47.68
-39.62
-35.96
-33.43
-28.53
-19.45
-7.08
5.59
15.14
19.59
19.52
17.57
16.91
19.43
24.81
30.72
34.41
34.26
30.87
26.72
24.73
26.49
31.22
36.09
37.87
34.93
28.35
21.33
17.38
18.18
22.56
27.17
28.53
25.19
18.67
12.58
10.40
13.40
19.84
25.91
28.00
24.71
17.71
10.66
7.19
8.74
13.87
19.08
20.92
17.98
11.74
5.62
3.01
5.21
10.81
16.48
19.02
17.11
12.10
7.03
4.86
6.69
11.19
15.31
16.24
12.91
6.84
1.26
-0.66
2.24
8.55
14.76
17.44
14.98
8.64
1.69
-2.41
-2.07
1.63
5.66
6.93
4.19
-1.26
-6.35
-8.21
-5.93
-1.21
2.64
2.72
-1.68
-8.46
-13.97
-15.06
-11.02
-4.11
1.75
3.26
-0.35
-6.87
-12.43
-13.84
-10.50
-4.69
-0.22
-0.06
-4.61
-11.39
-16.65
-17.44
-13.45
-7.12
-2.22
-1.52
-5.19
-10.70
-14.27
-13.17
-7.28
0.68
6.90
8.46
5.08
-0.89
-5.79
-6.80
-3.52
1.88
6.03
6.41
2.86
-2.34
-5.85
-5.40
-1.01
4.85
8.94
9.12
5.75
1.39
-0.77
1.01
5.96
11.13
13.15
10.31
3.70
-3.32
-6.94
-5.08
1.46
9.32
14.54
14.70
10.34
4.55
1.18
2.54
8.07
14.72
18.75
17.91
12.82
6.45
2.50
3.02
7.46
12.90
15.86
14.27
8.80
2.32
-1.61
-0.96
3.73
9.48
12.75
11.42
6.12
-0.16
-3.77
-2.68
2.39
8.32
11.52
10.07
4.96
-0.59
-3.11
-1.02
4.36
9.71
11.71
9.12
3.64
-1.21
-2.12
1.82
8.67
14.57
16.18
12.48
5.54
-0.88
-3.38
-1.02
4.30
8.87
9.52
5.42
-1.42
-7.45
-9.53
-6.93
-1.41
3.68
5.59
3.51
-0.85
-4.55
-5.09
-1.99
3.04
7.03
7.58
4.17
-1.45
-6.31
-7.81
-5.31
-0.39
4.05
5.56
3.56
-0.24
-2.96
-2.29
1.96
7.77
11.88
11.83
7.38
0.67
-4.84
-6.45
-3.57
1.91
6.79
8.44
6.15
1.53
-2.55
-3.72
-1.56
2.27
4.94
4.36
0.38
-5.00
-8.84
-8.94
-5.23
0.29
4.63
5.66
3.26
-0.63
-3.24
-2.63
1.05
5.72
8.52
7.62
3.33
-2.01
-5.34
-4.72
-0.48
4.86
8.13
7.32
2.85
-2.72
-6.09
-5.26
-0.62
5.29
9.25
9.28
5.67
0.71
-2.71
-2.81
0.06
3.71
5.45
3.71
-0.92
-6.02
-8.73
-7.33
-2.42
3.47
7.16
6.71
2.50
-2.94
-6.40
-5.80
-1.43
4.16
7.71
7.12
2.74
-2.83
-6.35
-5.75
-1.48
3.87
7.00
5.94
1.22
-4.33
-7.35
-5.85
-0.56
5.46
8.60
6.84
0.97
-5.77
-9.66
-8.56
-3.25
3.17
7.06
6.49
2.19
-2.85
-5.31
-3.58
1.38
6.57
8.89
7.01
2.17
-2.62
-4.41
-2.15
2.61
6.69
7.15
3.12
-3.55
-9.36
-11.16
-8.07
-2.01
3.43
5.11
2.13
-3.57
-8.44
-9.38
-5.58
1.08
7.21
9.81
8.11
3.77
-0.10
-1.01
1.51
5.59
8.26
7.26
2.61
-3.36
-7.27
-6.66
-1.47
5.82
11.55
12.85
9.25
2.87
-2.91
-5.29
-3.61
0.38
3.64
3.76
0.25
-5.01
-9.01
-9.20
-5.15
1.29
6.87
8.80
6.22
0.75
-4.48
-6.63
-4.71
-0.17
4.02
5.12
2.26
-3.03
-7.65
-8.82
-5.61
0.41
6.13
8.62
6.91
2.32
-2.28
-4.30
-2.99
0.21
2.69
2.38
-0.88
-5.23
-7.88
-7.03
-3.03
1.74
4.28
2.86
-1.92
-7.31
-10.05
-8.27
-2.65
4.01
8.18
7.83
3.41
-2.38
-6.13
-5.72
-1.52
3.93
7.33
6.62
2.29
-3.03
-6.09
-4.90
-0.02
5.74
8.99
7.69
2.36
-4.10
-8.10
-7.34
-2.18
4.65
9.57
10.29
7.00
2.23
-0.77
-0.02
3.84
8.13
9.45
6.15
-0.72
-7.84
-11.63
-10.23
-4.78
1.49
5.01
4.15
-0.14
-4.82
-6.94
-5.15
-0.60
3.98
5.82
4.03
-0.24
-4.20
-5.29
-2.54
2.72
7.76
9.89
8.10
3.58
-0.85
-2.58
-0.68
3.54
7.20
7.67
4.17
-1.76
-7.03
-8.87
-6.32
-0.91
4.24
6.10
3.54
-2.10
-7.63
-9.88
-7.48
-1.72
4.17
6.89
5.00
-0.18
-5.41
-7.41
-4.93
0.46
5.33
6.53
3.16
-2.88
-7.88
-8.61
-4.35
2.86
9.10
11.09
7.92
1.67
-4.02
-5.99
-3.47
1.65
5.92
6.57
3.02
-2.74
-7.47
-8.60
-5.75
-0.88
2.89
3.24
-0.04
-4.90
-8.40
-8.38
-4.84
0.14
3.50
3.09
-1.02
-6.51
-10.11
-9.44
-4.48
2.45
8.00
9.61
6.99
2.18
-1.67
-2.21
0.78
5.37
8.68
8.69
5.47
1.07
-1.75
-1.34
1.87
5.54
6.93
4.54
-0.80
-6.35
-9.04
-7.28
-1.97
3.97
7.29
6.31
1.93
-3.02
-5.42
-3.86
0.67
5.13
6.52
3.41
-2.97
-9.50
-12.79
-11.14
-5.41
1.41
5.97
6.24
2.75
-1.92
-4.55
-3.38
1.10
6.24
9.04
7.84
3.46
-1.39
-3.69
-2.09
2.31
6.46
7.37
3.78
-2.73
-8.80
-11.09
-8.30
-1.81
4.95
8.70
8.03
4.20
0.19
-1.16
1.08
5.36
8.62
8.32
3.94
-2.48
-7.61
-8.70
-5.23
0.79
5.94
7.27
3.94
-2.29
-8.14
-10.53
-8.34
-2.97
2.47
4.92
3.02
-2.02
-7.16
-9.30
-6.99
-1.34
4.64
7.83
6.79
2.62
-1.66
-3.10
-0.55
4.60
9.23
10.41
7.16
1.01
-4.87
-7.53
-5.93
-1.46
2.97
4.66
2.70
-1.61
-5.60
-6.95
-5.04
-1.33
1.64
1.72
-1.51
-6.47
-10.44
-11.14
-7.99
-2.44
2.80
5.35
4.32
0.84
-2.67
-3.88
-1.94
2.05
5.74
6.77
4.38
-0.18
-4.32
-5.53
-3.05
1.82
6.25
7.68
5.24
0.40
-3.95
-5.10
-2.22
3.20
8.12
9.79
7.27
2.08
-2.86
-4.89
-3.22
0.68
3.97
4.31
1.22
-3.48
-6.87
-6.62
-2.59
3.10
7.20
7.33
3.33
-2.60
-7.17
-7.89
-4.50
0.98
5.45
6.57
4.03
-0.31
-3.68
-4.15
-1.77
1.46
2.93
1.03
-3.64
-8.54
-10.60
-8.12
-1.87
5.13
9.32
8.54
3.33
-3.34
-7.72
-7.43
-2.71
3.73
8.32
8.66
4.80
-0.84
-4.96
-5.38
-2.14
2.41
5.23
4.28
-0.05
-5.34
-8.34
-7.11
-1.99
4.27
8.25
7.67
2.89
-3.39
-7.55
-7.26
-2.81
2.98
6.61
5.85
1.32
-4.03
-6.63
-4.64
0.88
6.49
8.48
5.15
-1.99
-9.04
-11.97
-8.98
-1.53
6.48
10.95
9.86
4.32
-2.23
-5.97
-5.05
-0.31
5.06
7.74
6.07
1.19
-3.77
-5.55
-2.70
3.42
9.44
11.90
9.27
2.89
-3.76
-7.05
-5.32
0.21
6.14
8.94
6.99
1.52
-4.13
-6.60
-4.48
0.83
5.95
7.66
4.77
-1.08
-6.51
-8.34
-5.62
0.02
5.12
6.59
3.47
-2.50
-7.91
-9.65
-6.75
-1.04
4.01
5.30
2.04
-3.73
-8.39
-8.84
-4.59
2.01
6.94
7.09
1.97
-5.75
-11.91
-13.22
-9.05
-1.79
4.69
7.12
4.66
-0.87
-6.12
-8.14
-5.96
-0.98
3.96
6.26
5.05
1.62
-1.43
-1.80
1.14
5.83
9.41
9.39
5.22
-1.33
-7.05
-9.19
-7.07
-2.40
1.65
2.41
-0.63
-5.56
-9.16
-8.86
-4.30
2.39
7.92
9.74
7.58
3.55
0.70
1.08
4.39
8.17
9.31
6.12
-0.43
-7.17
-10.46
-8.41
-1.98
5.40
9.78
8.79
3.05
-4.30
-9.23
-9.17
-4.22
2.79
8.14
9.10
5.59
0.00
-4.30
-4.89
-1.78
2.71
5.33
4.03
-0.79
-6.40
-9.37
-7.72
-2.14
4.18
7.50
5.58
-0.77
-8.17
-12.47
-11.11
-4.65
3.60
9.40
10.03
5.75
-0.37
-4.51
-4.26
-0.16
4.84
7.18
5.03
-0.53
-6.15
-8.25
-5.29
1.21
7.52
9.90
6.81
-0.17
-7.34
-10.93
-9.30
-3.66
2.72
6.51
6.08
2.40
-1.77
-3.57
-1.74
2.72
7.16
8.93
6.92
2.31
-2.12
-3.63
-1.21
3.76
8.15
8.93
5.03
-2.01
-8.73
-11.65
-9.39
-3.31
3.07
6.17
4.33
-1.19
-7.13
-9.95
-7.98
-2.25
4.21
8.17
7.97
4.37
-0.05
-2.51
-1.72
1.42
4.45
4.92
1.92
-3.21
-7.55
-8.33
-4.65
1.93
8.04
10.45
7.90
1.88
-4.29
-7.40
-6.26
-2.28
1.48
2.22
-0.87
-6.14
-10.59
-11.66
-8.78
-3.63
0.92
2.54
0.77
-2.76
-5.48
-5.38
-2.36
1.86
4.71
4.40
1.05
-3.32
-5.88
-4.63
0.39
7.03
12.14
13.25
9.93
4.05
-1.19
-3.17
-1.09
3.41
7.40
8.24
5.31
0.27
-3.83
-4.53
-1.37
3.67
7.46
7.48
3.44
-2.61
-7.43
-8.51
-5.58
-0.67
3.10
3.40
0.04
-4.88
-8.30
-8.05
-4.17
1.04
4.45
4.01
0.00
-5.11
-8.07
-6.93
-2.09
3.82
7.60
7.24
3.21
-1.96
-5.13
-4.42
-0.21
5.10
8.52
8.28
4.75
0.13
-2.84
-2.58
0.44
3.98
5.41
3.34
-1.43
-6.33
-8.51
-6.49
-1.21
4.51
7.47
6.01
0.90
-5.06
-8.62
-7.97
-3.64
1.78
5.22
4.87
1.33
-2.90
-4.87
-2.98
2.01
7.28
9.63
7.37
1.46
-4.91
-8.13
-6.21
-0.08
6.89
10.80
9.49
3.78
-3.00
-7.01
-6.16
-1.31
4.26
6.84
4.54
-1.56
-8.03
-11.10
-8.96
-2.73
4.12
7.91
6.80
1.95
-3.38
-5.80
-3.86
1.03
5.52
6.41
2.67
-3.92
-9.63
-11.04
-6.97
0.76
8.28
11.74
9.42
2.66
-5.00
-9.77
-9.75
-5.85
-1.18
0.99
-0.81
-5.32
-9.42
-10.02
-6.05
0.75
6.93
9.27
6.76
1.19
-3.96
-5.65
-3.09
1.89
5.95
6.30
2.43
-3.64
-8.45
-9.28
-5.55
0.74
6.32
8.43
6.44
2.01
-1.90
-2.90
-0.51
3.57
6.51
6.11
2.19
-3.23
-6.99
-6.68
-2.07
4.60
9.76
10.60
6.64
0.06
-5.47
-6.99
-4.00
1.32
5.42
5.49
1.31
-4.77
-9.16
-9.23
-4.89
1.42
6.19
6.91
3.57
-1.51
-5.02
-4.73
-0.73
4.56
7.95
7.38
3.17
-2.12
-5.23
-4.08
0.78
6.65
10.02
8.85
3.58
-2.88
-6.99
-6.58
-2.15
3.47
6.77
5.69
0.86
-4.89
-8.15
-6.90
-1.87
4.04
7.30
5.94
0.65
-5.56
-9.12
-8.04
-2.99
2.95
6.20
4.77
-0.63
-6.94
-10.59
-9.44
-4.18
2.23
6.13
5.50
0.91
-4.61
-7.58
-6.02
-0.75
5.17
8.18
6.42
0.89
-5.12
-7.99
-5.79
0.45
7.44
11.49
10.64
5.68
-0.36
-4.16
-3.92
-0.29
3.99
5.94
4.02
-0.92
-6.11
-8.50
-6.62
-1.52
3.75
5.85
3.26
-2.81
-8.97
-11.56
-8.80
-1.87
5.76
10.23
9.50
4.52
-1.51
-4.91
-3.79
1.07
6.64
9.52
7.87
2.53
-3.56
-7.02
-6.04
-1.34
4.23
7.39
6.35
1.76
-3.64
-6.79
-6.10
-2.40
1.67
3.27
1.21
-3.35
-7.60
-8.71
-5.68
0.06
5.40
7.43
5.11
-0.04
-4.89
-6.48
-3.94
1.18
5.74
7.02
4.33
-0.52
-4.34
-4.49
-0.59
5.21
9.47
9.48
4.95
-1.89
-7.54
-9.31
-6.78
-2.02
1.80
2.23
-0.88
-5.35
-7.99
-6.51
-0.96
6.12
11.23
11.71
7.43
0.75
-4.79
-6.50
-4.06
0.53
4.09
4.40
1.44
-2.58
-4.68
-2.99
1.98
7.57
10.53
8.88
3.11
-4.12
-9.44
-10.57
-7.53
-2.34
2.04
3.55
1.96
-1.09
-3.27
-2.91
-0.12
3.35
5.13
3.63
-0.92
-6.49
-10.25
-10.21
-6.33
-0.66
3.84
4.99
2.68
-1.07
-3.40
-2.35
1.79
6.62
9.07
7.32
2.10
-3.62
-6.33
-4.09
2.18
9.10
12.82
11.23
5.18
-1.95
-6.33
-5.84
-1.29
4.19
7.08
5.56
0.63
-4.76
-7.31
-5.61
-0.76
4.12
5.91
3.22
-2.63
-8.42
-10.82
-8.41
-2.43
3.77
6.85
5.22
0.08
-5.44
-8.05
-6.38
-1.50
3.60
5.98
4.31
-0.29
-5.11
-7.34
-5.77
-1.33
3.37
5.70
4.34
0.29
-3.95
-5.58
-3.38
1.63
6.58
8.57
6.32
1.16
-3.88
-5.65
-3.09
2.29
7.09
8.21
4.58
-2.02
-8.17
-10.63
-8.31
-2.72
2.84
5.36
3.69
-0.74
-4.88
-5.79
-2.56
3.28
8.42
9.79
6.27
-0.52
-7.24
-10.59
-9.22
-4.46
0.56
2.86
1.28
-2.80
-6.43
-6.88
-3.29
2.78
8.28
10.40
8.16
3.04
-1.88
-3.64
-1.19
4.04
8.83
10.13
6.82
0.43
-5.66
-8.26
-6.23
-1.26
3.19
3.92
0.03
-6.55
-12.06
-13.19
-9.05
-1.70
4.92
7.41
4.74
-1.16
-6.63
-8.41
-5.58
0.01
5.00
6.56
4.18
-0.18
-3.25
-2.64
1.69
7.40
11.20
10.90
6.72
1.19
-2.48
-2.31
1.22
5.51
7.36
5.02
-0.77
-7.23
-11.00
-10.14
-5.22
1.04
5.17
5.01
0.75
-5.11
-9.28
-9.46
-5.67
-0.17
3.95
4.52
1.61
-2.69
-5.39
-4.61
-0.61
4.28
7.11
6.09
1.70
-3.50
-6.44
-5.26
-0.50
5.27
8.82
8.15
3.63
-2.20
-6.08
-5.84
-1.61
4.21
8.34
8.42
4.38
-1.53
-6.02
-6.62
-3.12
2.33
6.54
7.19
4.22
-0.10
-2.69
-1.59
2.69
7.40
9.32
6.74
0.75
-5.36
-8.00
-5.52
0.79
7.31
10.29
7.95
1.63
-5.08
-8.29
-6.24
-0.16
6.39
9.60
7.59
1.40
-5.59
-9.65
-8.79
-3.84
2.14
5.59
4.57
-0.18
-5.64
-8.37
-6.55
-1.10
4.88
7.87
6.19
0.89
-4.71
-7.13
-4.75
1.15
7.18
9.87
7.78
2.32
-3.23
-5.54
-3.53
1.26
5.44
6.05
2.23
-4.18
-9.75
-11.41
-8.34
-2.29
3.26
5.25
2.61
-3.03
-8.42
-10.56
-8.36
-3.31
1.50
3.17
0.84
-3.88
-7.69
-7.80
-3.54
2.98
8.20
9.09
5.21
-1.02
-5.78
-6.02
-1.51
5.16
9.91
9.76
4.52
-3.05
-8.90
-10.02
-6.10
0.36
5.60
6.74
3.32
-2.46
-7.23
-8.32
-5.26
0.04
4.40
5.35
2.47
-2.31
-5.83
-5.57
-1.15
5.38
10.70
11.98
8.62
2.47
-3.19
-5.60
-4.05
-0.20
3.00
3.19
0.05
-4.48
-7.35
-6.30
-1.27
5.31
9.99
10.15
5.66
-1.07
-6.42
-7.67
-4.58
0.58
4.37
4.38
0.63
-4.27
-6.91
-5.14
0.38
6.58
9.70
7.75
1.72
-4.89
-8.20
-6.29
-0.30
6.26
9.67
8.16
2.89
-2.92
-6.04
-5.08
-1.17
2.79
3.98
1.26
-4.23
-9.67
-12.22
-10.42
-5.14
1.00
4.91
4.78
1.05
-3.70
-6.36
-4.94
0.02
5.89
9.33
8.42
3.76
-1.80
-4.89
-3.72
0.82
5.77
7.81
5.42
-0.16
-5.64
-7.71
-4.99
1.03
6.99
9.50
7.27
1.68
-3.98
-6.59
-4.91
-0.18
4.63
6.67
4.74
-0.06
-5.04
-7.41
-5.89
-1.30
3.84
6.78
6.12
2.60
-1.36
-3.03
-1.14
3.33
7.54
8.67
5.57
-0.19
-5.36
-6.81
-3.59
2.51
7.85
9.24
5.71
-0.84
-6.80
-8.88
-6.10
-0.22
5.24
7.07
4.13
-1.92
-7.72
-10.00
-7.54
-1.79
3.88
6.12
3.52
-2.52
-8.57
-11.20
-8.92
-3.16
2.67
5.20
3.17
-1.86
-6.45
-7.48
-4.10
1.75
6.41
6.89
2.66
-3.93
-9.08
-9.76
-5.57
1.01
6.19
6.99
3.09
-3.11
-7.81
-8.09
-3.57
3.41
9.17
10.84
8.00
2.79
-1.30
-1.68
1.95
7.23
10.72
9.89
4.82
-1.93
-6.64
-6.75
-2.34
3.90
8.23
7.98
3.11
-3.85
-9.26
-10.37
-6.87
-0.89
4.20
5.75
3.15
-1.80
-6.08
-7.13
-4.34
0.61
4.75
5.54
2.51
-2.58
-6.69
-7.47
-4.56
0.10
3.61
3.84
0.81
-3.44
-6.06
-5.28
-1.49
3.00
5.32
3.88
-0.73
-5.90
-8.60
-7.06
-1.91
4.26
8.21
8.11
4.34
-0.46
-3.15
-1.89
2.62
7.63
9.89
7.72
2.03
-4.20
-7.53
-6.29
-1.27
4.48
7.73
6.73
2.34
-2.66
-5.15
-3.66
0.91
5.69
7.73
5.66
0.55
-4.70
-7.09
-5.20
-0.22
4.85
6.80
4.23
-1.79
-8.14
-11.57
-10.35
-5.29
0.86
4.93
5.17
1.97
-2.44
-5.46
-5.55
-3.13
-0.09
1.29
-0.14
-3.70
-7.31
-8.68
-6.78
-2.43
2.02
4.07
2.56
-1.59
-5.93
-7.96
-6.57
-2.92
0.40
0.78
-2.55
-8.21
-13.29
-15.29
-13.51
-9.67
-6.68
-6.93
-10.68
-15.92
-19.46
-19.15
-15.16
-10.23
-7.95
-10.68
-17.66
-25.12
-27.93
-22.23
-7.49
12.95
33.36
47.97
53.53
50.38
41.87
32.41
25.51
22.68
23.48
26.55
31.04
37.32
46.80
60.73
79.08
99.64
118.03
129.12
128.43
112.67
80.41
32.41
-27.94
-94.72
-160.30
-216.67
-258.18
-282.58
-292.06
-291.67
-286.76
-280.84
-274.81
-267.86
-258.98
-248.61
-237.53
-225.98
-212.86
-195.69
-171.77
-139.33
-98.35
-50.17
2.46
56.19
106.91
150.29
182.46
201.27
207.22
203.47
194.70
185.09
176.81
169.44
161.11
150.32
137.42
124.61
114.69
109.18
107.19
105.89
102.03
93.93
82.43
70.54
61.63
57.46
57.13
57.57
55.36
48.78
38.77
28.41
21.14
18.74
20.39
23.25
24.10
21.04
14.51
6.88
1.01
-1.21
0.16
3.25
5.54
5.22
2.22
-1.84
-4.58
-4.30
-1.06
3.17
5.58
4.21
-0.77
-6.95
-10.91
-10.16
-4.76
2.67
8.25
9.11
5.03
-1.54
-6.83
-8.14
-5.31
-0.78
2.06
0.98
-3.64
-8.98
-11.56
-9.29
-2.95
4.38
8.93
8.54
3.77
-2.36
-6.22
-5.51
-0.58
5.95
10.65
11.36
8.34
3.93
1.13
1.66
4.96
8.57
9.59
6.66
0.79
-5.15
-8.05
-6.55
-1.75
3.22
5.24
2.91
-2.52
-8.01
-10.43
-8.43
-3.18
2.42
5.33
4.24
0.12
-4.23
-6.03
-4.01
0.66
5.33
7.19
5.21
0.67
-3.56
-4.85
-2.41
2.18
5.95
6.33
2.81
-2.71
-7.03
-7.52
-3.68
2.51
7.64
8.83
5.22
-1.41
-7.83
-10.87
-9.31
-4.21
1.58
5.17
5.20
2.40
-0.87
-2.29
-0.92
2.08
4.32
3.66
-0.34
-5.99
-10.43
-11.24
-7.86
-2.05
3.25
5.25
3.19
-1.58
-6.13
-7.90
-5.95
-1.64
2.29
3.25
0.48
-4.41
-8.31
-8.41
-3.96
3.18
9.41
11.48
8.40
2.17
-3.49
-5.11
-1.75
4.66
10.29
11.82
8.28
1.60
-4.59
-7.19
-5.26
-0.60
3.64
4.72
2.09
-2.52
-6.03
-6.19
-2.76
2.09
5.21
4.25
-0.74
-7.31
-11.87
-11.74
-6.79
0.54
6.50
8.30
5.54
0.48
-3.55
-4.01
-0.85
3.72
6.51
5.57
1.29
-3.70
-6.17
-4.35
1.06
7.06
10.25
8.71
3.25
-3.15
-6.87
-5.90
-0.86
5.36
9.19
8.58
4.04
-1.53
-4.71
-3.40
1.69
7.56
10.47
8.33
1.84
-5.71
-10.44
-9.95
-4.90
1.57
5.63
5.19
0.96
-3.92
-5.87
-3.16
3.13
9.58
12.55
10.20
3.69
-3.59
-7.79
-6.89
-1.69
4.71
8.60
7.92
3.21
-2.60
-6.21
-5.65
-1.58
3.27
5.62
3.81
-1.40
-7.16
-10.29
-9.16
-4.63
0.43
2.88
1.21
-3.59
-8.59
-10.61
-8.23
-2.55
3.24
5.84
3.67
-2.04
-8.03
-10.72
-8.30
-1.73
5.84
10.68
10.67
6.21
0.10
-4.26
-4.75
-1.63
2.61
4.88
3.36
-1.19
-5.99
-7.72
-4.73
1.87
8.69
11.96
9.84
3.46
-3.50
-7.16
-5.49
0.47
7.21
10.96
9.73
4.49
-1.63
-5.12
-4.33
-0.21
4.18
5.65
2.82
-3.09
-8.89
-11.34
-9.02
-3.24
2.78
5.68
3.93
-1.33
-6.99
-9.75
-8.12
-3.16
2.21
5.03
4.04
0.42
-3.00
-3.62
-0.62
4.45
8.62
9.20
5.54
-0.61
-5.99
-7.71
-4.83
1.08
6.83
9.33
7.35
2.13
-3.37
-6.15
-4.92
-0.83
3.35
4.87
2.78
-1.57
-5.30
-5.80
-2.43
3.05
7.45
8.07
4.36
-1.72
-6.84
-8.24
-5.29
0.07
4.63
5.74
2.93
-1.91
-5.64
-5.84
-2.28
2.96
6.66
6.41
2.05
-4.09
-8.60
-8.85
-4.52
2.13
7.51
8.71
5.09
-1.40
-7.24
-9.38
-6.87
-1.44
3.70
5.51
3.05
-2.09
-6.78
-8.20
-5.58
-0.56
3.70
4.58
1.46
-3.74
-7.87
-8.20
-4.35
1.76
6.84
8.35
5.85
1.22
-2.50
-3.13
-0.39
3.72
6.47
5.95
2.38
-2.20
-4.96
-4.14
-0.05
5.06
8.29
7.81
3.87
-1.26
-4.69
-4.49
-0.96
3.59
6.04
4.43
-0.97
-7.59
-12.06
-12.01
-7.41
-0.64
4.84
6.45
3.98
-0.41
-3.48
-3.04
0.73
5.24
7.14
4.44
-2.11
-9.24
-13.02
-11.19
-4.50
3.55
8.82
8.76
4.01
-2.17
-5.82
-4.52
1.17
8.31
13.11
13.32
9.29
3.74
-0.04
-0.09
3.01
6.51
7.35
3.98
-2.46
-8.78
-11.59
-9.32
-3.16
3.49
7.00
5.54
0.10
-6.04
-9.34
-7.98
-2.96
2.56
5.20
3.36
-1.72
-6.81
-8.55
-5.61
0.60
6.67
9.13
6.65
0.64
-5.33
-7.91
-5.66
-0.04
5.60
7.93
5.59
-0.07
-5.87
-8.43
-6.32
-0.55
5.78
9.41
8.69
4.45
-0.52
-3.19
-2.08
1.73
5.46
6.29
3.18
-2.28
-6.92
-7.77
-4.13
2.09
7.30
8.35
4.46
-2.46
-8.67
-10.98
-8.25
-2.17
3.86
6.55
4.48
-1.05
-6.94
-9.82
-8.08
-2.57
3.71
7.38
6.58
1.98
-3.61
-6.87
-5.80
-1.07
4.65
8.16
7.66
3.87
-0.60
-2.67
-0.86
4.00
9.10
11.50
9.78
4.92
-0.26
-2.86
-1.64
2.25
5.86
6.34
2.60
-3.84
-9.71
-11.77
-8.77
-2.12
4.80
8.54
7.56
2.94
-2.33
-5.38
-5.08
-2.94
-1.87
-4.41
-10.93
-19.21
-25.74
-27.63
-24.33
-17.81
-11.49
-8.12
-8.43
-10.82
-12.43
-10.95
-5.93
0.99
7.03
9.84
8.81
5.30
1.88
0.87
3.08
7.37
11.41
13.03
11.54
8.11
5.04
4.30
6.35
9.72
11.98
11.15
7.03
1.31
-3.30
-4.58
-2.10
2.67
7.06
8.92
7.71
4.74
2.30
2.26
4.81
8.37
10.51
9.38
4.93
-0.94
-5.38
-6.12
-2.77
2.90
7.94
9.85
7.95
3.69
-0.29
-1.71
-0.05
3.28
5.80
5.51
2.16
-2.61
-6.26
-6.77
-3.97
0.35
3.45
3.29
-0.23
-5.20
-8.74
-8.72
-5.10
0.02
3.60
3.42
-0.52
-5.93
-9.56
-9.12
-4.57
1.70
6.41
7.21
4.10
-0.67
-3.93
-3.59
0.21
5.19
8.31
7.68
3.65
-1.37
-4.43
-3.76
0.23
5.08
7.79
6.50
1.65
-4.37
-8.44
-8.61
-5.06
-0.07
3.31
3.00
-0.92
-6.20
-9.85
-9.74
-5.99
-0.88
2.46
1.96
-2.18
-7.54
-10.89
-10.26
-5.87
-0.30
3.33
2.94
-1.00
-5.95
-8.62
-7.06
-1.66
4.94
9.36
9.36
5.19
-0.64
-4.77
-4.90
-1.08
4.41
8.38
8.70
5.47
1.01
-1.72
-0.78
3.32
8.04
10.14
7.73
1.42
-5.92
-10.72
-10.78
-6.37
-0.25
4.10
4.23
0.41
-4.86
-8.03
-6.93
-1.88
4.34
8.20
7.56
2.92
-2.78
-6.05
-4.80
0.29
6.39
10.06
9.45
5.24
0.20
-2.53
-1.34
2.89
7.37
9.11
6.65
1.07
-4.69
-7.43
-5.77
-0.83
4.16
5.96
3.14
-2.86
-8.72
-11.18
-8.93
-3.51
1.75
3.66
1.25
-3.83
-8.11
-8.62
-4.53
2.17
7.88
9.38
5.82
-0.87
-6.98
-9.14
-6.25
0.05
6.14
8.71
6.42
0.78
-4.97
-7.66
-6.10
-1.50
3.17
5.14
3.26
-1.29
-5.84
-7.86
-6.30
-2.30
1.71
3.33
1.88
-1.44
-4.03
-3.71
0.06
5.67
10.22
11.19
7.89
1.92
-3.63
-5.80
-3.53
1.89
7.49
10.28
8.83
4.15
-1.10
-3.98
-3.16
0.46
4.17
5.19
2.33
-3.16
-8.28
-10.12
-7.59
-2.32
2.48
3.71
0.54
-5.34
-10.44
-11.73
-8.29
-1.96
3.77
5.84
3.46
-1.52
-5.75
-6.20
-2.17
4.46
10.16
11.93
8.95
3.13
-2.13
-3.92
-1.58
2.95
6.34
5.99
1.63
-4.54
-9.13
-9.72
-6.22
-0.95
2.89
3.05
-0.25
-4.68
-7.11
-5.65
-0.68
5.29
9.08
8.66
4.28
-1.60
-5.85
-6.27
-2.91
2.14
5.86
6.12
2.81
-2.09
-5.70
-5.94
-2.65
2.19
5.70
5.71
2.13
-3.12
-7.01
-7.35
-3.88
1.40
5.54
6.22
3.21
-1.63
-5.38
-5.75
-2.58
2.26
5.83
6.06
2.87
-1.65
-4.60
-4.02
-0.19
4.54
7.23
6.11
1.80
-3.15
-5.63
-4.08
0.73
5.98
8.64
7.10
2.15
-3.49
-6.80
-6.15
-2.25
2.36
4.81
3.55
-0.72
-5.47
-7.70
-5.81
-0.42
5.82
9.71
9.32
5.10
-0.45
-4.18
-4.24
-1.05
2.97
4.91
3.23
-1.38
-6.29
-8.57
-6.76
-1.81
3.46
5.99
4.37
-0.35
-5.29
-7.44
-5.46
-0.39
4.92
7.57
6.24
2.01
-2.35
-3.96
-1.71
3.18
7.75
9.07
5.94
-0.33
-6.62
-9.74
-8.12
-2.81
3.24
6.74
6.07
2.02
-2.58
-4.79
-3.12
1.33
5.72
7.02
3.92
-2.36
-8.68
-11.72
-10.04
-4.64
1.34
4.67
3.70
-0.53
-5.16
-7.06
-4.89
0.24
5.45
7.74
5.89
1.04
-3.88
-6.02
-4.12
0.63
5.40
7.36
5.25
0.24
-4.86
-7.14
-5.33
-0.50
4.53
6.82
5.05
0.19
-4.98
-7.57
-6.29
-2.18
2.04
3.62
1.54
-2.96
-7.09
-8.22
-5.47
-0.25
4.65
6.67
5.05
1.20
-2.12
-2.56
0.49
5.52
9.75
10.81
8.10
3.15
-1.29
-2.71
-0.39
4.24
8.30
9.10
5.71
-0.42
-6.25
-8.94
-7.31
-2.75
1.80
3.46
1.23
-3.53
-7.82
-8.87
-5.73
0.09
5.58
7.87
5.90
0.95
-4.11
-6.54
-5.28
-1.50
2.11
2.90
0.06
-4.99
-9.21
-9.86
-6.11
0.27
5.95
7.83
4.93
-1.13
-6.97
-9.58
-7.86
-3.29
1.13
2.79
1.04
-2.53
-5.08
-4.37
-0.22
5.41
9.55
9.97
6.59
1.46
-2.41
-2.89
0.04
4.27
6.85
5.70
1.01
-4.91
-8.84
-8.54
-4.06
2.24
6.88
7.39
3.59
-2.19
-6.41
-6.46
-2.18
4.05
8.65
8.97
4.89
-1.16
-5.63
-5.90
-1.86
4.05
8.30
8.34
4.04
-2.16
-6.73
-7.06
-2.98
3.15
7.86
8.52
4.93
-0.67
-4.84
-5.04
-1.10
4.65
8.73
8.60
4.07
-2.62
-8.12
-9.87
-7.58
-3.13
0.53
1.23
-1.24
-5.01
-7.45
-6.75
-3.13
1.28
3.72
2.58
-1.60
-6.28
-8.43
-6.33
-0.65
5.75
9.57
8.83
4.18
-1.65
-5.20
-4.46
0.20
6.12
10.02
9.75
5.57
-0.09
-4.08
-4.31
-1.00
3.55
6.30
5.27
0.74
-4.84
-8.29
-7.46
-2.68
3.50
7.63
7.51
3.29
-2.41
-6.28
-6.10
-2.21
2.81
5.71
4.59
-0.05
-5.53
-8.64
-7.57
-2.97
2.41
5.37
4.12
-0.61
-6.01
-8.86
-7.34
-2.14
3.85
7.27
6.17
1.34
-4.28
-7.17
-5.45
0.12
6.48
10.17
9.37
4.87
-0.48
-3.55
-2.71
1.16
5.43
7.12
4.88
-0.30
-5.59
-7.94
-5.85
-0.27
5.84
9.07
7.49
1.74
-5.12
-9.47
-9.08
-4.44
1.49
5.14
4.44
0.13
-4.83
-7.04
-4.91
0.56
6.23
8.87
6.95
1.68
-3.87
-6.55
-5.00
-0.47
4.00
5.35
2.36
-3.50
-8.94
-10.60
-7.13
-0.13
6.67
9.47
6.67
-0.20
-7.17
-10.28
-7.70
-0.84
6.53
10.54
9.38
4.24
-1.56
-4.61
-3.48
0.65
4.73
5.87
3.06
-2.22
-7.01
-8.58
-6.16
-1.35
2.86
3.88
1.15
-3.54
-7.13
-7.12
-3.13
2.84
7.51
8.22
4.49
-1.69
-6.82
-7.97
-4.31
2.26
8.22
10.27
7.31
0.89
-5.59
-8.85
-7.46
-2.55
2.91
5.93
5.18
1.65
-2.08
-3.54
-1.83
1.78
4.75
4.77
1.34
-3.93
-8.11
-8.66
-4.95
1.30
6.94
9.15
7.01
2.02
-2.89
-5.02
-3.49
0.42
4.02
4.95
2.55
-1.78
-5.42
-6.17
-3.53
0.96
4.68
5.43
2.80
-1.61
-5.19
-5.77
-2.92
1.78
5.65
6.54
3.99
-0.42
-4.04
-4.70
-2.00
2.38
5.71
5.79
2.31
-2.92
-6.99
-7.49
-4.08
1.39
5.74
6.51
3.18
-2.31
-6.86
-7.85
-4.83
0.39
4.64
5.41
2.19
-3.10
-7.30
-7.76
-4.05
1.84
6.47
7.13
3.38
-2.50
-6.85
-6.72
-1.74
5.64
11.41
12.39
8.06
0.89
-5.20
-6.91
-3.49
2.99
8.82
10.91
8.36
3.03
-1.86
-3.45
-1.11
3.35
6.65
6.20
1.70
-4.63
-9.24
-9.47
-5.16
1.11
5.66
5.77
1.53
-4.48
-8.66
-8.65
-4.72
0.50
3.62
2.50
-2.42
-8.40
-11.95
-10.85
-5.36
1.89
7.37
8.70
5.90
1.40
-1.45
-0.51
3.84
8.89
11.15
8.55
1.84
-5.77
-10.35
-9.57
-3.99
3.26
8.25
8.49
4.22
-1.87
-6.28
-6.77
-3.50
1.09
3.86
2.77
-1.81
-7.45
-11.05
-10.68
-6.67
-1.33
2.34
2.48
-0.50
-4.35
-6.16
-4.27
0.79
6.44
9.56
8.21
2.89
-3.72
-8.19
-8.21
-3.91
2.34
7.17
8.26
5.52
1.04
-2.21
-2.32
0.51
4.06
5.57
3.52
-1.33
-6.36
-8.59
-6.56
-1.21
4.63
7.73
6.42
1.45
-4.42
-8.03
-7.58
-3.57
1.60
5.10
5.28
2.51
-1.13
-3.16
-2.13
1.46
5.55
7.67
6.47
2.52
-1.94
-4.40
-3.51
0.04
3.90
5.43
3.39
-1.32
-6.10
-8.18
-6.28
-1.48
3.49
5.70
3.90
-0.86
-5.75
-7.89
-6.00
-1.17
3.88
6.33
5.00
0.93
-3.24
-4.89
-2.93
1.61
6.16
8.11
6.32
1.76
-3.03
-5.40
-4.05
0.22
5.01
7.65
6.74
2.96
-1.43
-3.92
-3.27
-0.30
2.66
3.16
0.25
-4.97
-9.80
-11.69
-9.57
-4.70
0.08
1.88
-0.62
-6.33
-12.41
-15.67
-14.48
-9.54
-3.66
-0.08
-0.76
-5.19
-10.84
-14.54
-14.65
-11.90
-9.12
-9.41
-14.28
-22.44
-30.65
-35.47
-35.30
-31.50
-27.42
-26.65
-30.86
-39.09
-48.26
-55.27
-58.61
-59.26
-59.80
-62.69
-68.56
-75.76
-81.52
-83.66
-82.26
-79.65
-79.03
-82.11
-87.22
-89.39
-82.67
-63.28
-32.11
5.27
41.19
69.65
89.09
103.30
119.18
143.24
178.47
223.12
272.00
319.05
359.95
393.10
419.56
441.08
458.35
469.67
471.45
459.19
429.63
383.47
323.80
255.91
185.61
117.76
55.41
-0.59
-51.75
-101.52
-154.40
-213.89
-279.56
-345.66
-401.82
-436.30
-440.52
-412.73
-358.65
-290.35
-222.33
-167.28
-133.19
-121.86
-129.01
-145.51
-159.99
-162.88
-150.57
-127.47
-103.65
-89.56
-89.61
-99.07
-106.75
-101.70
-80.10
-47.72
-16.47
2.95
7.08
1.29
-4.55
-2.84
6.61
16.10
14.30
-7.54
-50.32
-106.20
-162.15
-205.20
-227.42
-228.02
-212.17
-187.60
-160.87
-135.04
-109.78
-83.40
-55.43
-27.85
-4.46
11.08
17.60
17.62
16.81
21.79
37.54
65.59
103.80
147.57
191.89
233.17
269.96
302.57
331.68
357.14
377.46
390.32
393.81
387.53
372.68
351.63
326.61
298.56
267.84
232.78
191.52
143.19
88.52
29.33
-32.26
-94.30
-154.93
-212.09
-263.73
-307.99
-343.86
-370.82
-388.17
-394.33
-387.13
-365.22
-329.92
-286.61
-242.82
-207.12
-185.35
-178.06
-180.41
-184.56
-182.98
-171.17
-148.60
-118.00
-84.01
-51.67
-24.85
-5.27
8.23
19.17
31.90
49.19
70.58
92.04
108.16
115.07
112.92
105.96
100.42
100.92
108.07
118.28
125.93
126.63
119.35
106.52
92.23
79.88
70.67
63.74
57.48
51.12
45.62
43.17
46.18
55.76
70.97
89.05
106.64
121.03
131.27
138.05
143.27
148.80
155.64
163.48
171.10
176.97
179.93
179.64
176.42
171.15
164.72
157.64
149.88
141.04
130.70
118.56
105.27
90.97
75.96
60.68
45.67
31.54
18.91
8.38
0.17
-5.79
-9.87
-12.46
-13.76
-13.64
-11.64
-7.27
-0.33
8.31
16.75
22.25
22.11
14.34
-1.73
-25.38
-55.10
-87.81
-121.77
-156.65
-193.06
-231.58
-271.62
-310.75
-344.99
-370.03
-382.58
-382.21
-371.38
-354.60
-337.14
-323.78
-318.15
-322.00
-334.51
-351.29
-364.65
-365.35
-345.89
-304.49
-246.96
-184.86
-130.52
-91.56
-67.62
-49.33
-25.69
11.17
62.40
122.51
183.17
237.84
284.21
323.56
357.52
385.88
406.22
414.95
409.59
389.95
358.12
317.32
272.67
227.48
184.76
147.91
119.92
102.32
94.12
92.62
92.81
89.81
80.87
66.30
48.49
30.00
12.37
-3.86
-18.34
-30.36
-38.52
-41.73
-39.90
-34.35
-27.46
-21.71
-18.67
-18.41
-19.76
-20.90
-20.32
-17.38
-12.49
-6.91
-2.06
1.02
2.15
1.85
1.09
0.74
1.27
2.56
3.99
4.77
4.32
2.43
-0.70
-4.65
-9.03
-13.64
-18.57
-24.11
-30.64
-38.45
-47.67
-58.23
-70.01
-82.94
-97.02
-112.37
-129.14
-147.45
-167.34
-189.10
-212.48
-236.94
-261.76
-286.06
-308.76
-328.59
-344.12
-353.89
-356.51
-351.03
-336.66
-313.06
-280.51
-239.95
-192.98
-141.68
-88.40
-35.57
14.56
60.10
99.52
131.81
156.50
173.66
183.86
187.95
187.03
182.24
174.69
165.30
154.80
143.77
132.61
121.65
111.20
101.42
92.42
84.18
76.56
69.34
62.26
55.16
48.03
41.02
34.34
28.24
22.81
17.95
13.37
8.77
4.01
-0.77
-5.12
-8.47
-10.36
-10.69
-9.79
-8.30
-6.92
-6.01
-5.42
-4.43
-2.11
2.22
8.69
16.77
25.53
34.11
42.14
50.00
58.59
68.97
82.09
98.44
118.39
142.01
168.54
195.83
220.24
237.34
243.43
237.16
220.26
197.00
172.34
149.92
130.89
114.26
98.35
82.29
66.78
53.40
43.45
36.75
31.58
25.60
17.23
6.67
-4.13
-12.48
-16.60
-16.60
-14.60
-13.61
-15.93
-21.88
-29.66
-36.32
-39.38
-38.07
-33.81
-29.23
-26.83
-27.62
-30.69
-33.93
-35.27
-34.02
-31.09
-28.45
-27.79
-29.52
-32.36
-34.25
-33.41
-29.62
-24.25
-19.56
-17.34
-17.93
-19.97
-21.26
-20.14
-16.51
-12.04
-9.08
-9.40
-12.85
-17.53
-20.60
-20.13
-16.06
-10.45
-6.12
-5.15
-7.62
-11.67
-14.68
-14.78
-12.02
-8.13
-5.52
-5.73
-8.61
-12.40
-14.87
-14.49
-11.41
-7.27
-4.26
-3.86
-5.95
-8.95
-10.67
-9.77
-6.43
-2.45
-0.07
-0.72
-3.98
-7.92
-10.06
-8.96
-4.96
-0.15
2.89
2.49
-1.13
-6.09
-9.85
-10.66
-8.53
-5.02
-2.39
-2.13
-4.15
-6.83
-8.10
-6.74
-3.19
0.54
2.21
0.60
-3.55
-7.93
-9.96
-8.29
-3.59
1.86
5.34
5.25
1.83
-3.03
-6.95
-8.28
-6.97
-4.42
-2.67
-3.17
-5.93
-9.52
-11.86
-11.38
-7.98
-3.13
0.89
2.28
0.73
-2.32
-4.63
-4.44
-1.60
2.22
4.61
3.82
-0.05
-5.07
-8.59
-8.79
-5.82
-1.64
1.03
0.51
-2.99
-7.26
-9.65
-8.41
-3.89
1.78
5.84
6.49
3.86
-0.16
-3.01
-3.04
-0.29
3.44
5.79
5.21
1.89
-2.27
-4.90
-4.61
-1.84
1.26
2.22
-0.28
-5.44
-10.79
-13.56
-12.32
-7.84
-2.66
0.33
-0.41
-4.40
-9.36
-12.73
-13.00
-10.67
-7.77
-6.74
-8.90
-13.78
-19.43
-23.52
-24.82
-23.67
-21.77
-21.06
-22.61
-26.02
-29.93
-32.90
-34.41
-35.15
-36.51
-39.61
-44.45
-49.88
-54.10
-55.95
-55.69
-55.15
-56.96
-63.05
-73.26
-85.07
-94.27
-96.80
-90.59
-76.57
-58.21
-39.97
-25.07
-14.09
-4.84
6.33
23.03
47.47
79.86
118.92
162.41
208.29
254.68
299.71
341.05
375.95
401.62
415.96
418.19
408.70
389.31
362.45
330.32
294.42
255.49
213.65
168.83
122.32
74.58
26.14
-22.43
-70.59
-117.95
-164.09
-208.48
-250.31
-288.48
-322.04
-349.84
-370.82
-384.25
-389.84
-387.72
-378.32
-362.23
-339.03
-309.07
-273.00
-231.83
-186.94
-140.06
-93.06
-47.84
-6.03
31.03
62.21
87.01
105.49
118.15
125.72
129.13
129.34
127.24
123.62
119.01
113.83
108.36
102.81
97.34
92.04
86.94
82.05
77.29
72.43
67.22
61.42
54.78
47.07
38.10
27.73
16.31
3.82
-9.58
-23.56
-37.63
-51.18
-63.54
-74.06
-82.26
-87.65
-89.95
-89.11
-85.24
-78.68
-69.85
-59.27
-47.00
-33.70
-19.94
-6.20
7.22
20.07
32.14
43.24
53.24
61.99
69.31
75.15
79.60
82.85
85.14
86.84
88.25
89.43
90.36
90.82
90.52
89.09
86.35
81.84
75.21
66.31
55.24
42.33
28.13
13.36
-1.06
-14.25
-25.55
-34.52
-40.85
-44.64
-46.14
-45.79
-44.12
-41.69
-39.09
-37.03
-36.07
-36.46
-38.52
-42.12
-46.64
-50.98
-53.73
-53.44
-49.31
-41.01
-28.84
-14.29
0.93
15.38
28.11
38.77
47.40
53.78
57.80
59.05
55.90
46.79
30.58
6.58
-25.63
-63.91
-107.09
-154.28
-204.80
-259.08
-316.67
-375.67
-432.57
-482.42
-519.83
-540.42
-541.37
-513.53
-453.93
-365.66
-257.48
-141.28
-28.51
72.64
157.70
225.49
276.46
310.74
329.08
333.22
326.27
312.49
296.59
282.29
271.81
265.24
260.24
254.01
244.14
229.17
208.45
182.27
152.22
122.62
97.49
80.71
74.74
78.76
88.36
96.91
97.86
87.92
68.34
43.57
18.67
-3.01
-20.53
-34.60
-45.99
-54.57
-59.37
-59.63
-55.83
-49.61
-43.22
-38.67
-36.77
-37.01
-37.93
-37.77
-35.42
-30.92
-25.17
-19.52
-15.17
-12.61
-11.58
-11.20
-10.44
-8.63
-5.79
-2.38
0.86
3.32
4.75
5.33
5.54
5.97
6.93
8.44
10.25
12.01
13.43
14.39
14.91
14.81
14.42
13.95
13.47
12.98
12.38
11.58
10.57
9.27
7.62
5.62
3.16
0.10
-3.66
-8.22
-13.69
-20.13
-27.62
-36.24
-46.03
-56.98
-69.10
-82.34
-96.58
-111.77
-127.82
-144.75
-162.67
-181.75
-202.14
-224.05
-247.57
-272.62
-299.03
-326.38
-354.13
-381.43
-407.06
-429.37
-446.39
-455.53
-453.85
-438.79
-407.58
-358.15
-289.81
-203.68
-102.89
7.50
121.34
232.40
334.53
422.66
493.14
543.95
574.61
587.20
583.83
566.88
538.98
502.83
461.17
416.49
370.77
325.42
281.16
238.02
195.85
154.71
115.18
78.59
46.62
20.97
2.63
-8.62
-14.38
-17.12
-19.22
-22.28
-26.36
-29.97
-30.96
-27.65
-19.81
-9.16
1.12
7.65
8.39
3.78
-2.82
-5.75
0.96
21.24
54.43
94.14
129.55
148.92
143.58
111.20
56.76
-9.19
-73.93
-125.96
-157.36
-165.46
-152.96
-127.15
-97.57
-72.82
-57.35
-50.04
-45.55
-38.23
-26.48
-15.22
-13.74
-30.20
-65.79
-112.12
-153.31
-172.49
-159.06
-113.34
-46.93
21.76
73.99
96.51
85.27
46.03
-8.25
-61.66
-99.54
-111.80
-94.89
-51.74
9.45
77.51
140.76
189.11
215.93
218.82
199.27
161.13
109.11
48.04
-16.62
-78.19
-128.90
-161.50
-171.81
-160.40
-131.96
-92.89
-48.70
-3.23
39.95
75.56
96.66
97.35
76.75
41.32
3.27
-24.48
-33.84
-24.50
-2.79
22.38
43.41
55.92
57.86
47.92
24.92
-10.81
-55.38
-100.43
-134.80
-148.35
-136.55
-102.97
-58.41
-16.62
11.08
20.20
14.25
1.99
-7.25
-8.03
-0.37
11.58
22.47
28.39
27.59
19.60
4.36
-17.75
-44.57
-71.15
-90.36
-95.74
-84.95
-61.78
-34.84
-13.35
-2.05
1.34
4.82
17.16
42.43
77.10
111.30
133.33
134.59
112.87
72.57
22.72
-25.83
-63.33
-83.09
-83.18
-67.00
-42.65
-20.49
-9.48
-13.71
-31.00
-54.22
-74.56
-84.89
-81.35
-63.10
-31.32
11.49
60.98
110.36
150.95
174.19
174.21
150.35
107.75
56.21
7.22
-29.65
-49.87
-55.22
-52.49
-50.09
-53.74
-63.50
-73.84
-77.00
-67.87
-47.53
-23.19
-4.47
2.01
-3.96
-16.34
-26.61
-28.74
-22.32
-12.29
-5.98
-9.04
-22.75
-43.82
-66.60
-86.01
-99.76
-108.72
-115.38
-121.78
-127.90
-131.45
-129.20
-119.04
-101.42
-79.57
-58.31
-42.01
-33.04
-30.96
-33.11
-35.69
-34.96
-27.87
-12.03
13.99
49.88
92.35
134.76
168.12
183.81
177.09
149.54
109.46
69.62
42.93
37.87
55.40
88.66
125.80
154.46
165.88
156.99
130.05
90.82
46.27
3.49
-31.36
-53.41
-60.12
-52.58
-35.95
-18.17
-6.89
-5.68
-12.40
-20.44
-22.42
-14.26
2.42
20.87
32.27
29.64
11.06
-19.59
-54.42
-84.81
-105.07
-114.70
-118.00
-121.60
-131.08
-148.43
-171.37
-195.02
-214.32
-225.98
-229.07
-223.84
-210.94
-190.56
-162.66
-127.76
-87.11
-42.62
3.46
49.23
93.28
134.50
171.45
201.65
221.18
225.84
213.07
184.13
145.15
105.91
76.83
65.01
71.94
93.26
121.86
150.59
175.29
195.07
210.63
222.03
227.41
225.59
215.20
196.24
170.30
139.77
106.96
72.36
36.44
0.05
-35.01
-66.10
-89.81
-102.87
-103.44
-90.86
-66.28
-32.32
7.34
48.85
88.71
124.41
154.41
177.61
193.62
202.24
203.49
197.69
185.67
168.61
147.95
126.42
104.73
82.91
60.66
37.83
14.65
-8.17
-29.50
-48.28
-63.85
-76.18
-85.22
-91.10
-94.17
-94.94
-94.05
-92.47
-91.07
-91.57
-95.67
-104.18
-116.57
-131.18
-144.97
-154.17
-155.15
-145.96
-124.17
-89.01
-41.33
16.38
79.81
144.02
202.23
250.65
285.97
305.08
305.81
286.75
247.88
189.93
115.57
31.32
-53.43
-128.63
-191.54
-241.38
-280.14
-307.87
-327.29
-341.19
-350.69
-354.48
-350.36
-335.99
-309.76
-272.88
-229.28
-185.18
-146.30
-116.54
-94.00
-77.10
-64.40
-54.43
-46.73
-41.01
-37.23
-34.35
-30.91
-25.74
-19.28
-13.01
-8.48
-7.06
-9.27
-14.95
-22.92
-31.77
-40.49
-49.32
-59.15
-70.99
-85.65
-103.28
-123.49
-145.00
-166.35
-186.19
-203.67
-218.19
-229.07
-235.61
-236.97
-233.64
-225.15
-211.29
-192.40
-169.65
-144.70
-119.50
-95.85
-75.19
-58.38
-45.49
-36.26
-30.09
-26.32
-24.12
-22.72
-21.28
-19.16
-15.93
-11.40
-5.82
0.15
5.72
10.07
12.73
13.73
13.55
12.96
12.83
13.70
15.70
18.69
22.42
26.39
30.57
35.42
41.51
49.43
59.30
70.74
83.01
95.45
107.54
119.34
131.44
144.89
161.36
183.04
212.27
250.22
295.43
342.77
384.44
412.67
422.93
415.99
397.69
375.91
356.98
343.37
333.65
324.18
310.68
289.23
256.51
210.22
150.35
80.57
8.85
-54.15
-98.10
-116.43
-108.65
-80.36
-41.95
-5.58
17.79
21.34
3.79
-30.58
-73.77
-116.88
-152.72
-177.31
-189.72
-190.89
-182.85
-168.67
-152.45
-138.79
-131.17
-130.09
-132.22
-131.34
-120.90
-96.88
-59.44
-12.93
35.54
78.12
108.49
123.07
122.02
108.92
89.54
69.87
54.24
44.18
38.40
34.48
30.08
23.93
15.51
4.29
-10.59
-29.41
-50.43
-68.97
-78.37
-72.76
-50.49
-16.00
21.12
49.59
60.63
50.70
22.55
-16.11
-54.74
-82.63
-91.36
-76.99
-41.17
8.85
62.35
108.44
139.21
151.19
145.02
124.00
92.88
57.70
25.86
5.04
1.02
15.31
44.61
82.74
123.95
165.21
205.80
245.12
280.16
305.48
315.58
308.45
287.35
259.52
232.47
210.19
191.80
173.02
149.02
116.38
73.66
20.90
-40.79
-108.69
-177.65
-240.39
-289.24
-318.68
-327.44
-318.90
-299.28
-274.79
-249.45
-224.76
-200.83
-178.31
-158.84
-144.43
-135.22
-128.15
-117.49
-97.58
-66.45
-27.90
9.13
34.91
43.54
36.42
21.11
7.22
0.87
1.97
5.08
3.99
-3.98
-16.04
-25.97
-28.24
-21.96
-11.57
-3.93
-4.27
-12.78
-24.65
-32.65
-31.67
-21.49
-7.20
3.88
6.06
-1.54
-14.57
-26.14
-30.68
-27.26
-19.58
-13.84
-14.21
-20.44
-27.49
-29.00
-21.26
-5.87
10.85
21.45
21.60
12.82
1.59
-4.40
-0.53
12.16
27.45
37.76
38.27
29.72
17.57
8.87
8.05
14.40
22.47
25.34
18.84
4.22
-12.22
-22.62
-21.78
-10.36
5.61
17.80
20.06
11.37
-4.17
-20.09
-31.59
-37.78
-41.74
-47.52
-57.33
-69.21
-78.05
-77.96
-65.81
-42.80
-14.27
12.82
33.00
44.10
47.63
47.04
45.49
44.09
41.87
37.03
28.69
18.36
9.72
6.84
11.94
23.51
36.88
46.09
47.17
40.13
29.03
19.57
15.84
18.17
23.14
25.77
22.80
14.62
4.78
-2.14
-3.80
-1.20
1.60
0.39
-6.40
-16.23
-23.62
-23.25
-13.48
2.03
15.55
19.37
9.83
-10.25
-32.78
-48.35
-50.87
-40.43
-22.59
-5.33
5.25
7.32
3.06
-4.05
-11.99
-21.32
-33.57
-48.63
-63.10
-71.11
-67.62
-51.80
-28.30
-5.05
10.53
15.12
10.50
2.21
-3.17
-0.50
12.49
35.06
63.52
91.79
112.63
119.54
108.50
79.20
34.73
-19.55
-77.32
-132.18
-177.99
-209.41
-223.14
-219.49
-202.74
-180.20
-159.56
-146.12
-141.88
-145.76
-155.23
-167.66
-180.93
-193.11
-202.26
-206.46
-204.46
-196.29
-182.98
-166.23
-147.54
-127.51
-105.62
-80.46
-50.09
-12.19
35.26
93.03
159.27
228.66
293.09
343.67
373.73
381.39
370.12
347.04
320.02
294.82
273.84
256.57
241.14
225.80
209.39
191.27
170.82
147.16
119.42
87.17
50.90
12.27
-25.87
-60.19
-87.98
-108.19
-121.69
-130.63
-136.87
-140.79
-141.06
-135.63
-123.50
-105.84
-85.87
-67.23
-52.10
-39.66
-26.16
-6.64
22.32
60.02
100.98
136.09
155.87
153.87
129.02
86.08
34.09
-16.72
-57.63
-83.29
-92.04
-85.16
-65.65
-37.07
-3.10
32.49
65.51
91.29
105.32
104.69
89.57
63.97
34.17
5.72
-19.60
-44.40
-73.48
-109.68
-150.59
-188.27
-212.50
-215.81
-197.23
-162.52
-120.99
-80.88
-46.28
-17.16
8.30
30.77
48.72
59.76
63.15
61.39
59.71
63.43
74.88
91.94
109.18
120.74
123.53
118.54
109.78
101.45
95.51
90.72
84.19
73.81
60.22
46.77
37.72
35.45
38.79
43.31
43.61
36.33
22.00
4.82
-9.62
-17.39
-18.49
-16.62
-17.03
-23.11
-34.31
-46.10
-52.53
-49.43
-36.86
-18.97
-1.56
11.12
18.49
23.44
30.27
41.70
57.05
72.18
81.56
80.67
68.10
45.75
17.85
-11.29
-39.04
-65.25
-91.42
-119.28
-149.23
-179.94
-208.80
-232.92
-249.90
-257.69
-254.53
-238.74
-209.79
-169.33
-122.02
-75.08
-36.40
-11.89
-3.37
-8.08
-19.95
-32.15
-39.26
-38.32
-28.22
-8.85
19.59
55.68
95.45
131.90
156.54
162.63
148.13
116.84
76.62
36.02
1.30
-24.27
-39.23
-42.32
-32.18
-8.56
25.79
64.46
98.41
118.69
119.16
98.48
60.15
11.52
-37.68
-77.39
-98.89
-96.52
-69.21
-21.22
37.99
95.37
137.30
153.84
142.37
108.77
65.17
24.51
-4.64
-20.59
-26.80
-27.81
-25.96
-21.23
-13.84
-6.67
-5.05
-13.36
-30.94
-50.62
-61.72
-55.31
-29.31
10.58
53.55
88.27
106.75
105.62
85.70
51.02
8.06
-34.93
-69.17
-87.44
-85.88
-65.32
-30.45
11.85
54.63
91.77
118.18
129.82
124.54
103.41
71.48
37.14
8.80
-8.36
-14.80
-15.39
-15.97
-19.09
-22.74
-22.09
-13.70
1.09
15.85
22.26
14.82
-5.71
-32.31
-54.97
-65.24
-60.12
-43.05
-22.30
-6.73
-2.15
-8.40
-20.03
-29.12
-29.85
-21.58
-9.15
0.21
1.54
-5.01
-13.91
-17.97
-12.39
2.00
19.21
31.21
32.64
23.75
10.52
1.11
1.07
9.92
21.58
28.40
26.14
16.57
5.82
-0.31
-0.67
0.63
-2.41
-12.23
-25.14
-32.98
-28.84
-12.24
9.33
24.45
24.35
8.01
-17.30
-40.50
-52.58
-51.16
-40.45
-28.09
-20.31
-18.92
-20.91
-21.33
-16.79
-8.16
-0.54
-0.69
-13.00
-36.07
-62.36
-80.77
-82.10
-63.77
-31.88
1.45
23.70
28.31
17.71
1.90
-7.14
-1.47
19.30
49.21
80.52
108.63
134.18
161.99
198.00
245.36
302.66
364.67
424.91
478.18
521.93
555.78
579.84
593.67
595.80
584.07
557.06
515.20
461.16
399.50
337.24
278.72
225.65
177.46
132.15
87.47
42.01
-4.35
-50.50
-94.77
-136.12
-173.99
-208.48
-240.19
-269.76
-297.56
-323.50
-347.19
-367.46
-383.96
-396.80
-406.54
-413.92
-419.51
-423.28
-424.64
-422.49
-415.61
-403.27
-385.46
-362.82
-336.62
-308.42
-279.46
-250.48
-221.57
-192.51
-163.02
-133.30
-104.05
-76.61
-53.14
-36.35
-29.29
-34.13
-50.41
-74.14
-98.52
-115.94
-121.33
-114.66
-100.80
-87.47
-81.78
-87.55
-104.50
-129.31
-156.82
-181.46
-198.44
-204.10
-197.38
-180.70
-159.46
-138.77
-123.41
-115.21
-112.19
-113.08
-115.31
-117.63
-120.40
-122.97
-124.03
-121.16
-111.17
-90.99
-58.52
-12.59
45.90
113.28
182.64
244.09
286.78
302.86
291.19
258.77
219.04
186.21
169.73
170.55
181.61
191.36
189.53
170.89
136.77
93.11
46.87
2.94
-36.94
-72.54
-102.76
-124.25
-132.57
-124.67
-101.76
-69.87
-38.20
-15.18
-4.89
-6.21
-14.29
-24.26
-33.98
-44.10
-55.34
-65.21
-66.80
-51.52
-14.31
42.13
107.06
165.58
205.27
221.52
217.95
204.46
191.87
186.79
189.88
197.47
204.97
209.73
211.55
211.28
209.18
203.98
193.29
175.37
150.43
120.91
90.82
64.08
43.07
28.08
17.40
8.34
-1.42
-12.85
-25.30
-37.00
-46.10
-51.54
-53.46
-53.07
-52.08
-51.88
-53.00
-55.09
-57.17
-58.27
-57.85
-55.97
-53.20
-50.34
-47.97
-46.31
-45.20
-44.24
-43.05
-41.43
-39.36
-37.03
-34.67
-32.44
-30.43
-28.63
-26.97
-25.41
-23.89
-22.42
-21.00
-19.65
-18.36
-17.14
-15.98
-14.91
-13.91
-13.00
-12.04
-11.13
-10.29
-9.51
-8.80
-8.16
-7.57
-7.02
-6.52
-6.07
-5.66
-5.30
-4.97
-4.67
-4.38
-4.12
-3.87
-3.64
-3.43
-3.24
-3.07
-2.92
-2.77
-2.63
-2.51
-2.38
-2.27
-2.16
-2.07
-1.99
-1.91
-1.83
-1.77
-1.70
-1.63
-1.58
-1.52
-1.47
-1.42
-1.38
-1.33
-1.30
-1.26
-1.22
-1.19
-1.15
-1.12
-1.10
-1.07
-1.04
-1.02
-0.99
-0.96
-0.94
-0.92
-0.89
-0.87
-0.87
-0.85
-0.83
-0.80
-0.75
-0.70
-0.69
-0.73
-0.83
-1.00
-1.19
-1.33
-1.42
-1.41
-1.37
-1.32
-1.33
-1.43
-1.60
-1.80
-1.95
-2.01
-1.96
-1.87
-1.80
-1.88
-2.15
-2.56
-3.02
-3.35
-3.43
-3.24
-2.94
-2.75
-2.96
-3.70
-4.86
-6.16
-7.18
-7.62
-7.43
-6.91
-6.60
-7.07
-8.60
-11.01
-13.71
-15.87
-16.90
-16.66
-15.66
-14.87
-15.24
-17.28
-20.75
-24.74
-28.02
-29.77
-29.72
-28.45
-26.97
-26.29
-27.16
-30.08
-35.25
-42.17
-49.18
-53.17
-50.34
-37.74
-15.06
14.49
45.05
70.36
86.37
92.64
92.01
88.48
85.24
83.33
82.09
80.27
77.43
74.21
71.94
71.11
71.24
71.01
68.78
63.14
53.71
41.07
26.64
11.71
-1.73
-12.77
-21.22
-27.50
-32.23
-35.83
-38.26
-39.08
-37.62
-33.31
-26.12
-16.54
-5.37
6.48
17.93
27.50
33.14
32.54
24.24
8.40
-12.43
-33.80
-50.82
-59.97
-60.25
-53.32
-42.32
-30.36
-19.53
-10.64
-3.78
0.73
2.24
-0.06
-6.46
-16.09
-26.96
-36.42
-41.89
-41.63
-35.27
-23.83
-9.42
5.21
17.24
24.49
25.92
21.90
14.24
5.43
-2.15
-7.10
-9.35
-9.75
-9.47
-9.39
-9.78
-10.73
-12.34
-14.86
-18.34
-22.18
-25.03
-25.26
-21.91
-15.26
-6.94
0.81
5.98
7.63
5.97
1.88
-3.38
-8.86
-14.06
-18.67
-22.12
-23.49
-21.89
-17.15
-10.27
-3.20
1.90
3.69
2.37
-0.34
-2.02
-0.56
5.16
14.94
27.69
41.92
56.17
69.18
79.95
87.73
92.13
93.30
91.94
89.23
86.46
84.62
84.23
85.04
86.26
86.84
85.92
83.28
79.55
75.94
73.80
74.08
76.93
81.79
87.72
93.72
98.79
101.67
100.68
93.83
79.33
56.60
26.98
-6.21
-38.48
-65.70
-85.47
-97.84
-104.88
-109.43
-113.78
-118.81
-123.92
-127.72
-128.67
-125.72
-118.54
-107.39
-93.15
-77.20
-61.26
-47.20
-36.53
-30.01
-27.44
-27.84
-29.86
-32.24
-34.17
-35.30
-35.70
-35.64
-35.43
-35.29
-35.30
-35.54
-36.09
-37.08
-38.60
-40.69
-43.14
-45.61
-47.62
-48.81
-49.10
-48.80
-48.43
-48.40
-48.83
-49.31
-49.08
-47.39
-43.84
-38.69
-32.74
-27.04
-22.52
-19.73
-18.75
-19.37
-21.19
-23.77
-26.50
-28.62
-29.25
-27.62
-23.56
-17.67
-11.39
-6.54
-4.67
-6.43
-11.32
-17.86
-24.16
-28.76
-31.02
-31.53
-31.82
-33.88
-39.29
-48.48
-60.07
-70.91
-77.09
-75.34
-64.34
-45.07
-20.12
7.61
36.01
64.01
91.18
116.95
140.28
159.71
173.71
180.93
180.10
170.16
151.01
124.43
94.81
68.52
51.94
48.86
58.81
77.05
96.57
110.76
115.58
110.40
97.58
81.04
64.57
50.94
41.45
36.17
34.31
34.36
34.36
32.20
25.85
13.85
-4.02
-26.16
-48.85
-67.04
-76.13
-73.67
-60.38
-39.79
-16.78
4.35
21.29
33.90
43.22
49.73
52.89
51.84
46.34
36.97
24.74
10.45
-5.84
-24.80
-48.33
-78.13
-114.02
-153.09
-190.88
-222.77
-245.35
-257.45
-260.74
-260.72
-264.39
-276.43
-296.12
-318.27
-335.21
-339.47
-325.80
-292.17
-241.62
-181.17
-119.61
-65.86
-29.17
-17.29
-33.14
-72.30
-113.03
-130.23
-114.28
-78.46
-43.29
-22.52
-19.04
-26.73
-36.05
-41.27
-42.76
-44.57
-49.61
-55.76
-60.17
-58.85
-48.99
-30.16
-4.23
24.21
49.93
69.87
84.88
98.09
113.26
132.99
158.00
186.95
216.50
242.94
264.72
283.05
300.11
317.37
334.03
346.82
351.19
343.06
320.83
286.71
245.33
201.35
158.08
117.56
81.52
52.34
32.72
24.16
26.28
34.89
42.89
43.53
33.69
14.96
-7.97
-30.01
-48.25
-60.52
-68.29
-75.53
-85.28
-96.93
-106.76
-110.44
-105.43
-92.40
-70.28
-42.83
-18.32
-4.20
-1.66
-5.84
-9.75
-7.99
1.08
23.43
58.54
98.63
135.20
165.82
193.41
221.82
253.21
287.89
335.54
399.44
471.99
539.86
592.33
623.04
628.78
609.67
506.60
315.18
90.94
-100.03
-231.89
-312.83
-359.49
-382.95
-387.07
-373.01
-334.18
-272.91
-204.05
-146.76
-112.20
-101.31
-108.87
-128.06
-153.08
-172.15
-182.95
-186.90
-187.30
-183.88
-174.06
-157.39
-137.90
-123.10
-116.54
-122.75
-147.01
-192.10
-253.87
-321.81
-382.72
-424.53
-439.10
-421.46
-373.71
-304.48
-225.19
-144.76
-67.71
4.99
74.07
140.36
204.90
267.45
325.91
377.54
420.77
455.00
479.47
492.96
494.54
484.15
462.92
431.04
389.28
340.36
288.39
237.18
188.86
144.00
101.57
59.08
11.08
-45.73
-107.97
-165.79
-207.86
-226.85
-222.37
-201.57
-175.92
-159.90
-161.82
-179.80
-205.90
-234.18
-264.74
-301.05
-345.00
-366.80
-340.55
-264.97
-162.35
-58.06
30.93
96.46
138.17
160.23
167.19
158.18
132.07
92.84
49.26
11.19
-16.73
-32.12
-36.00
-32.31
-27.83
-26.16
-25.44
-22.31
-15.11
-5.51
2.21
3.28
-7.57
-34.62
-77.52
-121.80
-153.14
-159.88
-136.87
-88.24
-25.97
31.11
65.92
71.23
51.51
17.00
-21.45
-56.05
-84.29
-92.30
-74.52
-37.41
6.53
48.96
86.69
115.51
137.56
152.40
159.32
154.22
134.59
103.93
67.87
30.34
-7.58
-46.88
-90.48
-127.37
-150.00
-157.96
-156.57
-150.55
-141.60
-129.85
-115.14
-98.82
-82.41
-70.04
-64.81
-66.74
-73.60
-82.57
-91.15
-95.96
-93.05
-78.31
-51.83
-17.28
19.38
51.75
74.90
87.02
90.04
87.94
84.75
81.46
77.07
70.54
62.14
53.52
46.71
43.06
42.43
43.45
43.83
41.62
36.39
29.22
21.91
16.09
12.56
11.06
10.53
9.50
6.88
2.44
-3.22
-9.05
-14.09
-17.87
-20.53
-22.67
-25.02
-28.05
-31.89
-36.17
-40.43
-44.10
-46.78
-48.33
-48.81
-48.48
-47.27
-45.25
-42.28
-38.35
-33.36
-27.37
-20.52
-13.00
-5.00
3.56
12.47
21.72
31.09
40.47
49.72
58.58
66.79
73.18
77.99
81.07
83.26
83.81
82.39
78.90
73.20
65.30
55.31
43.55
30.28
16.03
1.49
-12.54
-25.19
-35.74
-43.61
-48.43
-50.01
-48.59
-44.57
-38.39
-30.77
-22.41
-14.08
-6.43
0.02
4.94
8.05
9.21
8.82
6.96
3.92
-0.19
-5.34
-11.53
-18.63
-26.47
-34.56
-41.71
-47.39
-50.72
-51.10
-48.18
-41.85
-32.17
-19.33
-7.89
1.23
7.61
11.63
13.42
12.82
9.62
3.69
-4.99
-15.86
-24.28
-30.64
-35.28
-39.09
-43.45
-49.77
-58.93
-71.29
-86.06
-101.80
-115.68
-125.03
-128.80
-127.45
-121.61
-110.72
-97.81
-83.03
-65.84
-42.94
-12.09
26.03
68.06
109.99
148.92
183.30
213.53
240.52
269.51
304.34
345.12
388.60
430.33
466.89
496.26
518.17
504.09
440.64
334.50
208.51
86.42
-18.30
-102.29
-167.87
-218.51
-257.70
-283.81
-296.27
-297.72
-293.23
-288.32
-285.60
-286.70
-290.96
-296.57
-298.01
-291.50
-276.93
-256.97
-235.63
-215.90
-199.05
-184.30
-169.58
-149.98
-120.90
-84.74
-44.30
-2.88
36.53
71.33
99.51
119.86
133.67
143.55
152.38
162.76
175.04
187.05
194.91
194.99
185.71
168.91
148.77
129.94
116.37
109.70
109.33
113.08
117.95
120.82
119.07
111.33
98.00
81.51
65.32
52.50
44.76
42.05
42.93
45.58
48.73
51.82
54.85
57.48
58.71
57.10
51.62
42.30
30.53
18.44
8.03
0.33
-4.91
-8.84
-12.70
-17.10
-21.86
-26.25
-29.65
-32.05
-34.19
-37.14
-41.81
-48.38
-56.22
-64.11
-70.65
-74.84
-76.30
-75.32
-72.60
-68.88
-64.66
-60.12
-55.22
-49.78
-43.79
-37.43
-31.15
-25.52
-21.09
-18.28
-17.29
-18.06
-20.24
-23.22
-26.06
-27.77
-27.54
-25.15
-21.07
-16.30
-11.95
-8.72
-6.71
-5.43
-4.28
-2.88
-1.34
-0.08
0.53
0.40
-0.21
-0.82
-1.04
-0.78
-0.25
0.19
0.10
-0.71
-2.20
-4.10
-6.03
-7.67
-8.89
-9.78
-10.55
-11.42
-12.48
-13.71
-14.96
-16.10
-16.99
-17.55
-17.75
-17.59
-17.14
-16.45
-15.57
-14.53
-13.33
-12.03
-10.67
-9.28
-7.84
-6.21
-4.22
-1.79
1.00
3.87
6.46
8.54
10.11
11.33
12.43
13.59
14.89
16.31
17.78
19.19
20.38
21.16
21.41
21.12
20.45
19.68
19.07
18.70
18.43
17.98
17.06
15.56
13.56
11.28
8.93
6.66
4.54
2.56
0.75
-0.81
-2.03
-2.78
-2.96
-2.58
-1.72
-0.59
0.49
1.26
1.51
1.29
0.91
0.88
1.71
3.69
6.73
10.34
13.86
16.61
18.11
18.13
16.71
14.03
10.42
6.29
2.14
-1.58
-4.47
-6.34
-7.26
-7.43
-7.13
-6.59
-5.95
-5.31
-4.83
-4.71
-5.11
-6.04
-7.32
-8.56
-9.31
-9.20
-8.08
-6.13
-3.72
-1.32
0.66
1.90
2.28
1.84
0.79
-0.56
-1.86
-2.80
-3.20
-3.07
-2.53
-1.82
-1.21
-0.87
-0.90
-1.30
-2.00
-2.95
-4.09
-5.32
-6.50
-7.45
-7.98
-7.97
-7.45
-6.59
-5.66
-4.88
-4.37
-4.11
-4.03
-4.10
-4.33
-4.74
-5.28
-5.81
-6.06
-5.78
-4.89
-3.51
-1.94
-0.55
0.39
0.78
0.65
0.08
-0.94
-2.42
-4.29
-6.27
-7.89
-8.56
-7.92
-5.98
-3.17
-0.19
2.34
4.11
5.12
5.63
5.88
6.02
6.03
5.79
5.24
4.40
3.38
2.32
1.33
0.45
-0.39
-1.26
-2.20
-3.17
-4.06
-4.72
-5.08
-5.19
-5.20
-5.29
-5.55
-5.96
-6.43
-6.80
-7.00
-6.97
-6.67
-6.11
-5.26
-4.13
-2.76
-1.27
0.17
1.48
2.65
3.72
4.78
5.91
7.08
8.30
9.51
10.72
12.06
13.67
15.58
17.64
19.56
21.00
21.86
22.21
22.34
22.73
23.77
25.52
27.74
30.01
31.93
33.48
34.92
36.55
38.81
41.92
45.76
50.03
54.48
58.92
63.16
66.42
67.36
64.91
58.84
50.12
40.55
31.79
23.59
15.15
5.48
-7.37
-24.23
-43.96
-64.16
-82.30
-96.73
-107.04
-113.58
-117.10
-118.28
-117.41
-114.73
-110.78
-106.42
-102.63
-99.95
-97.98
-95.43
-90.61
-81.98
-69.00
-52.55
-34.71
-17.97
-4.16
6.16
13.68
19.74
25.63
31.93
38.43
44.48
49.42
52.94
55.02
55.66
54.74
52.13
47.91
42.59
37.13
32.70
30.25
30.17
32.15
35.35
38.74
41.48
43.12
43.64
43.22
42.01
39.82
36.14
30.24
21.56
10.07
-3.61
-18.21
-32.18
-44.23
-53.75
-61.04
-67.09
-73.05
-79.61
-86.49
-92.46
-95.81
-94.81
-88.26
-75.75
-57.70
-35.46
-11.04
13.25
35.37
54.23
69.90
83.28
95.27
105.95
114.51
119.69
120.71
117.81
112.04
104.72
96.71
88.22
79.09
69.01
57.64
44.40
28.42
8.89
-14.21
-39.61
-64.96
-87.61
-105.76
-119.01
-128.11
-134.10
-137.48
-138.07
-135.46
-129.68
-121.62
-112.83
-104.76
-98.19
-93.06
-88.89
-85.24
-81.97
-79.03
-76.03
-72.21
-66.56
-58.37
-47.64
-35.01
-21.51
-8.07
4.64
16.05
25.52
32.16
35.19
34.42
30.57
25.14
19.72
15.23
11.51
7.43
1.54
-7.11
-18.33
-30.68
-42.08
-50.54
-55.16
-56.53
-56.59
-57.90
-62.73
-72.18
-85.72
-101.28
-115.86
-126.57
-131.71
-131.45
-127.65
-122.91
-119.24
-117.07
-115.10
-110.96
-102.07
-86.31
-62.16
-28.41
15.42
68.35
126.94
185.13
235.56
271.90
291.01
293.82
284.45
268.12
249.52
232.09
218.29
210.22
209.56
216.44
228.37
240.20
245.46
239.01
219.12
188.09
151.24
114.95
83.92
59.99
42.59
29.76
20.32
14.18
11.82
13.40
18.42
25.02
30.86
34.41
35.27
34.95
35.39
37.27
39.56
40.31
36.98
27.98
13.50
-4.95
-24.03
-40.10
-50.39
-57.73
-63.70
-69.06
-73.50
-72.55
-67.01
-58.52
-48.18
-38.10
-28.65
-18.95
-8.46
2.47
12.44
18.79
19.68
14.39
3.58
-10.48
-24.35
-35.00
-40.77
-41.81
-40.50
-40.08
-44.36
-56.85
-79.20
-109.86
-144.07
-174.73
-194.76
-199.95
-190.18
-169.74
-145.72
-125.07
-112.11
-107.53
-108.84
-112.02
-113.49
-111.15
-104.89
-95.98
-85.86
-75.06
-62.79
-47.48
-28.20
-5.89
16.47
35.12
47.34
53.09
54.95
56.74
61.33
69.12
78.06
84.91
87.21
84.53
78.51
71.82
66.67
63.85
62.69
61.70
59.53
55.70
50.68
45.48
41.07
37.86
35.68
34.01
32.35
30.48
28.38
26.15
23.65
20.43
15.99
10.33
4.26
-0.83
-3.47
-2.93
0.59
5.76
10.64
13.45
13.35
10.57
6.16
1.35
-2.78
-5.11
-4.99
-2.40
2.02
7.10
11.62
14.86
16.74
18.07
20.47
25.23
32.38
40.57
47.46
50.47
47.69
37.66
18.06
-10.79
-45.14
-78.96
-106.75
-126.17
-137.76
-143.20
-144.28
-142.07
-136.47
-127.61
-116.81
-106.24
-98.85
-98.58
-106.15
-120.70
-139.29
-156.73
-166.89
-164.59
-146.77
-114.26
-71.65
-25.30
18.68
57.00
90.41
123.06
155.40
188.06
219.65
246.46
263.49
265.91
251.30
221.17
180.76
137.50
99.23
70.78
52.83
42.59
35.53
27.88
18.18
7.14
-3.54
-11.99
-17.56
-20.47
-21.05
-19.25
-14.80
-7.69
1.07
9.58
16.19
20.04
21.73
22.86
24.99
28.58
32.49
34.37
31.94
24.40
12.75
-0.46
-12.15
-19.90
-22.72
-21.18
-17.02
-12.39
-9.12
-8.45
-10.92
-16.41
-24.24
-33.25
-41.77
-48.01
-50.40
-48.17
-41.91
-33.38
-25.09
-19.24
-16.95
-18.00
-21.16
-24.93
-28.42
-31.54
-34.70
-38.32
-42.24
-45.71
-47.69
-47.47
-45.08
-41.26
-37.14
-33.59
-30.89
-28.76
-26.72
-24.44
-22.01
-19.70
-17.78
-16.22
-14.77
-13.17
-11.44
-10.01
-9.58
-10.80
-14.01
-19.16
-25.73
-32.93
-39.94
-46.15
-51.36
-55.77
-59.86
-64.10
-68.58
-72.84
-76.11
-77.72
-77.63
-76.79
-76.89
-79.79
-86.73
-97.77
-111.68
-126.01
-137.48
-142.32
-136.81
-118.18
-85.75
-41.79
8.44
57.83
99.48
128.75
144.38
148.32
144.26
136.02
126.36
116.69
107.67
99.74
93.49
89.43
87.58
87.33
87.41
86.52
83.80
79.20
73.51
67.95
63.60
60.73
58.58
55.62
50.29
41.95
31.43
20.93
13.23
10.49
13.30
20.42
29.33
37.28
42.31
43.75
42.17
38.71
34.54
30.43
26.72
23.50
20.74
18.42
16.49
14.93
13.68
12.71
12.00
11.54
11.27
11.12
11.05
11.08
11.38
12.22
13.87
16.49
20.05
24.17
28.18
31.24
32.49
31.43
28.04
22.90
17.00
11.34
6.61
2.94
-0.05
-2.99
-6.39
-10.39
-14.67
-18.64
-21.67
-23.32
-23.46
-22.31
-20.40
-18.38
-16.88
-16.30
-16.70
-17.83
-19.25
-20.59
-21.68
-22.49
-23.09
-23.44
-23.39
-22.76
-21.55
-20.02
-18.60
-17.58
-16.83
-15.82
-13.89
-10.72
-6.57
-2.21
1.55
4.34
6.45
8.59
11.50
15.60
20.83
26.77
32.88
38.59
43.43
47.04
49.23
50.01
49.48
47.73
44.65
39.98
33.38
24.81
14.62
3.57
-7.45
-17.68
-26.64
-34.13
-40.17
-44.95
-48.97
-53.06
-58.15
-64.79
-72.73
-80.91
-87.72
-91.76
-92.43
-90.21
-86.43
-82.72
-80.24
-79.23
-78.98
-78.03
-74.65
-67.28
-54.95
-37.65
-16.41
6.80
29.50
49.47
65.41
77.29
86.09
93.12
99.20
104.27
107.41
107.51
103.93
96.91
87.45
76.84
66.26
56.39
47.40
39.06
30.96
22.76
14.43
6.21
-1.34
-7.59
-11.98
-14.16
-14.12
-12.12
-8.67
-4.52
-0.63
2.06
2.75
1.05
-2.84
-8.25
-14.21
-19.77
-24.29
-27.43
-29.17
-29.69
-29.31
-28.44
-27.56
-27.20
-27.90
-30.11
-34.09
-39.72
-46.56
-54.07
-61.74
-69.15
-75.88
-81.53
-85.59
-87.57
-87.16
-84.31
-79.26
-72.38
-64.17
-55.14
-45.76
-36.33
-26.97
-17.61
-8.19
1.24
10.42
18.99
26.70
33.61
40.06
46.40
52.87
59.41
65.85
72.02
77.76
82.84
86.87
89.33
89.74
88.02
84.58
80.20
75.72
71.69
68.27
65.26
62.38
59.44
56.41
53.29
50.04
46.55
42.77
38.72
34.50
30.10
25.24
19.35
11.80
2.40
-8.29
-18.89
-27.47
-32.23
-32.06
-26.87
-17.47
-5.30
8.07
21.24
33.05
42.66
49.47
53.20
54.00
52.52
49.80
46.99
44.71
42.67
39.57
33.57
23.25
8.53
-9.00
-26.39
-40.52
-49.18
-51.76
-49.07
-42.61
-33.85
-23.89
-13.77
-4.77
1.43
3.15
-0.66
-9.84
-23.00
-38.06
-52.99
-66.58
-78.61
-89.60
-100.33
-111.21
-122.11
-132.34
-140.99
-147.27
-150.67
-151.18
-149.08
-145.01
-139.85
-134.66
-130.35
-127.15
-124.14
-119.14
-109.44
-92.98
-69.50
-41.07
-11.51
14.95
35.19
47.97
53.91
54.61
51.83
46.99
41.28
36.06
33.06
34.11
40.47
52.14
67.69
84.52
99.68
110.76
116.51
116.94
113.01
106.05
97.30
87.76
78.21
69.31
61.63
55.49
50.86
47.38
44.41
41.42
38.09
34.44
30.80
27.71
25.65
24.98
25.67
27.17
28.56
28.77
27.05
23.30
18.25
13.10
9.02
6.69
6.07
6.50
7.01
6.81
5.51
3.15
0.07
-3.30
-6.60
-9.54
-11.91
-13.55
-14.42
-14.61
-14.54
-14.78
-15.96
-18.49
-22.23
-26.51
-30.33
-32.72
-33.29
-32.39
-31.08
-30.70
-32.38
-36.65
-43.28
-51.40
-59.94
-67.99
-75.01
-80.60
-84.20
-84.85
-81.29
-72.64
-58.87
-41.13
-21.41
-1.96
15.31
29.08
38.59
43.40
43.45
39.21
31.87
23.32
15.69
10.62
8.69
9.29
11.00
12.17
11.71
9.22
5.02
-0.13
-5.55
-10.97
-16.69
-23.19
-30.79
-39.09
-46.88
-52.38
-53.61
-49.19
-38.62
-22.60
-2.86
18.24
38.20
54.75
66.09
71.08
69.29
61.18
48.15
32.40
16.39
2.26
-8.77
-16.53
-21.68
-25.20
-27.69
-29.26
-29.52
-27.90
-23.90
-17.20
-7.77
4.12
17.74
31.93
45.19
56.11
63.75
67.81
68.57
66.54
62.25
56.04
48.30
39.45
30.09
20.77
11.76
2.96
-6.07
-15.70
-25.92
-36.08
-45.03
-51.50
-54.64
-54.23
-50.81
-45.32
-38.76
-31.86
-25.01
-18.38
-12.02
-6.09
-0.81
3.71
7.48
10.73
13.77
16.87
20.12
23.41
26.41
28.75
30.11
30.40
29.77
28.55
27.16
25.85
24.67
23.48
22.06
20.32
18.29
16.07
13.68
11.04
7.99
4.40
0.37
-3.83
-7.86
-11.40
-14.21
-16.12
-16.93
-16.54
-15.04
-12.90
-10.84
-9.53
-9.22
-9.58
-9.90
-9.51
-8.18
-6.25
-4.40
-3.18
-2.64
-2.37
-1.78
-0.60
0.94
2.16
2.42
1.43
-0.51
-2.68
-4.36
-5.20
-5.43
-5.77
-7.05
-9.78
-13.89
-18.72
-23.20
-26.39
-27.79
-27.64
-26.76
-26.12
-26.38
-27.48
-28.76
-29.25
-28.31
-25.96
-22.96
-20.44
-19.42
-20.39
-23.20
-27.21
-31.56
-35.48
-38.25
-39.25
-37.93
-33.99
-27.53
-19.24
-10.23
-1.74
5.30
10.68
14.96
19.05
23.74
29.07
34.29
38.07
39.21
37.11
32.12
25.27
17.85
10.95
5.21
0.88
-2.03
-3.55
-3.74
-2.74
-0.82
1.73
4.67
7.90
11.39
14.98
18.27
20.61
21.37
20.13
17.00
12.57
7.74
3.42
0.19
-1.79
-2.77
-3.19
-3.41
-3.62
-3.77
-3.73
-3.42
-2.87
-2.17
-1.46
-0.80
-0.14
0.62
1.58
2.90
4.77
7.49
11.36
16.56
22.98
30.16
37.36
43.78
48.82
52.19
53.88
53.99
52.58
49.63
45.22
39.73
34.00
29.12
25.99
24.79
24.77
24.43
22.20
17.17
9.50
0.36
-8.69
-16.34
-21.94
-25.49
-27.33
-27.84
-27.49
-26.96
-27.11
-28.64
-31.53
-34.76
-36.58
-35.34
-30.44
-22.85
-14.68
-8.22
-4.94
-5.01
-7.60
-11.64
-16.42
-21.56
-26.68
-30.94
-33.03
-31.86
-27.36
-20.88
-14.96
-12.09
-13.31
-17.29
-20.64
-19.34
-11.04
3.49
20.22
33.45
38.31
32.87
19.06
1.60
-13.71
-22.24
-22.06
-14.38
-3.27
5.18
4.07
-12.52
-47.31
-97.83
-155.85
-208.90
-243.95
-251.88
-230.77
-186.28
-129.04
-70.42
-18.69
22.60
53.70
76.26
91.20
98.29
97.14
88.78
76.23
63.69
54.63
50.28
49.32
48.67
45.55
38.96
30.15
21.79
16.54
15.67
18.78
24.16
29.91
34.92
39.13
43.19
47.67
52.40
56.26
57.63
55.17
48.61
39.03
28.50
19.24
12.67
8.85
6.68
4.63
1.63
-2.41
-6.65
-9.78
-10.75
-9.17
-5.34
-0.04
5.91
11.79
17.15
21.76
25.49
28.32
30.31
31.65
32.60
33.49
34.63
36.08
37.57
38.37
37.49
34.11
28.00
19.71
10.40
1.50
-5.81
-10.96
-14.07
-15.70
-16.52
-17.01
-17.38
-17.61
-17.64
-17.42
-17.00
-16.43
-15.70
-14.78
-13.62
-12.34
-11.11
-10.12
-9.43
-8.93
-8.39
-7.56
-6.35
-4.82
-3.18
-1.64
-0.39
0.42
0.69
0.37
-0.47
-1.58
-2.57
-3.14
-3.13
-2.71
-2.27
-2.16
-2.56
-3.35
-4.20
-4.75
-4.82
-4.41
-3.71
-2.91
-2.12
-1.38
-0.72
-0.16
0.27
0.55
0.73
0.88
1.12
1.53
2.05
2.58
2.97
3.14
3.09
2.92
2.73
2.60
2.52
2.44
2.35
2.27
2.28
2.47
2.84
3.28
3.55
3.46
2.89
1.95
0.90
0.01
-0.54
-0.75
-0.80
-0.88
-1.13
-1.57
-2.11
-2.68
-3.22
-3.74
-4.23
-4.62
-4.81
-4.65
-4.08
-3.13
-1.95
-0.69
0.46
1.40
2.07
2.45
2.57
2.48
2.28
2.06
1.93
1.93
2.05
2.19
2.22
2.05
1.67
1.20
0.83
0.73
0.99
1.54
2.21
2.77
3.06
3.02
2.71
2.21
1.65
1.10
0.57
0.08
-0.38
-0.78
-1.12
-1.39
-1.63
-1.88
-2.17
-2.49
-2.77
-2.91
-2.85
-2.57
-2.15
-1.70
-1.31
-1.05
-0.91
-0.86
-0.89
-0.91
-0.88
-0.69
-0.28
0.38
1.24
2.14
2.91
3.37
3.44
3.11
2.49
1.79
1.24
1.05
1.32
2.00
2.92
3.84
4.50
4.77
4.62
4.14
3.48
2.79
2.14
1.51
0.87
0.16
-0.62
-1.40
-2.06
-2.50
-2.62
-2.43
-2.04
-1.62
-1.38
-1.48
-1.99
-2.85
-3.88
-4.78
-5.31
-5.36
-4.92
-4.14
-3.18
-2.19
-1.25
-0.43
0.23
0.68
0.89
0.92
0.86
0.84
0.96
1.23
1.58
1.89
2.10
2.15
2.09
1.93
1.73
1.52
1.36
1.32
1.49
1.90
2.44
2.94
3.19
3.04
2.47
1.59
0.57
-0.43
-1.25
-1.82
-2.10
-2.12
-1.91
-1.56
-1.18
-0.82
-0.54
-0.35
-0.28
-0.34
-0.52
-0.82
-1.18
-1.60
-2.07
-2.57
-3.04
-3.36
-3.39
-3.02
-2.29
-1.31
-0.28
0.62
1.30
1.79
2.12
2.36
2.55
2.64
2.63
2.50
2.26
1.96
1.65
1.40
1.27
1.32
1.53
1.90
2.33
2.70
2.89
2.81
2.42
1.81
1.08
0.37
-0.21
-0.61
-0.81
-0.82
-0.67
-0.46
-0.32
-0.36
-0.63
-1.08
-1.59
-2.02
-2.32
-2.52
-2.68
-2.87
-3.07
-3.18
-3.14
-2.93
-2.65
-2.38
-2.18
-1.98
-1.66
-1.10
-0.27
0.71
1.62
2.27
2.55
2.54
2.38
2.19
2.00
1.77
1.47
1.10
0.78
0.62
0.69
0.96
1.33
1.68
1.92
2.02
1.99
1.85
1.58
1.14
0.53
-0.23
-1.06
-1.79
-2.27
-2.41
-2.18
-1.72
-1.24
-0.96
-1.02
-1.40
-2.00
-2.63
-3.16
-3.51
-3.70
-3.76
-3.75
-3.69
-3.56
-3.37
-3.10
-2.79
-2.46
-2.09
-1.68
-1.19
-0.66
-0.13
0.29
0.56
0.65
0.61
0.54
0.53
0.61
0.78
1.03
1.32
1.63
1.94
2.18
2.29
2.20
1.89
1.41
0.91
0.47
0.21
0.12
0.12
0.11
-0.04
-0.34
-0.73
-1.06
-1.24
-1.25
-1.14
-1.02
-0.99
-1.10
-1.34
-1.68
-2.06
-2.44
-2.79
-3.09
-3.30
-3.39
-3.29
-3.00
-2.49
-1.78
-0.94
-0.10
0.57
0.96
1.04
0.87
0.60
0.38
0.29
0.33
0.45
0.58
0.68
0.75
0.85
1.01
1.21
1.39
1.45
1.36
1.18
1.00
0.85
0.71
0.50
0.16
-0.28
-0.65
-0.75
-0.47
0.14
0.85
1.41
1.64
1.53
1.17
0.60
-0.12
-0.94
-1.74
-2.27
-2.32
-1.86
-1.15
-0.60
-0.60
-1.24
-2.32
-3.45
-4.27
-4.64
-4.63
-4.39
-4.03
-3.55
-2.91
-2.20
-1.58
-1.24
-1.26
-1.53
-1.80
-1.83
-1.55
-1.01
-0.38
0.23
0.76
1.22
1.60
1.86
1.91
1.77
1.54
1.40
1.52
1.95
2.52
2.93
2.91
2.35
1.36
0.25
-0.64
-1.09
-1.11
-0.88
-0.63
-0.52
-0.63
-0.93
-1.42
-2.08
-2.89
-3.78
-4.58
-5.09
-5.18
-4.90
-4.46
-4.15
-4.21
-4.77
-5.75
-6.98
-8.23
-9.33
-10.14
-10.61
-10.74
-10.61
-10.32
-10.04
-9.94
-10.13
-10.63
-11.28
-11.82
-11.88
-11.13
-9.44
-6.90
-3.83
-0.74
1.92
3.84
4.96
5.46
5.66
5.84
6.18
6.68
7.19
7.57
7.72
7.68
7.60
7.69
8.03
8.64
9.45
10.42
11.57
13.01
14.76
16.73
18.66
20.20
21.06
21.15
20.57
19.58
18.39
17.10
15.75
14.29
12.68
10.82
8.53
5.65
2.13
-1.73
-5.23
-7.41
-7.56
-5.50
-1.76
2.57
6.40
9.01
10.32
10.68
10.55
10.15
9.36
7.96
5.77
2.92
-0.23
-3.33
-6.19
-8.81
-11.24
-13.36
-14.81
-15.15
-13.97
-11.11
-6.71
-1.14
5.05
11.20
16.49
20.05
21.06
19.08
14.21
7.24
-0.64
-8.21
-14.62
-19.58
-23.24
-25.94
-27.93
-29.32
-30.14
-30.47
-30.52
-30.46
-30.21
-29.38
-27.34
-23.60
-18.07
-11.15
-3.58
3.81
10.37
15.76
19.88
22.82
24.74
25.80
26.18
26.01
25.40
24.46
23.25
21.83
20.24
18.47
16.53
14.41
12.23
10.14
8.38
7.09
6.43
6.48
7.38
9.24
11.98
15.21
18.20
20.05
19.97
17.60
13.14
7.24
0.73
-5.67
-11.50
-16.62
-20.98
-24.61
-27.51
-29.80
-31.73
-33.58
-35.53
-37.51
-39.21
-40.22
-40.19
-38.91
-36.23
-32.06
-26.38
-19.35
-11.48
-3.60
3.36
8.68
12.17
14.18
15.34
16.23
17.10
17.85
18.22
17.91
16.79
14.87
12.29
9.31
6.28
3.62
1.77
0.96
1.15
1.92
2.62
2.68
1.83
0.25
-1.48
-2.74
-3.10
-2.51
-1.33
-0.14
0.46
0.10
-1.27
-3.30
-5.26
-6.22
-5.23
-1.64
4.56
12.55
20.75
27.15
29.99
28.37
22.63
14.26
5.35
-2.12
-6.86
-8.50
-7.60
-5.21
-2.54
-0.55
0.18
-0.47
-2.26
-4.73
-7.35
-9.67
-11.50
-12.86
-13.95
-14.95
-15.93
-16.74
-17.07
-16.57
-15.00
-12.31
-8.72
-4.57
-0.30
3.76
7.40
10.49
13.02
15.00
16.59
18.04
19.65
21.54
23.63
25.53
26.71
26.68
25.05
21.58
16.16
8.89
0.34
-8.39
-15.74
-20.18
-20.84
-17.91
-12.57
-6.54
-1.39
1.94
3.26
2.77
0.68
-2.91
-7.96
-14.20
-21.07
-27.79
-33.58
-37.91
-40.60
-41.87
-42.25
-42.53
-43.54
-45.94
-50.03
-55.66
-62.30
-69.08
-74.88
-78.39
-78.11
-72.63
-61.00
-43.14
-20.14
5.76
31.70
54.91
73.35
85.99
92.88
94.76
92.74
87.92
81.30
73.74
65.99
58.73
52.41
47.23
43.03
39.34
35.66
31.64
27.36
23.24
19.86
17.66
16.72
16.77
17.45
18.50
19.92
21.84
24.31
27.06
29.56
31.13
31.25
29.71
26.59
22.10
16.47
9.90
2.74
-4.38
-10.52
-14.72
-16.30
-15.20
-12.00
-7.62
-2.91
1.75
6.41
11.42
17.03
23.18
29.56
35.70
41.19
45.58
48.30
48.61
45.84
39.72
30.73
20.07
9.29
-0.32
-8.23
-14.74
-20.65
-26.76
-33.46
-40.61
-47.74
-54.40
-60.28
-65.32
-69.53
-72.89
-75.25
-76.44
-76.33
-74.98
-72.70
-69.98
-67.34
-65.10
-63.22
-61.35
-59.03
-55.87
-51.86
-47.40
-43.14
-39.86
-38.11
-38.08
-39.52
-41.85
-44.31
-46.21
-47.14
-47.00
-46.01
-44.50
-42.64
-40.32
-37.19
-32.88
-27.18
-20.13
-11.93
-2.91
6.61
16.22
25.35
33.38
39.73
44.17
46.87
48.39
49.37
50.25
51.18
52.06
52.84
53.63
54.80
56.67
59.32
62.34
64.93
66.22
65.55
62.86
58.63
53.75
49.11
45.35
42.64
40.80
39.34
37.69
35.25
31.38
25.56
17.53
7.51
-3.68
-14.76
-24.35
-31.40
-35.51
-37.04
-36.81
-35.72
-34.34
-32.69
-30.38
-26.83
-21.55
-14.40
-5.66
3.98
13.59
22.15
28.89
33.48
36.20
37.90
39.73
42.76
47.62
54.12
61.25
67.42
70.91
70.45
65.67
57.35
47.26
37.61
30.41
26.93
27.35
30.85
35.88
40.69
43.81
44.41
42.53
38.91
34.59
30.23
25.54
19.07
8.60
-7.94
-31.51
-61.26
-94.54
-127.56
-156.51
-178.47
-192.04
-197.41
-195.97
-189.77
-180.90
-171.06
-161.23
-151.67
-141.93
-131.24
-119.07
-105.66
-91.91
-78.99
-67.45
-56.72
-45.24
-31.29
-14.16
5.21
24.46
40.90
52.66
59.41
62.11
62.30
61.31
60.18
59.84
61.31
65.52
72.73
81.96
91.15
97.93
100.63
98.93
93.84
87.03
79.98
73.53
67.91
63.11
59.15
56.10
53.93
52.25
50.38
47.56
43.30
37.59
31.05
24.66
19.45
16.06
14.48
14.03
13.70
12.56
10.12
6.48
2.08
-2.67
-7.59
-12.68
-17.83
-22.63
-26.23
-27.71
-26.47
-22.56
-16.78
-10.37
-4.55
-0.19
2.40
3.45
3.48
3.06
2.65
2.44
2.44
2.55
2.70
3.06
4.10
6.42
10.55
16.68
24.58
33.77
43.70
53.74
62.92
69.77
72.32
68.67
57.82
40.33
18.39
-4.98
-27.03
-46.10
-61.83
-74.66
-85.12
-93.38
-99.42
-103.45
-106.04
-108.01
-109.78
-111.08
-110.98
-108.42
-102.86
-94.56
-84.47
-73.66
-62.88
-52.36
-41.98
-31.60
-21.40
-11.96
-4.09
1.45
4.30
4.72
3.53
1.90
1.04
1.83
4.63
9.34
15.55
22.71
30.19
37.33
43.52
48.33
51.66
53.82
55.32
56.55
57.60
58.13
57.73
56.17
53.59
50.38
47.01
43.72
40.63
37.76
35.21
33.16
31.68
30.63
29.62
28.22
26.19
23.66
21.09
19.00
17.72
17.10
16.50
15.00
11.80
6.53
-0.48
-8.32
-15.84
-22.08
-26.55
-29.27
-30.62
-31.08
-31.08
-30.92
-30.86
-31.17
-32.12
-33.81
-36.11
-38.58
-40.63
-41.72
-41.51
-39.94
-37.28
-34.00
-30.60
-27.50
-24.84
-22.51
-20.23
-17.72
-14.80
-11.51
-8.05
-4.70
-1.68
0.84
2.85
4.39
5.55
6.40
7.10
7.83
8.77
10.03
11.58
13.21
14.60
15.47
15.62
15.06
13.94
12.50
10.91
9.28
7.64
5.97
4.27
2.64
1.18
-0.00
-0.87
-1.45
-1.84
-2.10
-2.25
-2.23
-1.91
-1.25
-0.36
0.54
1.18
1.39
1.19
0.72
0.11
-0.62
-1.56
-2.83
-4.43
-6.18
-7.83
-9.14
-10.07
-10.71
-11.25
-11.80
-12.43
-13.15
-14.02
-14.97
-15.75
-15.93
-15.00
-12.77
-9.57
-6.21
-3.67
-2.58
-2.93
-4.05
-5.05
-5.15
-4.00
-1.52
2.32
7.69
14.84
23.69
33.46
42.58
49.12
51.51
49.12
42.65
33.77
24.49
16.34
9.99
5.23
1.34
-2.39
-6.34
-10.50
-14.63
-18.51
-22.09
-25.41
-28.49
-31.18
-33.11
-33.88
-33.18
-31.02
-27.69
-23.61
-19.14
-14.41
-9.42
-4.13
1.36
6.71
11.45
15.13
17.50
18.56
18.59
18.07
17.64
17.91
19.36
22.14
25.98
30.17
33.73
35.76
35.66
33.50
29.94
25.98
22.58
20.23
18.84
17.85
16.65
14.84
12.47
9.84
7.29
4.92
2.57
-0.07
-3.18
-6.70
-10.27
-13.48
-16.01
-17.81
-19.06
-20.11
-21.24
-22.60
-24.17
-25.75
-27.12
-28.04
-28.34
-27.85
-26.40
-23.85
-20.17
-15.45
-9.98
-4.15
1.62
6.97
11.70
15.66
18.79
21.05
22.47
23.15
23.31
23.24
23.14
23.10
23.07
22.94
22.69
22.38
22.14
22.09
22.30
22.76
23.46
24.33
25.28
26.16
26.80
27.05
26.79
26.01
24.77
23.19
21.38
19.45
17.47
15.47
13.36
11.04
8.36
5.34
2.13
-0.90
-3.37
-4.95
-5.53
-5.21
-4.32
-3.31
-2.67
-2.77
-3.69
-5.18
-6.69
-7.62
-7.57
-6.55
-4.96
-3.41
-2.43
-2.18
-2.53
-3.21
-4.05
-5.17
-6.88
-9.42
-12.68
-16.18
-19.18
-21.02
-21.40
-20.43
-18.38
-15.57
-12.17
-8.32
-4.33
-0.81
1.45
1.84
0.31
-2.45
-5.33
-7.42
-8.50
-9.21
-10.68
-13.83
-18.75
-24.55
-29.68
-32.55
-32.18
-28.55
-22.51
-15.60
-9.57
-6.04
-6.19
-10.38
-17.94
-27.05
-35.05
-39.11
-37.19
-28.78
-15.23
0.54
15.00
25.07
29.17
27.50
21.73
14.16
6.82
0.94
-3.20
-5.88
-7.59
-8.65
-9.17
-9.14
-8.52
-7.33
-5.61
-3.36
-0.39
3.56
8.78
15.35
22.98
30.99
38.39
44.17
47.68
48.82
48.05
46.15
43.83
41.40
38.75
35.54
31.51
26.73
21.55
16.49
11.92
7.95
4.46
1.28
-1.62
-4.05
-5.70
-6.39
-6.31
-6.09
-6.47
-7.99
-10.59
-13.77
-16.77
-19.11
-20.71
-21.85
-22.87
-23.77
-24.27
-24.05
-23.33
-23.07
-24.67
-29.32
-37.13
-46.83
-56.07
-62.31
-63.85
-60.41
-53.05
-43.59
-33.75
-24.63
-16.57
-9.46
-3.11
2.47
7.11
10.60
12.92
14.25
14.91
15.26
15.54
15.77
15.81
15.40
14.34
12.62
10.42
8.16
6.24
4.93
4.28
4.14
4.21
4.14
3.68
2.65
1.03
-1.04
-3.21
-5.03
-6.15
-6.39
-5.89
-5.01
-4.12
-3.42
-2.87
-2.21
-1.08
0.90
4.04
8.55
14.38
21.20
28.28
34.61
39.16
41.24
40.78
38.36
34.97
31.66
29.10
27.50
26.61
26.01
25.38
24.64
23.94
23.48
23.27
22.92
21.78
19.19
14.81
8.86
2.01
-4.96
-11.56
-17.72
-23.76
-29.89
-35.96
-41.35
-45.30
-47.35
-47.70
-47.10
-46.33
-45.83
-45.36
-44.23
-41.78
-37.83
-32.69
-26.80
-20.23
-12.58
-3.55
6.60
16.68
25.04
30.36
32.47
32.34
31.49
30.96
30.70
29.77
27.11
22.36
16.10
9.39
2.99
-3.11
-9.60
-17.15
-25.75
-34.48
-41.87
-46.44
-47.40
-44.86
-39.73
-33.30
-26.79
-21.09
-16.66
-13.49
-11.25
-9.49
-7.85
-6.27
-5.01
-4.52
-5.07
-6.61
-8.62
-10.44
-11.53
-11.81
-11.54
-11.13
-10.79
-10.42
-9.58
-7.84
-4.89
-0.66
4.74
11.04
17.82
24.35
29.65
32.65
32.57
29.34
23.72
17.19
11.52
8.26
8.32
11.81
18.19
26.50
35.62
44.49
52.19
57.98
61.39
62.28
60.85
57.55
52.91
47.32
40.87
33.37
24.58
14.46
3.48
-7.38
-16.81
-23.62
-27.17
-27.55
-25.59
-22.51
-19.53
-17.53
-16.87
-17.50
-18.99
-20.75
-22.12
-22.60
-22.00
-20.51
-18.74
-17.41
-17.14
-18.11
-20.08
-22.43
-24.47
-25.62
-25.46
-23.75
-20.35
-15.24
-8.70
-1.26
6.42
13.79
20.65
27.23
33.92
41.07
48.70
56.49
63.93
70.57
76.20
80.70
83.94
85.41
84.26
79.50
70.33
56.60
38.85
18.32
-3.42
-24.81
-44.48
-61.34
-74.62
-83.80
-88.73
-89.67
-87.30
-82.48
-76.14
-68.96
-61.41
-53.68
-45.94
-38.36
-31.12
-24.39
-18.28
-12.80
-7.93
-3.67
-0.04
2.94
5.37
7.47
9.62
12.17
15.34
19.08
22.99
26.46
28.77
29.36
27.99
24.76
20.06
14.39
8.25
2.11
-3.62
-8.53
-12.27
-14.57
-15.39
-14.86
-13.35
-11.33
-9.33
-7.85
-7.31
-8.04
-10.21
-13.73
-18.25
-23.09
-27.51
-30.83
-32.69
-33.05
-32.16
-30.41
-28.12
-25.52
-22.71
-19.74
-16.60
-13.22
-9.41
-4.88
0.68
7.37
14.94
22.83
30.16
36.15
40.13
41.76
40.91
37.58
31.87
24.00
14.40
3.74
-7.07
-16.97
-24.98
-30.40
-33.02
-33.20
-31.74
-29.61
-27.58
-26.02
-24.80
-23.58
-22.05
-20.21
-18.26
-16.48
-14.91
-13.35
-11.38
-8.70
-5.30
-1.45
2.36
5.74
8.46
10.56
12.28
13.96
15.95
18.49
21.67
25.35
29.11
32.30
34.11
33.93
31.58
27.51
22.69
18.25
15.01
13.21
12.49
12.27
12.15
12.09
12.38
13.29
14.74
16.26
17.17
17.00
15.73
13.93
12.35
11.62
11.94
12.99
14.29
15.55
16.87
18.61
21.02
23.80
26.11
26.89
25.37
21.62
16.44
11.01
6.34
2.95
0.87
-0.05
0.06
1.15
3.08
5.45
7.70
9.32
10.06
10.01
9.42
8.42
6.87
4.52
1.14
-3.27
-8.38
-13.75
-18.89
-23.46
-27.23
-30.01
-31.64
-32.03
-31.20
-29.36
-26.81
-23.86
-20.66
-17.17
-13.27
-8.92
-4.31
0.15
3.95
6.59
7.87
7.87
6.93
5.55
4.17
3.01
2.09
1.21
0.09
-1.45
-3.37
-5.39
-7.09
-8.06
-8.04
-6.96
-4.83
-1.74
2.19
6.68
11.24
15.24
18.14
19.69
20.10
19.91
19.76
20.03
20.67
21.28
21.36
20.55
18.78
16.22
13.15
9.80
6.40
3.16
0.25
-2.22
-4.31
-6.22
-8.29
-10.84
-14.10
-18.03
-22.40
-26.81
-30.88
-34.34
-37.09
-39.29
-41.19
-43.08
-45.11
-47.33
-49.54
-51.45
-52.81
-53.57
-53.91
-54.21
-54.78
-55.58
-55.99
-55.03
-51.74
-45.78
-37.74
-29.05
-21.43
-16.25
-14.18
-15.03
-17.89
-21.17
-22.82
-20.64
-13.01
0.32
17.67
35.73
50.65
59.44
61.08
56.74
49.04
40.85
34.43
31.03
30.98
33.98
39.29
45.80
52.23
57.38
60.42
60.97
59.12
55.30
50.16
44.57
39.34
34.99
31.50
28.27
24.41
19.32
13.06
6.36
0.15
-5.09
-9.65
-14.48
-20.64
-28.59
-37.93
-47.44
-55.57
-60.97
-62.93
-61.39
-56.86
-50.13
-42.05
-33.45
-24.97
-17.24
-10.71
-5.73
-2.37
-0.41
0.68
1.56
2.79
4.65
6.95
9.21
10.90
11.68
11.58
10.89
10.03
9.31
8.82
8.44
7.96
7.16
5.94
4.34
2.50
0.64
-1.07
-2.58
-3.96
-5.42
-7.16
-9.25
-11.59
-13.96
-16.11
-17.96
-19.64
-21.48
-23.75
-26.56
-29.72
-32.76
-35.14
-36.40
-36.36
-35.13
-33.10
-30.72
-28.38
-26.11
-23.55
-20.04
-14.87
-7.59
1.83
12.88
24.66
36.05
46.01
53.68
58.53
60.46
59.83
57.45
54.37
51.66
49.94
49.32
49.35
49.37
48.89
47.82
46.43
45.14
44.28
43.94
44.01
44.34
44.84
45.55
46.45
47.41
48.23
48.81
49.30
50.03
51.37
53.36
55.59
57.31
57.72
56.18
52.28
45.82
36.76
25.43
12.69
-0.02
-10.96
-18.69
-22.71
-23.66
-23.16
-23.06
-24.68
-28.44
-33.83
-39.88
-45.63
-50.44
-54.05
-56.33
-57.07
-55.94
-52.59
-46.83
-38.92
-29.54
-19.70
-10.40
-2.52
3.32
6.59
6.77
3.30
-4.25
-15.72
-30.05
-45.12
-58.11
-66.21
-67.54
-61.75
-50.21
-35.54
-20.81
-8.55
-0.15
4.22
5.43
4.76
3.42
2.21
1.41
0.90
0.40
-0.29
-1.21
-2.23
-3.23
-4.24
-5.36
-6.73
-8.25
-9.58
-10.22
-9.79
-8.25
-6.03
-3.80
-2.20
-1.54
-1.67
-2.12
-2.32
-1.83
-0.53
1.35
3.39
5.08
5.97
5.84
4.73
2.98
1.14
-0.23
-0.76
-0.41
0.53
1.59
2.34
2.60
2.52
2.42
2.63
3.27
4.22
5.19
5.87
6.14
5.97
5.43
4.58
3.46
2.17
0.95
0.20
0.24
1.21
2.83
4.56
5.70
5.83
4.86
3.09
0.99
-1.01
-2.61
-3.67
-4.14
-4.05
-3.50
-2.65
-1.76
-1.01
-0.52
-0.19
0.15
0.65
1.31
1.96
2.34
2.20
1.51
0.32
-1.19
-2.87
-4.58
-6.13
-7.24
-7.57
-6.80
-4.92
-2.28
0.43
2.47
3.32
2.89
1.51
-0.28
-1.95
-3.08
-3.48
-3.13
-2.16
-0.84
0.46
1.35
1.62
1.28
0.65
0.17
0.22
0.91
2.09
3.49
4.93
6.39
8.00
9.88
12.01
14.22
16.32
18.28
20.22
22.29
24.47
26.43
27.63
27.51
25.77
22.50
18.14
13.28
8.52
4.38
1.18
-0.88
-1.81
-1.74
-0.97
0.22
1.55
2.76
3.53
3.50
2.38
0.10
-3.01
-6.33
-9.09
-10.69
-10.86
-9.70
-7.59
-5.00
-2.43
-0.34
0.87
0.95
-0.04
-1.68
-3.30
-4.23
-4.14
-3.17
-1.95
-1.25
-1.73
-3.69
-6.93
-10.90
-14.84
-18.10
-20.29
-21.44
-21.87
-21.92
-21.71
-20.92
-18.81
-14.55
-7.62
1.84
12.98
24.52
35.24
44.31
51.57
57.33
62.15
66.47
70.39
73.74
76.25
77.91
79.18
80.98
84.44
90.31
98.52
108.04
117.36
125.07
130.45
133.46
133.94
131.05
122.75
106.36
79.57
41.36
-7.85
-66.79
-133.92
-207.11
-282.53
-353.65
-411.38
-446.42
-452.59
-429.39
-382.24
-319.97
-251.19
-181.67
-114.15
-49.86
9.56
61.27
102.19
130.48
145.99
149.44
141.17
120.99
89.58
50.32
9.63
-24.64
-46.26
-53.09
-47.39
-33.75
-16.30
2.85
23.18
43.89
62.63
75.93
81.13
78.34
70.69
62.70
57.68
56.01
55.09
50.98
40.69
23.75
2.47
-19.19
-37.06
-47.98
-50.37
-44.44
-32.05
-16.05
0.32
14.17
23.50
27.79
26.96
22.46
17.06
13.77
14.40
18.52
25.28
33.01
40.58
47.52
54.03
60.51
65.76
69.04
69.82
67.95
63.52
56.98
48.95
40.23
31.56
23.41
16.22
10.13
5.15
1.03
-2.57
-6.02
-9.64
-13.55
-17.67
-21.51
-24.39
-25.56
-24.58
-21.40
-16.54
-10.96
-5.75
-1.86
0.31
0.89
0.47
-0.34
-1.19
-2.17
-3.78
-6.59
-10.88
-16.36
-22.17
-27.31
-31.07
-33.45
-35.12
-37.16
-40.40
-45.00
-50.26
-54.93
-57.92
-58.70
-57.57
-55.34
-53.00
-51.36
-51.11
-52.93
-57.39
-64.43
-72.63
-78.61
-77.67
-65.64
-41.04
-6.51
31.77
66.50
91.80
105.19
107.98
103.98
97.39
91.16
86.43
83.21
81.51
81.35
82.51
84.36
86.04
86.76
86.15
84.68
83.96
86.58
94.30
106.48
119.56
127.85
125.39
108.02
75.07
28.12
-25.32
-74.52
-110.25
-129.11
-133.63
-129.02
-119.69
-107.98
-94.65
-79.82
-64.41
-50.15
-38.68
-30.67
-25.43
-21.39
-16.98
-11.23
-3.79
4.72
13.06
20.06
25.25
29.16
32.70
36.80
41.92
48.05
54.59
60.03
63.82
65.78
66.40
66.24
65.99
66.16
67.10
68.85
71.22
74.17
77.74
82.26
87.67
93.97
101.11
108.94
117.25
125.81
134.50
143.35
152.56
161.74
170.71
179.29
187.20
194.04
199.20
201.70
199.91
196.47
191.91
186.45
180.09
172.81
164.51
155.17
144.83
133.64
121.97
109.62
96.72
83.56
70.47
57.80
45.89
34.98
25.26
16.89
9.47
2.75
-3.38
-8.92
-13.77
-17.70
-20.42
-21.64
-21.12
-19.07
-15.70
-11.35
-6.45
-1.47
3.08
6.78
9.33
10.57
10.33
8.64
5.64
1.58
-3.25
-8.55
-14.05
-19.48
-24.57
-29.21
-33.28
-36.71
-39.47
-41.55
-42.98
-43.82
-44.13
-43.97
-43.42
-42.52
-41.30
-39.79
-38.00
-35.95
-33.65
-31.16
-28.55
-25.90
-23.32
-20.92
-18.75
-16.89
-15.36
-14.17
-13.32
-12.79
-12.57
-12.65
-12.99
-13.57
-14.35
-15.30
-16.40
-17.65
-19.09
-20.73
-22.63
-24.79
-27.16
-29.69
-32.27
-34.82
-37.28
-39.64
-41.94
-44.26
-46.69
-49.26
-52.02
-54.93
-57.98
-61.19
-64.66
-68.55
-73.03
-78.27
-84.32
-91.14
-98.56
-106.38
-114.42
-122.53
-130.68
-138.86
-147.14
-155.55
-164.16
-172.98
-181.93
-190.94
-199.89
-208.89
-218.42
-229.58
-243.86
-262.59
-286.12
-313.23
-340.91
-365.02
-381.49
-387.55
-382.62
-368.31
-347.82
-324.67
-301.66
-280.08
-259.66
-239.21
-217.52
-194.22
-170.18
-147.07
-126.38
-108.57
-92.60
-76.20
-57.04
-33.66
-6.03
24.39
54.68
80.82
98.19
103.04
94.43
75.71
54.64
41.45
45.46
71.45
117.38
174.69
230.90
273.26
292.40
284.23
250.03
194.85
125.22
46.66
-37.73
-127.04
-220.92
-317.07
-409.71
-490.22
-550.01
-583.94
-592.40
-580.89
-557.01
-526.99
-493.56
-455.72
-411.22
-359.01
-300.42
-238.63
-176.75
-116.13
-56.15
4.37
65.51
125.27
180.32
227.24
263.94
290.14
306.69
314.61
314.54
306.50
290.87
269.14
243.77
217.45
192.35
169.94
151.05
136.42
126.35
120.72
118.72
118.94
119.57
119.32
117.88
115.88
114.73
114.96
116.54
119.10
122.06
124.63
125.74
124.58
120.31
112.79
100.21
81.91
59.27
35.56
14.20
-2.72
-14.24
-21.54
-26.07
-33.58
-47.76
-67.87
-88.80
-104.69
-112.50
-111.79
-106.84
-102.38
-109.41
-134.48
-175.71
-223.42
-265.85
-295.24
-307.73
-307.24
-299.93
-302.48
-329.13
-385.79
-468.31
-566.35
-668.43
-761.16
-836.75
-828.19
-700.01
-466.78
-187.81
74.30
285.79
426.45
519.31
580.53
618.74
629.51
611.17
571.98
526.74
489.90
467.96
461.10
460.69
459.06
445.74
417.23
378.84
341.80
316.34
305.61
307.65
313.78
316.41
307.25
283.67
250.07
215.94
190.66
178.26
177.02
177.65
169.29
141.92
92.66
28.32
-36.56
-85.29
-106.00
-95.26
-60.12
-13.99
27.50
52.32
55.88
41.87
20.07
2.04
-3.11
7.37
29.36
54.24
72.68
78.83
72.28
57.29
39.85
24.67
13.91
7.70
5.88
8.78
16.91
29.45
43.19
53.09
54.32
44.90
27.04
6.52
-9.66
-16.33
-12.19
-0.04
14.93
27.35
33.72
33.32
27.76
19.88
12.45
7.32
5.16
5.61
7.75
10.49
12.89
14.29
14.46
13.50
11.82
10.05
8.90
8.94
10.51
13.48
17.35
21.34
24.66
26.79
27.57
27.17
25.92
24.15
21.99
19.43
16.31
12.57
8.27
3.70
-0.73
-4.63
-7.73
-9.99
-11.54
-12.59
-13.39
-14.15
-15.05
-16.24
-17.83
-19.75
-21.83
-23.77
-25.29
-26.30
-27.03
-27.95
-29.62
-32.39
-36.16
-40.32
-43.95
-46.08
-46.07
-43.80
-39.57
-34.04
-27.95
-21.94
-16.45
-11.77
-8.04
-5.29
-3.43
-2.27
-1.60
-1.27
-1.22
-1.51
-2.26
-3.58
-5.47
-7.85
-10.61
-13.53
-16.39
-18.83
-20.48
-20.93
-19.90
-17.33
-13.49
-8.85
-4.01
0.54
4.48
7.73
10.44
12.90
15.46
18.42
21.92
25.83
29.83
33.44
36.22
37.91
38.47
38.05
36.88
35.12
32.89
30.21
27.11
23.69
20.12
16.67
13.68
11.60
10.90
12.07
15.39
20.69
27.51
35.11
42.72
49.76
55.85
60.78
64.44
66.70
67.20
65.56
61.55
55.18
46.68
36.54
25.18
13.12
0.87
-11.34
-23.23
-34.44
-44.45
-52.69
-58.63
-62.13
-63.30
-62.66
-61.74
-62.28
-65.68
-72.74
-83.53
-96.98
-111.18
-122.96
-128.27
-124.40
-109.36
-81.87
-41.83
8.69
65.38
120.76
166.39
194.93
199.64
178.00
132.43
69.26
-3.69
-78.04
-147.24
-204.81
-244.96
-267.14
-274.46
-272.55
-267.62
-264.79
-265.52
-269.57
-273.90
-258.18
-211.84
-139.11
-56.38
20.20
77.47
122.53
162.02
198.58
231.16
254.36
263.71
259.66
247.87
235.74
229.27
228.51
230.05
229.50
221.51
203.82
178.19
149.37
122.58
102.45
90.76
88.40
95.76
111.06
131.92
156.15
182.14
208.26
232.67
251.82
261.89
259.69
242.97
211.79
169.13
120.53
72.89
33.34
7.44
-1.33
7.85
32.61
68.20
108.82
149.03
184.48
212.12
229.69
235.48
228.46
208.62
177.42
137.65
92.73
45.77
-1.24
-47.37
-92.26
-135.41
-175.92
-212.76
-245.29
-273.76
-299.34
-323.42
-347.03
-370.49
-393.38
-415.09
-435.37
-454.64
-474.18
-495.89
-522.15
-555.22
-596.40
-644.71
-695.90
-742.63
-776.04
-788.62
-776.89
-742.90
-693.35
-636.97
-581.44
-531.27
-487.59
-449.29
-414.76
-382.91
-353.16
-324.87
-296.80
-267.04
-233.61
-195.21
-151.60
-103.72
-53.29
-2.22
47.77
95.54
140.49
182.43
221.38
257.42
290.73
321.80
351.70
381.94
413.82
447.60
481.65
512.49
535.77
547.78
547.01
534.57
513.52
487.42
458.90
429.09
397.99
365.54
332.24
299.35
268.38
240.41
215.63
193.47
173.08
153.84
135.63
118.82
103.91
91.28
80.91
72.32
64.76
57.43
49.75
41.58
33.25
25.45
18.94
14.30
11.69
10.72
10.65
10.54
9.63
7.49
4.19
0.10
-4.19
-8.08
-11.06
-12.76
-12.89
-11.36
-8.17
-3.56
2.01
7.95
13.71
18.79
22.82
25.54
26.75
26.44
24.68
21.77
18.08
13.93
9.57
5.06
0.41
-4.31
-8.82
-12.58
-14.92
-15.21
-13.12
-8.67
-2.15
5.88
14.80
23.83
32.12
38.70
42.61
43.07
39.65
32.31
21.26
6.87
-10.27
-29.15
-47.96
-64.16
-74.76
-77.29
-70.62
-55.63
-35.04
-12.69
7.63
23.17
32.83
36.98
36.96
34.40
30.76
27.13
24.34
22.93
23.19
24.98
27.64
30.12
31.32
30.59
27.90
23.92
19.65
15.97
13.24
11.21
9.10
6.01
1.20
-5.60
-14.08
-23.41
-32.41
-39.84
-44.71
-46.53
-45.45
-42.14
-37.49
-32.32
-27.09
-21.76
-15.99
-9.40
-1.92
6.06
13.69
19.90
23.77
24.86
23.31
19.88
15.59
11.46
8.14
5.89
4.62
4.09
4.18
4.97
6.67
9.39
12.98
16.99
20.73
23.51
24.88
24.75
23.29
20.77
17.34
13.02
7.82
1.95
-4.07
-9.46
-13.38
-15.27
-14.96
-12.72
-9.00
-4.14
1.81
9.04
17.84
28.22
39.66
51.09
61.17
68.78
73.61
76.44
79.00
83.37
91.07
102.25
115.51
128.29
138.01
143.15
144.06
142.75
141.97
144.00
149.53
157.43
164.93
168.17
162.67
144.02
109.10
57.92
-4.70
-69.01
-122.60
-154.67
-160.40
-143.01
-112.17
-79.56
-53.74
-37.43
-28.39
-22.76
-18.77
-18.28
-25.64
-44.75
-76.45
-117.45
-161.29
-200.49
-228.71
-242.35
-241.24
-228.62
-210.52
-194.16
-185.97
-189.48
-203.90
-224.01
-241.63
-248.17
-236.81
-203.95
-149.89
-78.65
2.40
83.08
151.80
197.99
215.27
204.00
171.41
128.66
86.11
49.32
18.08
-11.18
-40.99
-69.80
-92.06
-101.60
-95.67
-76.80
-51.44
-26.32
-5.21
11.91
27.10
41.62
54.21
61.77
61.74
54.25
42.97
33.95
33.17
44.31
67.69
100.53
138.37
176.78
212.66
244.56
272.33
295.76
313.45
322.40
318.90
300.03
265.11
216.37
157.99
94.24
27.91
-39.96
-108.81
-176.77
-239.91
-293.09
-332.16
-355.88
-366.42
-367.91
-364.01
-356.22
-344.01
-326.85
-306.00
-284.90
-267.49
-255.71
-248.14
-240.53
-228.25
-208.61
-181.71
-149.32
-112.87
-72.11
-25.19
29.49
91.19
156.11
218.26
271.70
312.78
340.86
357.71
365.97
367.80
364.33
356.01
343.25
326.63
306.73
283.50
256.22
224.10
187.16
146.97
106.48
69.00
36.89
10.68
-10.93
-30.20
-49.22
-69.08
-89.61
-109.76
-128.15
-143.63
-155.52
-163.75
-168.58
-170.60
-170.66
-170.07
-170.45
-172.95
-177.33
-180.93
-179.02
-166.06
-138.00
-94.09
-37.69
24.87
86.30
140.68
184.71
217.74
240.90
256.01
264.93
269.49
271.43
272.23
272.65
272.33
269.68
262.58
249.25
229.13
203.22
173.78
143.51
114.67
88.56
65.43
44.84
26.18
8.97
-6.92
-21.41
-34.32
-45.54
-55.07
-63.01
-69.54
-74.88
-79.26
-82.89
-85.98
-88.69
-91.13
-93.26
-94.97
-96.04
-96.33
-95.84
-94.80
-93.63
-92.79
-92.63
-93.21
-94.32
-95.53
-96.42
-96.68
-96.23
-95.08
-93.30
-90.91
-87.82
-83.89
-79.01
-73.22
-66.63
-59.47
-52.00
-44.56
-37.54
-31.35
-26.42
-23.06
-21.34
-21.07
-21.80
-22.91
-23.75
-23.86
-23.02
-21.27
-18.84
-16.00
-12.98
-9.93
-7.01
-4.43
-2.46
-1.31
-1.09
-1.60
-2.47
-3.28
-3.72
-3.81
-3.79
-4.03
-4.79
-6.19
-8.12
-10.41
-12.92
-15.47
-17.95
-20.19
-22.03
-23.41
-24.37
-25.13
-26.00
-27.23
-28.83
-30.55
-31.83
-32.02
-30.61
-27.48
-22.99
-18.01
-13.57
-10.59
-9.53
-10.16
-11.71
-13.25
-14.02
-13.71
-12.46
-10.71
-8.95
-7.57
-6.83
-6.91
-7.92
-9.93
-12.81
-16.25
-19.80
-22.96
-25.35
-26.87
-27.62
-27.86
-27.82
-27.64
-27.32
-26.79
-25.98
-24.93
-23.81
-22.86
-22.29
-22.14
-22.31
-22.58
-22.75
-22.75
-22.67
-22.77
-23.27
-24.35
-25.98
-27.99
-30.02
-31.57
-32.07
-31.01
-28.14
-23.49
-17.51
-10.85
-4.21
1.91
7.21
11.68
15.40
18.47
20.98
23.02
24.75
26.39
28.14
30.13
32.35
34.62
36.62
38.05
38.71
38.58
37.73
36.28
34.26
31.56
27.97
23.36
17.74
11.35
4.54
-2.38
-9.25
-15.99
-22.51
-28.52
-33.53
-37.00
-38.61
-38.39
-36.80
-34.43
-31.74
-28.89
-25.81
-22.50
-19.20
-16.53
-15.19
-15.62
-17.69
-20.60
-23.28
-24.84
-24.97
-24.06
-22.91
-22.25
-22.32
-22.73
-22.73
-21.57
-18.89
-14.82
-9.86
-4.54
0.86
6.40
12.27
18.67
25.52
32.49
39.12
44.99
49.89
53.77
56.76
58.86
59.99
59.91
58.46
55.70
52.00
47.95
44.08
40.55
37.02
32.86
27.48
20.81
13.30
5.81
-1.00
-6.89
-12.19
-17.50
-23.25
-29.45
-35.70
-41.38
-46.01
-49.27
-50.93
-50.66
-48.10
-42.99
-35.57
-26.65
-17.45
-9.20
-2.70
1.93
5.15
7.76
10.47
13.59
17.08
20.61
23.79
26.41
28.47
30.17
31.67
33.08
34.39
35.42
35.91
35.63
34.53
32.76
30.63
28.41
26.27
24.23
22.16
19.92
17.54
15.27
13.51
12.57
12.44
12.82
13.25
13.22
12.39
10.73
8.61
6.60
5.23
4.55
4.39
4.28
3.59
1.77
-1.21
-4.59
-7.14
-7.59
-5.62
-1.18
5.45
13.48
21.13
25.72
24.17
13.60
-7.29
-38.06
-75.13
-113.36
-148.51
-179.27
-206.70
-232.07
-255.20
-273.21
-282.35
-278.05
-257.03
-219.05
-167.53
-107.75
-44.92
16.66
78.70
136.62
183.60
215.23
234.00
244.73
250.15
251.36
246.52
234.92
215.84
190.41
161.15
130.70
100.61
71.60
44.33
19.43
-2.02
-19.63
-32.61
-40.07
-41.99
-39.64
-35.01
-29.74
-24.82
-20.31
-16.24
-12.09
-7.21
-1.22
5.62
12.79
19.93
26.68
32.67
37.01
38.91
37.96
34.41
29.07
23.24
18.35
15.43
14.86
16.15
18.39
20.63
22.20
22.76
22.38
21.40
20.29
19.52
19.43
20.26
22.07
24.79
28.19
32.04
36.09
40.20
44.29
48.30
52.10
55.49
58.35
60.65
62.48
63.90
64.88
65.27
64.85
63.49
61.07
57.26
51.40
42.71
30.60
15.09
-3.02
-22.36
-41.48
-59.19
-74.77
-87.80
-98.00
-105.12
-109.02
-109.72
-107.45
-102.60
-95.67
-87.41
-78.95
-71.66
-66.64
-64.16
-63.29
-62.28
-59.33
-53.60
-45.57
-36.53
-27.79
-19.88
-12.40
-4.60
3.80
12.22
19.47
24.46
26.90
27.51
27.56
28.14
29.55
31.25
32.26
31.71
29.21
24.89
19.18
12.63
5.83
-0.58
-5.89
-9.50
-11.06
-10.71
-8.99
-6.74
-4.75
-3.52
-3.22
-3.73
-4.84
-6.38
-8.24
-10.36
-12.72
-15.32
-18.20
-21.54
-25.52
-30.28
-35.78
-41.63
-47.21
-51.80
-54.90
-56.41
-56.64
-56.14
-55.43
-54.69
-53.84
-52.66
-51.01
-48.93
-46.69
-44.57
-42.68
-40.98
-39.34
-37.70
-36.05
-34.39
-32.66
-30.87
-29.04
-27.33
-26.01
-25.35
-25.56
-26.61
-28.29
-30.14
-31.84
-33.08
-33.59
-33.11
-31.46
-28.51
-24.20
-18.61
-11.95
-4.95
1.61
7.10
11.33
14.47
16.96
19.26
21.54
23.59
23.99
21.39
15.17
6.11
-4.15
-13.71
-20.95
-25.07
-26.04
-25.71
-26.09
-28.98
-35.94
-48.87
-69.50
-98.13
-132.12
-165.47
-192.06
-206.74
-207.59
-196.56
-178.79
-159.78
-142.29
-125.39
-97.40
-53.72
0.46
52.20
90.19
110.95
119.17
122.94
127.21
133.16
138.00
139.49
135.84
129.33
123.42
120.34
120.06
121.23
123.16
125.62
130.08
138.85
153.77
174.22
196.86
217.04
230.75
236.24
233.36
223.80
210.27
195.71
182.24
171.01
162.72
158.32
158.95
164.71
174.19
183.99
189.49
185.88
169.80
140.42
99.85
52.39
3.03
-43.62
-84.43
-118.09
-145.33
-168.48
-190.50
-213.38
-236.91
-258.44
-273.79
-279.17
-273.01
-256.92
-235.57
-215.45
-203.40
-204.92
-222.68
-255.12
-295.96
-334.94
-360.40
-363.09
-339.72
-294.44
-237.22
-179.73
-130.65
-92.89
-63.83
-38.14
-11.22
18.70
50.46
81.50
109.57
133.67
153.62
169.28
179.93
184.55
182.66
175.23
164.86
154.85
148.02
145.55
146.58
148.71
149.10
145.65
137.70
126.10
112.79
99.91
89.07
81.01
75.56
71.94
69.13
66.20
62.48
57.63
51.65
44.88
37.82
31.04
25.10
20.46
17.49
16.43
17.42
20.39
25.06
30.87
37.00
42.46
46.20
47.28
45.11
39.64
31.48
21.71
11.69
2.71
-4.26
-8.70
-10.50
-9.90
-7.29
-3.17
2.02
7.98
14.45
21.19
27.88
34.01
39.03
42.49
44.28
44.63
44.09
43.19
42.27
41.36
40.30
39.01
37.70
36.97
37.73
40.87
46.91
55.78
66.72
78.47
89.56
98.60
104.58
106.92
105.33
99.46
88.89
73.16
52.39
27.85
2.05
-21.95
-41.56
-55.49
-63.95
-68.21
-70.10
-71.97
-77.01
-89.42
-113.49
-151.35
-200.61
-253.35
-297.86
-322.72
-321.29
-294.16
-248.36
-193.82
-139.43
-90.54
-48.97
-14.54
13.08
33.77
47.37
54.52
57.24
58.17
59.46
61.69
63.60
62.78
56.86
44.71
27.06
6.46
-13.58
-29.68
-39.67
-43.09
-41.18
-36.17
-30.38
-25.43
-21.89
-19.47
-17.39
-14.97
-11.89
-8.25
-4.37
-0.63
2.67
5.42
7.59
9.21
10.35
11.06
11.44
11.59
11.62
11.63
11.65
11.60
11.32
10.60
9.29
7.40
5.11
2.73
0.54
-1.28
-2.80
-4.19
-5.73
-7.56
-9.64
-11.87
-14.01
-15.90
-17.56
-19.16
-21.08
-23.66
-27.13
-31.34
-35.74
-39.44
-41.48
-41.10
-37.98
-32.33
-24.79
-16.21
-7.49
0.60
7.51
13.00
17.15
20.32
23.00
25.58
28.20
30.75
32.92
34.42
35.11
35.08
34.58
33.91
33.38
33.18
33.44
34.05
34.77
35.18
34.86
33.50
31.09
27.92
24.43
21.04
18.01
15.31
12.68
9.84
6.57
2.82
-1.26
-5.39
-9.31
-12.87
-16.10
-19.16
-22.33
-25.93
-30.20
-35.18
-40.65
-46.06
-50.49
-52.90
-52.39
-48.55
-41.64
-32.58
-22.71
-13.34
-5.36
0.91
5.63
9.16
11.83
13.83
15.28
16.39
17.49
18.88
20.69
22.77
24.75
26.24
27.07
27.27
27.06
26.59
25.82
24.54
22.47
19.43
15.44
10.69
5.38
-0.27
-6.11
-11.96
-17.63
-22.78
-27.13
-30.45
-32.72
-34.10
-34.91
-35.53
-36.30
-37.53
-39.44
-42.16
-45.63
-49.43
-52.75
-54.49
-53.50
-49.01
-41.03
-30.36
-18.46
-6.95
2.90
10.43
15.65
19.01
21.11
22.44
23.32
23.91
24.31
24.59
24.79
25.01
25.32
25.82
26.54
27.53
28.75
30.24
32.00
34.02
36.23
38.44
40.36
41.63
42.03
41.46
40.00
37.82
35.09
31.92
28.29
24.15
19.48
14.42
9.21
4.16
-0.39
-4.27
-7.52
-10.36
-13.11
-16.10
-19.55
-23.48
-27.68
-31.58
-34.42
-35.26
-33.43
-28.64
-21.28
-12.28
-2.87
5.77
12.88
18.24
22.05
24.75
26.82
28.58
30.16
31.56
32.69
33.48
33.88
34.00
33.98
34.00
34.21
34.68
35.34
36.01
36.47
36.42
35.62
33.83
30.96
27.10
22.52
17.63
12.95
8.87
5.59
2.98
0.72
-1.60
-4.26
-7.29
-10.44
-13.35
-15.74
-17.56
-19.03
-20.61
-22.69
-25.55
-29.10
-32.95
-36.41
-38.66
-38.94
-36.74
-32.04
-25.33
-17.56
-9.87
-3.25
1.67
4.81
6.50
7.31
7.71
8.04
8.31
8.46
8.36
7.98
7.36
6.69
6.17
5.95
6.11
6.59
7.23
7.84
8.27
8.44
8.33
7.94
7.27
6.27
4.86
2.98
0.67
-1.95
-4.70
-7.43
-10.06
-12.61
-15.17
-17.82
-20.60
-23.56
-26.75
-30.26
-34.18
-38.50
-42.94
-46.82
-49.24
-49.24
-46.20
-40.17
-31.89
-22.58
-13.53
-5.73
0.46
5.12
8.71
11.66
14.24
16.51
18.39
19.84
20.92
21.73
22.38
22.94
23.39
23.63
23.61
23.32
22.85
22.33
21.86
21.47
21.10
20.56
19.67
18.30
16.46
14.25
11.83
9.29
6.67
4.00
1.33
-1.28
-3.66
-5.73
-7.50
-9.17
-11.02
-13.40
-16.61
-20.77
-25.73
-30.98
-35.69
-38.82
-39.42
-36.95
-31.52
-23.86
-15.14
-6.59
0.82
6.66
10.97
14.12
16.59
18.74
20.76
22.70
24.47
26.01
27.25
28.18
28.74
28.82
28.33
27.28
25.87
24.45
23.39
22.94
23.07
23.45
23.65
23.28
22.16
20.37
18.17
15.83
13.58
11.49
9.55
7.67
5.73
3.59
1.19
-1.50
-4.38
-7.28
-9.97
-12.32
-14.33
-16.14
-18.04
-20.39
-23.45
-27.32
-31.80
-36.36
-40.16
-42.27
-41.86
-38.56
-32.64
-24.90
-16.53
-8.73
-2.33
2.31
5.31
7.11
8.19
8.89
9.41
9.84
10.22
10.60
11.03
11.56
12.15
12.74
13.25
13.68
14.12
14.68
15.49
16.54
17.64
18.51
18.84
18.48
17.48
16.08
14.58
13.17
11.85
10.42
8.62
6.26
3.37
0.09
-3.35
-6.77
-10.07
-13.23
-16.25
-19.13
-21.93
-24.75
-27.80
-31.23
-35.03
-38.90
-42.23
-44.20
-44.07
-41.45
-36.43
-29.59
-21.92
-14.42
-7.97
-2.93
0.76
3.49
5.80
8.04
10.32
12.47
14.19
15.24
15.50
15.04
14.01
12.59
10.96
9.25
7.64
6.25
5.20
4.54
4.25
4.27
4.46
4.68
4.79
4.61
4.02
2.97
1.45
-0.48
-2.74
-5.24
-7.88
-10.47
-12.82
-14.80
-16.41
-17.92
-19.70
-22.14
-25.29
-28.83
-31.97
-33.77
-33.43
-30.57
-25.41
-18.63
-11.15
-3.87
2.56
7.81
11.85
14.86
17.13
18.94
20.54
22.10
23.68
25.23
26.59
27.52
27.88
27.62
26.84
25.73
24.53
23.33
22.11
20.67
18.73
16.14
12.99
9.54
6.26
3.53
1.60
0.45
-0.10
-0.37
-0.71
-1.36
-2.49
-4.14
-6.24
-8.56
-10.84
-12.82
-14.45
-15.93
-17.74
-20.51
-24.71
-30.39
-37.01
-43.49
-48.51
-50.95
-50.21
-46.39
-40.18
-32.55
-24.40
-16.41
-8.96
-2.24
3.67
8.66
12.68
15.65
17.63
18.78
19.37
19.74
20.16
20.86
21.90
23.19
24.52
25.67
26.35
26.38
25.62
24.02
21.60
18.39
14.53
10.16
5.49
0.77
-3.72
-7.69
-10.88
-13.12
-14.42
-14.99
-15.21
-15.53
-16.36
-17.99
-20.42
-23.33
-26.16
-28.21
-28.82
-27.61
-24.55
-19.99
-14.52
-8.78
-3.33
1.50
5.56
8.78
11.15
12.57
13.05
12.62
11.49
9.94
8.28
6.73
5.34
3.96
2.32
0.24
-2.26
-4.86
-7.13
-8.57
-8.97
-8.39
-7.27
-6.20
-5.78
-6.34
-7.88
-10.04
-12.34
-14.35
-15.91
-17.18
-18.53
-20.36
-22.91
-26.16
-29.88
-33.58
-36.68
-38.41
-38.07
-35.11
-29.47
-21.72
-12.97
-4.60
2.25
7.02
9.82
11.30
12.24
13.22
14.37
15.45
15.90
15.17
12.93
9.25
4.65
0.07
-3.43
-4.91
-3.86
-0.44
4.60
10.03
14.51
16.95
16.81
14.17
9.75
4.63
-0.00
-3.10
-4.01
-2.58
0.79
5.17
9.32
11.88
11.75
8.41
2.17
-5.94
-14.42
-21.67
-26.20
-26.77
-22.27
-11.86
4.71
26.61
51.57
76.16
96.69
110.35
116.23
115.49
110.84
105.57
102.61
103.90
110.01
119.89
130.95
139.31
140.77
131.99
111.71
81.34
44.54
6.17
-29.22
-58.59
-81.00
-97.32
-109.48
-119.35
-127.92
-134.94
-139.22
-139.43
-134.86
-125.93
-113.98
-100.67
-87.41
-74.98
-63.68
-53.53
-44.38
-35.78
-26.78
-16.08
-2.47
14.53
34.23
54.82
73.78
88.67
97.86
101.04
99.29
94.72
89.80
86.58
86.26
89.05
94.16
100.11
105.00
106.88
104.48
97.57
87.31
75.83
65.32
56.91
50.03
42.65
32.41
17.78
-1.23
-23.35
-46.85
-70.47
-93.69
-116.53
-139.11
-161.38
-182.91
-202.92
-219.82
-230.91
-232.55
-220.95
-193.80
-151.94
-99.88
-44.95
4.88
43.57
68.63
81.26
85.01
83.91
80.90
77.33
73.31
68.58
63.05
56.96
50.60
44.02
36.98
29.16
20.55
11.56
2.91
-4.65
-10.61
-14.74
-17.07
-17.56
-16.14
-12.60
-6.77
1.29
11.19
22.07
32.76
41.95
48.54
51.97
52.44
50.98
49.04
48.10
49.01
51.73
55.42
58.86
60.96
61.24
59.76
56.92
52.92
47.50
40.03
29.90
17.09
2.43
-12.53
-25.97
-36.53
-43.69
-47.83
-49.92
-51.00
-51.73
-52.30
-52.51
-52.05
-50.69
-48.49
-45.68
-42.54
-39.32
-36.12
-32.92
-29.66
-26.32
-22.88
-19.39
-15.88
-12.36
-8.93
-5.71
-2.96
-0.89
0.28
0.50
-0.17
-1.49
-3.12
-4.68
-5.87
-6.51
-6.68
-6.69
-6.95
-7.86
-9.59
-12.04
-14.88
-17.72
-20.26
-22.45
-24.45
-26.58
-29.06
-31.94
-34.95
-37.58
-39.22
-39.37
-37.80
-34.62
-30.24
-25.16
-19.82
-14.49
-9.22
-3.99
1.22
6.32
11.09
15.28
18.66
21.07
22.49
22.98
22.72
21.93
20.83
19.59
18.39
17.38
16.71
16.46
16.64
17.11
17.61
17.80
17.42
16.30
14.47
12.08
9.26
6.11
2.59
-1.34
-5.67
-10.24
-14.70
-18.60
-21.50
-23.04
-23.08
-21.66
-18.98
-15.40
-11.25
-6.88
-2.53
1.62
5.43
8.80
11.67
14.02
15.99
17.76
19.55
21.40
23.08
24.06
23.63
21.20
16.57
10.09
2.74
-4.11
-8.90
-10.36
-7.84
-1.64
6.96
16.08
23.74
28.48
29.80
28.17
24.63
20.23
15.66
11.06
6.24
0.96
-4.82
-10.90
-16.81
-22.08
-26.26
-29.07
-30.47
-30.58
-29.70
-28.17
-26.30
-24.25
-22.10
-19.83
-17.45
-15.04
-12.67
-10.45
-8.43
-6.59
-4.87
-3.28
-1.87
-0.80
-0.30
-0.56
-1.55
-2.93
-4.26
-4.96
-4.71
-3.48
-1.57
0.46
2.12
3.06
3.27
2.93
2.35
1.76
1.21
0.58
-0.44
-2.15
-4.77
-8.32
-12.51
-16.78
-20.45
-22.77
-23.19
-21.54
-18.02
-13.22
-7.89
-2.72
1.83
5.60
8.64
11.07
13.00
14.44
15.37
15.82
15.90
15.77
15.62
15.60
15.74
15.95
16.17
16.34
16.47
16.64
16.84
16.99
16.89
16.31
15.06
13.10
10.56
7.65
4.67
1.82
-0.72
-2.87
-4.62
-6.11
-7.61
-9.51
-12.16
-15.73
-20.04
-24.52
-28.39
-30.89
-31.50
-30.12
-27.07
-22.90
-18.19
-13.46
-8.96
-4.85
-1.14
2.16
5.10
7.68
9.96
11.99
13.83
15.55
17.15
18.60
19.80
20.58
20.81
20.42
19.54
18.42
17.42
16.81
16.71
16.93
17.13
16.89
15.91
14.08
11.48
8.35
5.00
1.67
-1.50
-4.49
-7.38
-10.37
-13.67
-17.47
-21.88
-26.71
-31.54
-35.67
-38.33
-38.85
-36.96
-32.82
-27.03
-20.47
-13.98
-8.24
-3.62
-0.13
2.49
4.62
6.66
8.81
11.02
13.03
14.44
14.97
14.58
13.51
12.22
11.14
10.48
10.10
9.57
8.37
6.25
3.25
-0.18
-3.42
-6.05
-7.95
-9.48
-11.27
-13.97
-18.00
-23.39
-29.77
-36.50
-42.73
-47.53
-50.00
-49.55
-46.19
-40.82
-35.19
-31.32
-30.65
-33.26
-37.66
-41.24
-41.35
-36.27
-25.71
-10.64
7.36
26.77
46.38
65.19
82.23
96.32
106.36
111.61
111.92
107.89
100.75
92.20
83.94
77.23
72.39
68.58
64.09
57.11
46.73
33.41
18.88
5.37
-5.38
-12.82
-17.50
-20.49
-22.68
-24.38
-25.40
-25.49
-24.73
-23.61
-22.70
-22.30
-22.11
-21.36
-19.15
-14.95
-8.98
-2.16
4.26
9.35
12.97
15.96
19.68
25.46
33.87
44.40
55.40
64.45
68.68
65.23
51.89
27.78
-5.84
-45.48
-85.92
-121.72
-148.77
-165.38
-172.35
-171.81
-165.81
-155.21
-139.62
-118.20
-90.82
-58.85
-25.14
6.82
34.02
54.81
69.24
78.67
85.07
90.20
95.02
99.72
104.06
107.92
111.55
115.57
120.39
125.83
130.89
134.02
133.62
128.20
116.46
96.95
68.20
29.27
-19.31
-74.58
-131.11
-181.96
-220.45
-241.99
-245.22
-232.22
-207.71
-177.75
-148.16
-123.33
-105.22
-93.30
-85.18
-77.85
-69.05
-58.10
-45.84
-33.81
-23.27
-14.57
-7.25
-0.64
5.57
11.17
15.83
19.47
22.55
25.75
29.58
33.96
38.19
41.18
42.03
40.33
36.34
30.83
24.77
18.97
13.91
9.61
5.82
2.22
-1.47
-5.33
-9.37
-13.52
-17.82
-22.27
-26.76
-30.87
-33.80
-34.62
-32.58
-27.42
-19.63
-10.29
-0.74
7.80
14.51
19.18
22.02
23.48
24.05
24.10
23.86
23.53
23.30
23.38
23.92
24.92
26.27
27.70
28.95
29.88
30.49
30.88
31.10
31.09
30.65
29.51
27.45
24.39
20.47
15.90
11.02
6.21
1.78
-2.08
-5.35
-8.23
-11.05
-14.18
-17.94
-22.51
-27.72
-33.09
-37.77
-40.68
-40.74
-37.32
-30.48
-21.16
-10.88
-1.28
6.47
11.96
15.54
17.90
19.65
21.00
21.84
21.96
21.38
20.45
19.72
19.64
20.24
21.19
21.96
22.18
21.83
21.21
20.71
20.55
20.56
20.22
18.86
15.98
11.44
5.57
-0.95
-7.32
-12.90
-17.36
-20.77
-23.58
-26.39
-29.78
-34.11
-39.34
-44.98
-50.15
-53.68
-54.44
-51.61
-45.06
-35.37
-23.76
-11.69
-0.52
8.85
16.06
21.17
24.41
26.00
26.13
25.05
23.14
20.98
19.11
17.93
17.46
17.40
17.31
16.86
15.99
14.92
13.91
12.98
11.86
9.98
6.77
1.96
-4.28
-11.33
-18.39
-24.77
-30.09
-34.29
-37.61
-40.45
-43.36
-46.84
-51.19
-56.22
-61.07
-64.28
-64.21
-59.73
-50.67
-38.06
-23.72
-9.64
2.76
12.93
21.21
28.32
34.96
41.49
47.90
54.08
60.06
66.21
73.17
81.37
90.64
99.83
107.14
110.60
108.77
101.06
87.75
69.69
48.06
24.43
0.88
-19.96
-35.43
-43.65
-44.27
-38.77
-29.98
-21.18
-15.06
-13.13
-15.52
-21.22
-28.43
-34.85
-38.22
-36.90
-30.33
-19.25
-5.44
8.92
21.94
32.56
40.67
46.77
51.52
55.37
58.36
60.25
60.77
59.72
57.17
53.37
48.70
43.51
38.18
32.95
27.96
23.12
18.09
12.26
5.06
-3.89
-14.35
-25.60
-36.55
-46.23
-54.15
-60.39
-65.38
-69.57
-73.09
-75.51
-76.04
-73.70
-67.54
-56.88
-41.49
-21.86
0.66
23.87
45.19
62.20
73.44
78.68
78.83
75.42
69.99
63.82
57.87
53.03
50.15
49.87
52.32
56.83
62.08
66.49
68.80
68.50
65.83
61.50
56.25
50.60
44.75
38.79
32.83
27.13
22.02
17.66
13.86
10.08
5.50
-0.62
-8.49
-17.60
-26.63
-33.89
-37.81
-37.49
-33.09
-25.70
-16.95
-8.47
-1.44
3.57
6.54
7.77
7.69
6.63
4.87
2.54
-0.27
-3.47
-6.82
-9.89
-12.10
-12.87
-11.90
-9.39
-5.95
-2.50
0.11
1.38
1.25
0.01
-1.95
-4.36
-7.18
-10.59
-14.81
-19.96
-26.05
-32.79
-39.72
-46.10
-51.06
-53.65
-53.04
-48.87
-41.34
-31.37
-20.36
-9.87
-1.08
5.52
10.16
13.65
16.89
20.49
24.58
28.76
32.36
34.68
35.27
33.97
31.01
26.82
22.07
17.47
13.72
11.27
10.17
10.03
10.17
9.81
8.41
5.82
2.30
-1.71
-5.70
-9.37
-12.63
-15.66
-18.77
-22.29
-26.41
-31.06
-35.74
-39.51
-41.17
-39.69
-34.59
-26.30
-16.01
-5.36
4.19
11.80
17.35
21.24
24.02
26.03
27.32
27.82
27.54
26.68
25.58
24.54
23.73
23.03
22.27
21.23
19.86
18.22
16.47
14.72
12.94
10.96
8.55
5.50
1.73
-2.64
-7.32
-11.92
-16.05
-19.54
-22.48
-25.29
-28.56
-32.88
-38.56
-45.38
-52.53
-58.75
-62.65
-63.15
-59.85
-53.19
-44.26
-34.40
-24.85
-16.32
-9.01
-2.74
2.82
7.90
12.64
16.99
20.91
24.28
27.02
29.07
30.36
30.89
30.67
29.80
28.42
26.78
25.11
23.62
22.44
21.45
20.41
18.97
16.76
13.62
9.56
4.85
-0.16
-5.05
-9.49
-13.29
-16.54
-19.58
-22.95
-27.19
-32.60
-39.00
-45.66
-51.47
-55.16
-55.69
-52.57
-45.98
-36.78
-26.21
-15.60
-6.03
1.97
8.41
13.71
18.43
22.98
27.46
31.65
35.16
37.62
38.82
38.81
37.81
36.20
34.44
32.90
31.82
31.29
31.13
31.04
30.64
29.59
27.72
25.00
21.62
17.81
13.86
9.98
6.34
2.95
-0.23
-3.29
-6.36
-9.51
-12.73
-15.99
-19.25
-22.58
-26.14
-30.20
-34.98
-40.55
-46.64
-52.60
-57.42
-59.97
-59.31
-54.98
-47.26
-37.12
-25.95
-15.09
-5.56
2.32
8.74
14.24
19.34
24.28
29.00
33.17
36.46
38.61
39.62
39.65
38.99
37.91
36.62
35.25
33.87
32.52
31.25
30.06
28.86
27.48
25.70
23.34
20.39
16.93
13.18
9.33
5.55
1.88
-1.71
-5.25
-8.77
-12.24
-15.68
-19.13
-22.67
-26.49
-30.78
-35.73
-41.35
-47.44
-53.44
-58.53
-61.71
-62.04
-59.02
-52.70
-43.87
-33.74
-23.72
-14.93
-8.00
-2.97
0.53
3.02
4.97
6.64
8.07
9.20
9.98
10.33
10.27
9.80
8.89
7.57
5.96
4.31
3.01
2.44
2.86
4.17
5.92
7.39
7.98
7.41
5.83
3.81
2.07
1.24
1.71
3.56
6.59
10.46
14.78
19.16
23.30
26.91
29.74
31.44
31.64
30.06
26.74
22.20
17.51
14.00
12.94
15.03
20.20
27.67
36.12
44.16
50.65
54.96
56.94
56.80
54.92
51.68
47.42
42.50
37.32
32.34
28.05
24.77
22.59
21.28
20.42
19.52
18.26
16.56
14.58
12.54
10.55
8.49
6.04
2.86
-1.17
-5.88
-10.86
-15.67
-20.19
-24.60
-29.39
-35.02
-41.64
-49.06
-56.77
-64.27
-71.18
-77.27
-82.31
-85.97
-87.80
-87.51
-85.19
-81.34
-76.69
-71.82
-66.85
-61.41
-54.99
-47.32
-38.62
-29.53
-20.85
-13.15
-6.63
-1.21
3.26
6.83
9.46
11.21
12.33
13.31
14.63
16.64
19.37
22.54
25.68
28.28
29.91
30.35
29.51
27.48
24.51
20.90
16.91
12.65
8.07
3.07
-2.27
-7.63
-12.44
-16.07
-18.02
-17.97
-15.77
-11.32
-4.61
4.15
14.25
24.55
33.72
40.61
44.69
46.14
45.62
43.93
41.67
39.11
36.33
33.40
30.42
27.58
24.97
22.63
20.54
18.72
17.24
16.29
16.04
16.59
17.81
19.37
20.78
21.49
21.15
19.63
17.05
13.68
9.80
5.66
1.41
-2.91
-7.31
-11.84
-16.66
-21.96
-27.93
-34.66
-41.96
-49.33
-55.97
-60.93
-63.34
-62.70
-59.05
-52.88
-45.09
-36.60
-28.20
-20.36
-13.35
-7.25
-2.14
1.95
5.04
7.24
8.80
9.99
11.00
11.93
12.77
13.51
14.14
14.70
15.20
15.58
15.75
15.56
14.89
13.71
12.05
9.96
7.47
4.61
1.42
-2.02
-5.56
-9.03
-12.32
-15.42
-18.46
-21.59
-24.99
-28.70
-32.63
-36.39
-39.37
-40.76
-39.71
-35.58
-28.24
-18.04
-5.98
6.62
18.37
28.14
35.29
39.61
41.24
40.44
37.73
33.64
28.80
23.84
19.36
15.83
13.45
12.16
11.55
11.39
11.24
10.67
9.35
7.17
4.29
1.12
-1.76
-4.22
-5.38
-5.21
-4.03
-2.43
-0.96
0.01
0.51
0.95
1.05
2.39
5.11
8.83
12.91
16.71
20.11
23.75
28.82
35.00
44.32
55.77
67.02
75.14
77.43
72.04
57.98
35.01
1.81
-37.40
-78.67
-116.36
-144.63
-159.68
-161.62
-154.90
-134.40
-122.83
-121.71
-131.17
-148.62
-170.63
-194.48
-218.37
-240.88
-260.15
-275.95
-284.61
-286.41
-283.60
-279.45
-276.45
-274.75
-271.57
-262.06
-242.32
-206.56
-153.33
-84.76
-6.58
72.60
143.05
196.52
228.85
240.33
238.03
230.22
224.07
223.37
228.04
235.57
243.11
249.04
252.58
254.42
254.16
250.56
242.09
227.95
208.82
186.86
165.04
145.82
130.62
119.05
109.38
99.59
88.42
75.96
63.45
52.52
44.17
38.27
33.65
28.73
22.28
13.93
4.13
-6.16
-16.08
-25.09
-33.11
-40.26
-46.61
-51.94
-55.71
-57.22
-55.97
-51.90
-45.55
-38.00
-30.55
-24.29
-19.88
-17.34
-16.24
-15.93
-15.85
-15.73
-15.60
-15.67
-16.17
-17.13
-18.38
-19.58
-20.35
-20.42
-19.74
-18.40
-16.58
-14.48
-12.31
-10.31
-8.76
-7.99
-8.23
-9.51
-11.60
-14.06
-16.44
-18.47
-20.16
-21.81
-23.83
-26.55
-30.07
-34.13
-38.19
-41.48
-43.17
-42.56
-39.24
-33.29
-25.31
-16.28
-7.33
0.59
6.99
11.82
15.37
18.05
20.15
21.80
23.01
23.72
23.93
23.75
23.28
22.69
22.06
21.37
20.55
19.48
18.00
15.97
13.31
9.96
5.93
1.36
-3.54
-8.47
-13.08
-17.09
-20.34
-22.89
-25.10
-27.49
-30.58
-34.58
-39.20
-43.55
-46.39
-46.52
-43.21
-36.58
-27.56
-17.58
-8.11
-0.20
5.73
9.84
12.65
14.68
16.30
17.57
18.38
18.57
18.09
17.05
15.73
14.40
13.22
12.28
11.53
10.92
10.34
9.67
8.74
7.30
5.17
2.31
-1.14
-4.85
-8.46
-11.73
-14.69
-17.57
-20.77
-24.64
-29.29
-34.44
-39.36
-43.03
-44.34
-42.54
-37.52
-29.86
-20.68
-11.26
-2.63
4.65
10.49
15.10
18.73
21.57
23.68
25.15
26.09
26.69
27.18
27.69
28.21
28.64
28.80
28.58
28.00
27.12
26.04
24.76
23.14
20.93
17.93
14.09
9.63
4.98
0.63
-3.07
-6.01
-8.39
-10.62
-13.18
-16.41
-20.51
-25.41
-30.80
-36.08
-40.40
-42.85
-42.63
-39.33
-33.09
-24.60
-14.89
-5.01
4.24
12.43
19.43
25.27
29.97
33.45
35.64
36.51
36.22
35.11
33.61
32.16
31.01
30.21
29.61
29.03
28.32
27.44
26.41
25.24
23.76
21.70
18.74
14.68
9.61
3.90
-1.87
-7.15
-11.61
-15.26
-18.41
-21.61
-25.42
-30.19
-35.92
-42.08
-47.71
-51.56
-52.55
-50.06
-44.31
-36.19
-27.02
-18.07
-10.13
-3.45
2.23
7.31
12.10
16.69
20.99
24.94
28.62
32.22
36.05
40.33
45.08
50.10
54.98
59.23
62.40
64.19
64.54
63.56
61.51
58.62
55.05
50.84
45.92
40.24
33.86
27.01
20.02
13.17
6.63
0.26
-6.18
-13.01
-20.47
-28.62
-37.29
-46.11
-54.49
-61.66
-66.82
-69.34
-69.01
-66.18
-61.69
-56.65
-52.05
-48.51
-46.08
-44.46
-43.12
-41.62
-39.76
-37.61
-35.39
-33.41
-31.86
-30.74
-29.89
-29.05
-28.04
-26.81
-25.46
-24.17
-23.08
-22.27
-21.76
-21.63
-22.04
-23.10
-24.75
-26.64
-28.13
-28.51
-27.30
-24.42
-20.22
-15.30
-10.34
-5.92
-2.44
-0.25
0.29
-1.07
-4.36
-9.16
-14.53
-19.21
-21.95
-21.85
-18.77
-13.21
-6.18
1.26
8.31
14.60
20.15
25.12
29.61
33.57
36.77
39.07
40.40
40.91
40.83
40.48
40.09
39.84
39.73
39.68
39.55
39.21
38.61
37.76
36.69
35.45
33.95
32.03
29.50
26.21
22.19
17.58
12.65
7.63
2.76
-1.86
-6.17
-10.24
-14.22
-18.40
-23.11
-28.56
-34.65
-40.77
-45.90
-48.79
-48.36
-44.10
-36.23
-25.67
-13.71
-1.71
9.27
18.65
26.33
32.55
37.61
41.79
45.18
47.72
49.31
49.97
49.80
49.01
47.87
46.53
45.13
43.80
42.59
41.54
40.63
39.65
38.34
36.47
33.92
30.74
27.12
23.24
19.22
15.09
10.92
6.79
2.90
-0.61
-3.69
-6.46
-9.24
-12.40
-16.24
-20.96
-26.57
-32.89
-39.47
-45.59
-50.25
-52.38
-51.18
-46.37
-38.47
-28.62
-18.29
-8.84
-1.11
4.70
8.94
12.19
14.93
17.44
19.70
21.55
22.86
23.58
23.83
23.80
23.67
23.55
23.39
23.10
22.52
21.51
20.03
18.19
16.17
14.19
12.41
10.81
9.25
7.57
5.59
3.27
0.68
-2.04
-4.79
-7.52
-10.26
-13.06
-16.00
-19.14
-22.68
-26.82
-31.75
-37.36
-43.08
-47.81
-50.23
-49.19
-44.29
-35.99
-25.53
-14.48
-4.17
4.58
11.57
16.92
20.88
23.61
25.25
25.93
25.92
25.63
25.47
25.73
26.49
27.62
28.84
29.79
30.20
29.92
28.95
27.44
25.58
23.52
21.35
19.05
16.55
13.76
10.64
7.27
3.79
0.42
-2.63
-5.29
-7.61
-9.81
-12.19
-15.13
-18.93
-23.81
-29.71
-36.24
-42.61
-47.59
-49.91
-48.50
-42.96
-33.74
-22.07
-9.61
2.09
11.88
19.27
24.26
27.14
28.33
28.13
26.87
24.85
22.44
20.04
18.03
16.64
15.91
15.67
15.66
15.54
15.14
14.39
13.37
12.21
10.92
9.41
7.44
4.76
1.26
-2.93
-7.49
-11.94
-15.88
-19.04
-21.41
-23.22
-24.82
-26.68
-29.19
-32.57
-36.78
-41.38
-45.52
-48.10
-47.98
-44.49
-37.61
-28.09
-17.31
-6.77
2.27
9.09
13.57
16.00
16.82
16.47
15.36
13.87
12.43
11.46
11.26
11.89
13.20
14.80
16.30
17.39
17.93
17.98
17.62
16.96
15.96
14.56
12.66
10.29
7.58
4.75
2.04
-0.37
-2.43
-4.23
-5.96
-7.83
-10.09
-12.96
-16.57
-20.80
-25.27
-29.29
-31.89
-32.19
-29.65
-24.36
-16.96
-8.51
-0.16
7.23
13.18
17.63
20.78
22.92
24.25
24.92
24.95
24.40
23.35
21.98
20.47
19.01
17.71
16.58
15.58
14.70
13.94
13.36
12.98
12.65
12.05
10.80
8.59
5.36
1.38
-2.81
-6.68
-9.90
-12.53
-14.99
-17.88
-21.83
-27.12
-33.61
-40.61
-47.04
-51.58
-53.00
-50.57
-44.34
-35.13
-24.42
-13.85
-4.71
2.30
7.17
10.30
12.22
13.34
13.87
13.98
13.82
13.60
13.51
13.60
13.74
13.68
13.22
12.36
11.29
10.26
9.41
8.69
7.83
6.52
4.56
1.92
-1.24
-4.69
-8.18
-11.53
-14.68
-17.68
-20.75
-24.23
-28.48
-33.74
-39.87
-46.23
-51.75
-55.17
-55.49
-52.39
-46.32
-38.44
-30.15
-22.72
-16.89
-12.83
-10.23
-8.66
-7.73
-7.22
-7.05
-7.12
-7.28
-7.24
-6.69
-5.34
-3.10
-0.03
3.67
7.79
12.11
16.42
20.47
23.93
26.50
28.05
28.76
29.19
30.06
31.95
35.01
38.79
42.32
44.58
44.75
42.47
37.86
31.35
23.52
15.08
6.86
-0.21
-5.19
-7.41
-6.76
-3.80
0.33
4.36
7.27
8.67
8.83
8.39
8.05
8.34
9.36
10.99
12.97
15.08
17.30
19.72
22.53
25.77
29.34
32.86
35.75
37.26
36.72
33.63
27.91
19.85
10.17
-0.24
-10.47
-19.76
-27.65
-34.06
-39.18
-43.38
-46.94
-49.98
-52.23
-53.17
-52.06
-48.19
-41.13
-30.92
-18.18
-4.09
9.87
22.30
32.19
39.21
43.71
46.43
48.15
49.31
49.91
49.63
48.14
45.38
41.56
37.12
32.47
27.91
23.58
19.54
15.85
12.50
9.43
6.46
3.42
0.20
-3.00
-5.74
-7.41
-7.55
-6.02
-3.18
0.18
3.09
4.65
4.26
1.79
-2.36
-7.36
-12.12
-15.56
-16.87
-15.73
-12.41
-7.66
-2.51
2.01
5.09
6.35
5.82
3.89
1.15
-1.85
-4.69
-7.25
-9.57
-11.84
-14.16
-16.50
-18.60
-20.16
-20.90
-20.73
-19.80
-18.43
-17.09
-16.19
-16.02
-16.64
-17.90
-19.47
-21.03
-22.32
-23.27
-23.99
-24.80
-26.11
-28.33
-31.64
-35.82
-40.19
-43.58
-44.73
-42.67
-37.21
-29.07
-19.77
-11.05
-4.21
0.35
3.16
5.35
7.97
11.51
15.76
20.01
23.49
25.68
26.46
25.98
24.55
22.42
19.90
17.28
14.95
13.22
12.26
11.92
11.81
11.34
9.95
7.30
3.33
-1.62
-7.01
-12.20
-16.75
-20.51
-23.70
-26.79
-30.28
-34.43
-39.09
-43.67
-47.27
-48.94
-47.97
-44.11
-37.73
-29.65
-20.93
-12.61
-5.34
0.59
5.27
9.01
12.07
14.58
16.50
17.67
18.01
17.59
16.65
15.50
14.44
13.61
12.95
12.33
11.58
10.64
9.55
8.35
7.03
5.45
3.32
0.31
-3.78
-8.94
-14.86
-20.95
-26.56
-31.16
-34.61
-37.25
-39.76
-42.82
-46.72
-51.06
-54.76
-56.46
-54.92
-49.47
-40.14
-27.53
-12.60
3.57
19.87
35.15
48.38
58.81
66.28
71.21
74.42
76.67
78.36
79.56
80.31
81.05
82.71
86.26
92.17
99.85
107.67
113.57
115.85
113.85
107.88
98.92
87.86
75.26
61.46
46.83
32.07
18.09
5.80
-4.38
-12.59
-19.50
-25.92
-32.53
-39.66
-47.24
-54.84
-61.75
-67.11
-70.10
-70.15
-67.22
-61.87
-55.16
-48.31
-42.34
-37.65
-34.14
-31.26
-28.40
-25.25
-21.84
-18.50
-15.61
-13.39
-11.75
-10.47
-9.22
-7.87
-6.42
-5.00
-3.71
-2.53
-1.38
-0.16
1.12
2.30
3.15
3.40
2.84
1.35
-1.08
-4.32
-8.12
-12.11
-15.89
-19.15
-21.79
-23.97
-26.09
-28.60
-31.90
-36.19
-41.39
-47.24
-53.24
-58.70
-62.75
-64.52
-63.40
-59.27
-52.68
-44.70
-36.61
-29.38
-23.43
-18.55
-14.28
-10.17
-6.14
-2.49
0.35
2.11
2.85
3.02
3.26
4.13
5.82
8.08
10.30
11.88
12.62
12.94
13.88
16.62
21.98
29.87
39.33
48.97
57.64
64.97
71.24
77.09
83.03
89.24
95.68
102.21
108.65
114.69
119.77
123.15
124.20
122.67
118.82
113.13
105.74
95.89
82.03
62.37
35.87
3.30
-32.10
-64.68
-87.43
-94.01
-81.22
-50.74
-9.26
33.33
67.34
86.33
88.64
76.86
55.69
29.57
1.27
-28.02
-57.53
-85.81
-110.35
-128.30
-137.73
-138.63
-133.03
-124.37
-116.18
-110.85
-108.85
-108.99
-109.31
-108.17
-104.96
-100.07
-94.22
-87.76
-80.24
-70.70
-58.41
-43.42
-26.65
-9.75
5.71
18.79
29.32
37.78
44.80
50.91
56.42
61.53
66.40
71.18
75.81
79.74
81.95
81.18
76.42
67.32
54.44
38.97
22.38
6.04
-8.97
-21.85
-31.88
-38.57
-41.81
-42.06
-40.47
-38.49
-37.50
-38.43
-41.67
-47.21
-54.91
-64.45
-75.13
-85.71
-94.36
-99.21
-99.03
-93.82
-84.98
-74.77
-65.37
-57.96
-52.40
-47.47
-41.71
-34.18
-24.80
-14.31
-3.64
6.52
16.15
25.65
35.49
45.64
55.18
62.52
65.85
64.05
57.30
47.26
36.62
28.41
25.12
28.21
38.07
54.02
74.48
96.78
117.49
133.51
143.82
150.81
159.80
176.32
202.31
233.64
260.63
272.09
260.66
226.43
177.12
124.94
81.86
55.94
49.64
60.20
81.00
103.22
117.52
115.91
93.72
50.84
-8.35
-76.34
-144.87
-206.79
-257.22
-293.65
-315.63
-324.24
-321.63
-310.72
-294.61
-276.19
-257.64
-240.37
-224.75
-210.07
-194.99
-178.15
-159.00
-138.22
-117.54
-98.84
-83.32
-71.02
-60.99
-51.99
-43.25
-34.88
-27.64
-22.55
-20.21
-20.54
-22.80
-25.93
-29.06
-31.72
-33.85
-35.53
-36.67
-36.81
-35.15
-30.91
-23.65
-13.63
-1.75
10.63
22.14
31.74
38.96
43.91
47.04
48.92
49.92
50.21
49.85
48.88
47.51
46.01
44.65
43.50
42.47
41.38
40.12
38.75
37.41
36.23
35.08
33.64
31.45
28.20
23.85
18.74
13.37
8.23
3.54
-0.85
-5.39
-10.66
-17.04
-24.52
-32.49
-39.89
-45.39
-47.80
-46.44
-41.35
-33.30
-23.56
-13.45
-4.01
4.27
11.39
17.63
23.22
28.10
31.99
34.60
35.89
36.27
36.55
37.60
39.96
43.56
47.65
51.19
53.30
53.76
53.24
53.05
54.54
58.43
64.32
70.80
75.94
78.19
77.12
73.70
70.03
68.56
71.13
78.23
88.66
99.55
106.77
105.85
93.42
68.90
35.80
1.78
-23.06
-29.39
-12.27
26.61
79.00
132.77
176.01
200.62
204.10
189.13
161.74
129.05
97.60
72.33
56.19
49.93
52.00
58.90
65.88
68.10
62.00
46.26
22.12
-7.09
-37.00
-63.60
-84.24
-98.37
-107.26
-113.22
-118.55
-124.72
-132.05
-140.13
-148.55
-157.46
-167.80
-180.69
-196.88
-216.17
-237.54
-259.57
-280.89
-300.23
-315.98
-325.93
-327.34
-317.71
-295.79
-262.35
-220.25
-173.66
-126.99
-83.89
-46.78
-16.89
5.46
20.57
29.29
32.83
32.62
30.11
26.64
23.30
20.98
20.25
21.22
23.49
26.21
28.41
29.36
28.83
27.08
24.67
22.11
19.66
17.30
14.84
12.10
9.03
5.70
2.21
-1.38
-5.10
-8.89
-12.67
-16.39
-20.16
-24.36
-29.55
-36.33
-44.87
-54.59
-64.05
-71.08
-73.33
-68.95
-57.36
-39.55
-18.01
3.87
22.82
36.62
44.59
47.57
47.24
45.33
42.93
40.35
37.41
33.90
29.95
26.03
22.69
20.10
17.94
15.46
11.71
5.96
-2.19
-12.66
-24.74
-37.00
-47.22
-52.78
-51.50
-42.78
-28.29
-11.77
2.20
10.04
10.75
6.38
1.13
-0.36
5.02
17.91
36.43
57.26
77.03
93.45
105.86
114.97
122.17
128.64
134.96
140.92
146.09
150.29
153.79
157.17
160.79
164.39
167.17
168.22
167.13
164.38
161.19
158.99
158.78
160.73
164.29
168.61
173.02
177.33
181.51
185.24
187.35
185.85
178.45
163.43
140.57
111.37
78.51
44.95
12.92
-16.50
-43.20
-67.45
-89.44
-109.11
-126.31
-141.00
-153.26
-163.02
-169.79
-172.65
-170.62
-163.23
-151.03
-135.65
-119.38
-104.43
-92.16
-82.69
-75.11
-68.04
-60.29
-51.40
-41.62
-31.68
-22.31
-14.02
-6.96
-1.12
3.57
7.06
9.24
10.10
9.76
8.54
6.82
4.94
3.07
1.18
-0.90
-3.38
-6.35
-9.69
-13.10
-16.24
-18.97
-21.50
-24.39
-28.27
-33.54
-39.88
-46.25
-51.04
-52.56
-49.70
-42.28
-31.17
-17.91
-4.22
8.57
19.83
29.76
39.08
48.74
59.42
71.26
83.79
96.19
107.67
117.91
127.18
136.21
145.75
156.10
166.98
177.69
187.38
195.34
201.02
203.91
203.30
198.38
188.55
173.75
154.73
132.91
110.00
87.49
66.30
46.62
28.09
10.06
-8.00
-26.13
-43.68
-59.33
-71.41
-78.54
-80.13
-76.73
-69.92
-61.75
-54.16
-48.31
-44.53
-42.45
-41.38
-40.75
-40.25
-39.88
-39.79
-40.07
-40.66
-41.40
-42.05
-42.43
-42.45
-42.18
-41.76
-41.36
-41.13
-41.22
-41.74
-42.83
-44.50
-46.69
-49.19
-51.70
-53.94
-55.80
-57.35
-58.89
-60.80
-63.29
-66.29
-69.17
-70.94
-70.40
-66.62
-59.25
-48.80
-36.51
-23.94
-12.54
-3.26
3.63
8.31
11.21
12.66
12.91
12.11
10.48
8.34
6.06
3.96
2.23
0.85
-0.35
-1.58
-3.05
-4.83
-6.98
-9.56
-12.68
-16.52
-21.24
-26.86
-33.21
-39.96
-46.68
-53.10
-59.20
-65.24
-71.64
-78.72
-86.43
-94.14
-100.72
-104.68
-104.58
-99.27
-88.26
-71.83
-51.02
-27.44
-2.96
20.60
41.87
60.04
74.93
86.89
96.56
104.71
112.04
119.10
126.20
133.49
140.83
147.77
153.52
156.95
156.87
152.30
142.88
129.11
112.29
94.21
76.59
60.71
47.09
35.61
25.79
17.04
8.78
0.46
-8.49
-18.56
-29.93
-42.17
-54.09
-63.98
-70.16
-71.57
-68.23
-61.27
-52.42
-43.40
-35.35
-28.56
-22.67
-17.06
-11.32
-5.47
0.06
4.63
7.66
8.92
8.57
7.16
5.37
3.88
3.13
3.22
3.96
4.97
5.85
6.25
6.09
5.39
4.27
2.92
1.52
0.23
-0.89
-1.90
-2.98
-4.30
-5.94
-7.90
-10.08
-12.37
-14.64
-16.92
-19.38
-22.39
-26.08
-30.54
-35.59
-40.65
-44.78
-46.82
-45.74
-41.17
-33.53
-23.41
-11.83
0.15
11.80
22.90
33.66
44.29
54.54
63.68
72.01
79.80
87.62
96.01
105.43
116.06
127.45
138.25
146.52
152.49
156.83
160.84
165.83
172.72
182.11
193.67
205.71
215.32
221.53
223.07
219.42
210.86
199.24
188.48
183.43
187.86
186.99
170.42
132.80
75.86
4.51
-75.99
-159.25
-237.21
-301.02
-343.70
-360.34
-356.01
-337.36
-312.35
-288.24
-268.67
-253.60
-241.16
-229.62
-216.75
-202.15
-186.23
-167.76
-147.34
-125.58
-103.31
-81.98
-63.57
-48.76
-37.75
-29.59
-23.17
-17.75
-12.64
-7.65
-3.34
-0.78
-0.31
-1.79
-4.14
-6.17
-7.12
-6.52
-4.52
-1.95
-0.08
0.12
-1.77
-5.37
-9.80
-14.23
-17.83
-20.16
-21.30
-21.74
-22.20
-23.39
-25.74
-29.32
-33.83
-38.41
-41.83
-42.89
-40.90
-36.07
-29.57
-23.10
-18.33
-16.24
-16.88
-19.46
-22.94
-26.40
-29.40
-31.77
-33.33
-33.58
-31.82
-27.41
-20.20
-10.93
-1.02
7.83
14.30
18.00
19.51
20.06
21.03
23.34
27.26
32.45
38.26
43.93
48.72
51.98
53.16
51.89
48.07
42.10
34.83
27.45
21.19
17.03
15.38
15.96
17.83
19.76
20.59
19.62
16.82
12.77
8.38
4.49
1.67
0.02
-0.74
-1.07
-1.48
-2.36
-3.94
-6.24
-9.04
-12.00
-14.70
-16.77
-18.10
-18.86
-19.55
-20.80
-23.16
-26.83
-31.45
-36.09
-39.50
-40.47
-38.27
-32.90
-25.07
-15.95
-6.78
1.51
8.40
13.86
18.10
21.45
24.25
26.75
29.11
31.36
33.45
35.25
36.60
37.42
37.71
37.57
37.18
36.65
36.04
35.37
34.60
33.71
32.66
31.40
29.84
27.85
25.38
22.43
19.16
15.83
12.74
10.05
7.72
5.45
2.87
-0.31
-4.21
-8.69
-13.45
-18.09
-22.35
-26.15
-29.72
-33.46
-37.78
-42.92
-48.76
-54.78
-60.06
-63.59
-64.45
-62.22
-57.01
-49.45
-40.58
-31.64
-23.77
-17.72
-13.72
-11.44
-10.42
-10.06
-9.87
-9.66
-9.62
-10.23
-11.88
-14.66
-18.28
-22.49
-26.91
-30.97
-34.38
-37.31
-40.32
-44.04
-48.79
-54.41
-61.03
-68.47
-76.17
-83.68
-90.86
-97.92
-104.96
-111.82
-118.13
-124.21
-130.21
-135.31
-138.31
-137.96
-133.33
-124.21
-111.27
-91.09
-64.86
-37.48
-14.18
2.51
14.27
25.26
39.30
58.11
80.76
105.28
129.44
152.05
171.74
186.35
192.83
188.34
172.27
147.66
120.77
96.12
80.94
79.71
91.81
112.20
134.26
153.27
168.17
180.65
193.35
208.40
225.40
241.98
255.35
263.97
268.00
268.71
267.21
263.70
258.08
249.71
238.07
222.95
204.20
181.60
155.13
125.62
95.46
68.77
49.84
41.27
42.63
50.26
58.66
62.68
59.48
49.25
34.50
18.21
2.28
-13.00
-28.47
-44.95
-62.38
-79.69
-95.43
-108.60
-119.32
-128.63
-137.72
-147.17
-156.45
-164.22
-169.01
-169.94
-167.14
-161.58
-154.72
-147.88
-141.86
-136.80
-132.33
-127.83
-122.84
-117.27
-111.47
-106.02
-101.46
-98.04
-95.60
-93.75
-92.07
-90.32
-88.49
-86.76
-85.32
-84.27
-83.65
-83.52
-83.98
-85.07
-86.61
-87.97
-88.19
-86.16
-81.10
-72.98
-62.51
-51.20
-40.55
-31.52
-24.40
-18.93
-14.75
-11.58
-9.25
-7.75
-7.11
-7.20
-7.57
-7.62
-6.82
-5.03
-2.51
0.18
2.33
2.91
1.44
-1.73
-5.50
-8.73
-10.87
-12.15
-13.26
-15.12
-19.56
-27.30
-37.35
-47.34
-54.93
-59.08
-60.24
-59.71
-59.42
-63.53
-74.39
-91.01
-109.35
-124.74
-134.41
-137.91
-136.10
-131.34
-129.89
-135.60
-147.81
-161.59
-171.45
-174.74
-171.82
-164.35
-156.16
-157.14
-175.43
-213.74
-267.87
-329.11
-387.84
-434.96
-462.92
-435.85
-340.71
-195.52
-41.58
83.98
166.77
212.22
228.02
230.17
226.94
215.46
192.06
157.52
117.68
84.00
62.56
54.86
59.81
73.29
86.86
94.58
95.52
93.53
93.76
98.64
108.08
121.20
135.95
148.51
157.20
163.19
169.49
178.29
188.67
197.78
203.12
203.12
197.19
186.97
175.69
166.88
162.80
163.36
167.01
171.87
175.80
176.63
172.82
163.86
150.44
134.34
117.73
102.84
91.37
83.94
80.01
78.26
77.13
75.41
72.65
69.15
65.71
63.18
62.05
62.30
63.42
64.55
64.79
63.49
60.35
55.55
49.77
43.88
38.59
34.15
30.26
26.15
21.08
14.64
7.02
-1.04
-8.48
-14.30
-17.83
-18.87
-17.72
-15.08
-11.81
-8.60
-5.61
-2.37
2.16
8.99
18.34
29.09
38.69
43.94
42.03
31.79
14.15
-8.38
-32.74
-56.52
-78.63
-99.13
-118.49
-136.88
-154.04
-169.60
-183.63
-196.73
-209.36
-220.84
-228.90
-230.62
-224.25
-211.04
-195.41
-183.17
-178.43
-181.22
-187.06
-189.18
-181.82
-162.91
-134.58
-101.61
-68.83
-39.28
-13.94
7.23
24.22
36.38
42.91
43.78
40.40
35.27
31.21
30.22
32.70
37.48
42.52
45.87
46.59
45.04
42.53
40.62
40.20
41.16
42.52
43.03
41.96
39.47
36.51
34.18
33.14
33.20
33.69
34.07
34.59
36.10
39.33
43.71
46.97
45.40
35.09
13.16
-21.46
-67.76
-122.81
-181.63
-237.17
-280.75
-303.51
-299.24
-267.32
-214.32
-152.96
-98.46
-63.61
-54.72
-69.94
-100.81
-135.65
-163.68
-177.81
-175.64
-158.68
-130.51
-94.98
-55.14
-13.17
28.91
68.58
102.63
128.06
143.25
149.09
148.83
146.81
146.52
149.02
152.70
154.48
151.56
143.09
130.46
116.40
103.37
92.21
81.90
70.31
55.57
37.33
17.13
-1.98
-16.63
-24.43
-24.70
-18.56
-8.26
3.70
15.34
25.59
34.15
41.15
46.77
51.09
54.05
55.63
55.92
55.21
53.93
52.58
51.53
50.96
50.72
50.47
49.78
48.36
46.17
43.47
40.65
37.98
35.50
32.99
30.03
26.28
21.70
16.60
11.54
7.09
3.53
0.68
-1.99
-5.27
-9.85
-16.15
-24.08
-33.03
-41.81
-48.85
-52.54
-51.67
-45.82
-35.56
-22.32
-7.99
5.65
17.39
26.84
34.31
40.54
46.28
51.97
57.65
62.98
67.44
70.64
72.40
72.76
72.01
70.40
68.23
65.80
63.42
61.45
60.15
59.54
59.30
58.83
57.44
54.58
50.07
44.15
37.38
30.44
23.91
18.05
12.81
7.81
2.52
-3.58
-10.80
-19.05
-27.83
-36.12
-42.64
-46.09
-45.55
-40.80
-32.43
-21.75
-10.33
0.36
9.51
16.90
22.85
27.84
32.20
35.99
39.08
41.32
42.70
43.36
43.54
43.51
43.40
43.25
43.02
42.66
42.16
41.49
40.69
39.75
38.62
37.20
35.27
32.61
29.03
24.53
19.33
13.89
8.69
4.13
0.32
-2.92
-6.01
-9.47
-13.72
-19.03
-25.43
-32.67
-40.10
-46.71
-51.25
-52.59
-50.09
-43.93
-35.04
-24.87
-14.76
-5.62
2.27
9.12
15.32
21.18
26.83
32.23
37.27
41.78
45.60
48.55
50.53
51.58
51.90
51.75
51.39
50.93
50.45
49.89
49.16
48.07
46.34
43.67
39.85
34.93
29.24
23.37
17.81
12.84
8.37
4.09
-0.35
-5.04
-9.76
-14.19
-18.09
-21.54
-24.94
-28.95
-34.18
-40.98
-49.23
-58.28
-66.91
-73.65
-77.01
-75.98
-70.38
-60.91
-49.03
-36.42
-24.56
-14.33
-5.93
0.89
6.55
11.45
15.84
19.84
23.43
26.51
28.92
30.50
31.16
30.97
30.19
29.22
28.46
28.20
28.52
29.30
30.28
31.06
31.28
30.66
29.14
26.85
24.11
21.23
18.38
15.39
11.82
7.08
0.77
-7.13
-16.09
-25.30
-33.99
-41.69
-48.48
-54.83
-61.27
-68.12
-75.17
-81.75
-86.95
-89.67
-88.97
-84.10
-74.80
-61.42
-45.05
-27.19
-9.49
6.63
20.29
31.23
39.61
45.87
50.38
53.36
55.15
55.98
56.01
55.36
54.32
53.27
52.93
53.97
56.75
61.96
69.65
79.15
89.23
98.65
106.13
111.28
113.95
114.12
113.34
112.96
113.51
114.69
115.92
116.15
115.71
115.11
114.61
116.58
122.47
131.92
143.01
153.54
161.07
165.85
168.73
170.16
173.04
178.90
186.87
194.39
199.11
198.80
195.15
190.95
169.21
122.57
54.82
-21.33
-92.96
-144.55
-182.27
-213.14
-241.19
-267.47
-289.48
-303.16
-306.78
-301.81
-291.49
-280.34
-269.45
-258.68
-247.57
-233.51
-214.96
-192.66
-169.16
-147.30
-130.03
-117.35
-108.32
-101.97
-95.95
-88.39
-78.73
-67.67
-56.58
-47.54
-41.34
-38.40
-38.88
-41.86
-46.22
-51.21
-56.62
-62.49
-69.03
-75.58
-81.13
-84.60
-84.76
-80.75
-72.39
-60.20
-45.24
-28.91
-12.52
2.77
16.08
26.91
35.20
41.20
45.25
47.75
49.03
49.41
49.23
48.78
48.25
47.61
46.69
45.27
43.22
40.66
37.92
35.45
33.62
32.53
32.02
31.74
31.26
30.27
28.63
26.34
23.50
20.24
16.63
12.73
8.59
4.32
0.04
-4.05
-7.83
-11.29
-14.52
-17.70
-21.11
-25.03
-29.65
-34.91
-40.42
-45.46
-49.08
-50.35
-48.67
-43.90
-36.53
-27.53
-18.03
-9.13
-1.57
4.21
8.17
10.51
11.57
11.64
10.95
9.80
8.52
7.49
7.08
7.55
8.98
11.13
13.26
14.53
14.43
13.14
11.46
10.43
10.87
13.10
16.60
19.67
20.51
17.97
12.35
5.27
-1.16
-4.98
-5.06
-1.63
2.95
5.87
5.02
0.04
-7.64
-16.09
-23.45
-28.32
-30.43
-31.70
-34.20
-39.52
-48.27
-60.39
-76.22
-95.61
-116.84
-129.62
-124.42
-96.40
-50.45
0.48
41.99
63.60
60.89
39.04
5.96
-32.14
-70.23
-104.78
-133.53
-150.44
-152.70
-140.38
-116.16
-80.60
-40.44
-3.87
23.29
40.28
50.67
58.64
67.29
77.54
89.49
101.01
110.14
115.74
117.72
116.76
113.39
107.48
99.62
90.51
79.84
67.72
54.68
41.79
30.35
21.27
15.17
12.42
12.63
14.35
16.11
16.77
15.84
13.32
9.31
4.03
-2.18
-8.96
-16.05
-22.84
-28.45
-32.01
-33.10
-31.97
-29.42
-26.38
-23.59
-21.48
-20.05
-18.96
-17.87
-16.62
-15.28
-13.99
-12.88
-12.02
-11.38
-10.87
-10.39
-9.85
-9.22
-8.58
-8.11
-8.02
-8.46
-9.42
-10.68
-11.86
-12.54
-12.45
-11.48
-9.70
-7.31
-4.45
-1.17
2.62
7.08
12.31
18.28
24.82
31.62
38.46
45.25
52.07
58.98
65.81
71.92
76.28
77.63
74.99
68.08
57.47
44.52
30.92
18.17
7.20
-1.74
-8.87
-14.57
-19.10
-22.50
-24.67
-25.61
-25.58
-25.12
-24.84
-25.17
-26.14
-27.33
-27.98
-27.19
-24.22
-18.70
-10.73
-0.97
9.55
19.50
27.58
32.76
34.55
33.14
29.35
24.29
19.07
14.50
11.03
8.77
7.70
7.71
8.69
10.35
12.25
13.90
14.94
15.31
15.30
15.36
15.81
16.59
17.28
17.28
16.13
13.76
10.56
7.23
4.55
3.03
2.78
3.45
4.40
4.95
4.65
3.49
1.91
0.67
0.59
2.28
5.98
11.59
18.78
27.10
36.05
45.15
53.90
61.89
68.79
74.29
78.06
79.65
78.59
74.60
67.91
59.47
50.80
43.46
38.29
34.78
31.10
24.67
13.15
-4.60
-28.17
-55.89
-85.68
-115.79
-145.28
-173.88
-201.49
-227.71
-251.53
-271.35
-285.26
-291.51
-288.97
-277.48
-258.17
-233.39
-206.46
-181.07
-160.59
-147.37
-142.28
-144.51
-151.73
-160.61
-167.69
-170.36
-167.69
-160.70
-151.85
-143.95
-138.89
-136.84
-136.33
-135.19
-131.90
-126.61
-121.26
-118.78
-121.67
-130.60
-143.67
-156.72
-164.50
-162.42
-148.11
-122.44
-89.44
-55.67
-28.75
-15.16
-18.01
-35.46
-60.74
-84.08
-96.33
-92.47
-73.45
-45.28
-15.65
9.98
30.99
51.32
76.97
112.53
158.79
212.35
267.21
316.98
356.78
383.94
397.75
398.67
387.64
365.76
334.54
296.34
254.65
213.64
177.52
149.29
129.83
117.65
109.64
102.41
93.62
82.82
71.23
60.90
53.45
49.24
47.30
45.86
43.40
39.30
34.07
28.85
24.71
21.90
19.83
17.37
13.63
8.40
2.41
-3.06
-6.83
-8.25
-7.46
-5.18
-2.23
0.74
3.51
6.12
8.70
11.33
14.01
16.67
19.19
21.41
23.13
24.05
23.92
22.64
20.39
17.52
14.49
11.60
8.84
5.89
2.23
-2.69
-9.14
-16.96
-25.38
-33.18
-38.87
-41.21
-39.52
-33.99
-25.62
-15.89
-6.32
2.04
8.80
14.13
18.48
22.28
25.65
28.41
30.29
31.13
31.07
30.55
30.07
30.06
30.58
31.43
32.23
32.74
32.89
32.86
32.88
33.04
33.13
32.79
31.61
29.37
26.19
22.45
18.69
15.26
12.24
9.37
6.20
2.33
-2.45
-8.12
-14.38
-20.79
-26.79
-31.83
-35.51
-37.77
-38.95
-39.83
-41.39
-44.45
-49.23
-55.10
-60.70
-64.19
-63.89
-58.81
-48.92
-35.17
-19.18
-2.76
12.42
25.21
34.96
41.55
45.28
46.78
46.97
46.92
47.68
50.05
54.40
60.52
67.69
74.86
80.95
85.08
86.75
85.89
82.72
77.66
71.16
63.66
55.62
47.53
39.87
33.09
27.52
23.28
20.31
18.39
17.29
16.77
16.65
16.75
16.78
16.32
14.85
11.82
6.88
-0.02
-8.54
-17.95
-27.19
-35.09
-40.55
-42.81
-41.54
-37.03
-30.00
-21.52
-12.68
-4.27
3.36
10.31
17.04
24.00
31.37
38.98
46.30
52.65
57.43
60.30
61.28
60.62
58.69
55.89
52.51
48.79
44.91
41.06
37.45
34.28
31.68
29.62
27.89
26.19
24.19
21.69
18.68
15.28
11.66
7.95
4.17
0.17
-4.23
-9.24
-14.98
-21.43
-28.41
-35.60
-42.56
-48.78
-53.69
-56.72
-57.45
-55.64
-51.48
-45.54
-38.78
-32.23
-26.70
-22.59
-19.78
-17.82
-16.12
-14.26
-12.07
-9.64
-7.25
-5.15
-3.52
-2.39
-1.68
-1.24
-0.91
-0.65
-0.47
-0.41
-0.51
-0.78
-1.14
-1.57
-2.09
-2.81
-3.95
-5.69
-8.14
-11.29
-14.92
-18.69
-22.24
-25.32
-27.80
-29.77
-31.37
-32.83
-34.36
-36.16
-38.39
-41.13
-44.21
-47.13
-49.03
-48.94
-46.15
-40.53
-32.65
-23.61
-14.62
-6.60
-0.01
5.17
9.20
12.36
14.84
16.79
18.28
19.45
20.44
21.35
22.20
23.00
23.68
24.12
24.22
23.83
22.94
21.65
20.22
18.95
18.03
17.41
16.76
15.62
13.64
10.84
7.63
4.62
2.36
1.00
0.19
-0.67
-2.26
-4.97
-8.84
-13.56
-18.63
-23.38
-27.13
-29.19
-29.01
-26.35
-21.39
-14.71
-7.17
0.36
7.25
13.15
17.99
21.82
24.71
26.67
27.70
27.76
26.89
25.21
22.91
20.25
17.51
14.88
12.51
10.40
8.45
6.47
4.26
1.66
-1.36
-4.69
-8.15
-11.50
-14.63
-17.54
-20.32
-23.06
-25.70
-28.12
-30.09
-31.54
-32.55
-33.41
-34.47
-36.00
-38.07
-40.49
-42.95
-45.14
-46.82
-47.75
-47.67
-46.21
-42.99
-37.77
-30.73
-22.45
-13.86
-5.94
0.63
5.64
9.31
12.15
14.60
16.91
19.11
21.06
22.62
23.70
24.35
24.69
24.88
25.07
25.36
25.75
26.16
26.45
26.50
26.23
25.68
24.92
24.00
22.86
21.35
19.28
16.50
13.04
9.01
4.65
0.17
-4.23
-8.41
-12.22
-15.54
-18.35
-20.78
-23.15
-25.85
-29.23
-33.48
-38.52
-44.03
-49.47
-54.16
-57.45
-58.76
-57.85
-54.76
-49.88
-43.73
-36.86
-29.64
-22.25
-14.74
-7.22
0.06
6.73
12.38
16.76
19.80
21.70
22.79
23.46
24.02
24.60
25.24
25.77
26.02
25.81
25.00
23.50
21.31
18.47
15.08
11.36
7.59
4.11
1.19
-1.06
-2.81
-4.43
-6.37
-8.92
-12.09
-15.59
-18.98
-21.91
-24.24
-26.16
-28.03
-30.23
-33.00
-36.28
-39.78
-42.90
-44.99
-45.37
-43.61
-39.65
-33.86
-26.99
-19.90
-13.32
-7.65
-2.91
1.17
4.90
8.47
11.86
14.87
17.31
19.08
20.29
21.20
22.04
22.93
23.79
24.40
24.54
24.13
23.26
22.12
20.88
19.62
18.27
16.73
15.01
13.20
11.51
10.13
9.17
8.54
8.02
7.33
6.20
4.48
2.15
-0.64
-3.61
-6.48
-9.00
-11.10
-12.91
-14.75
-17.01
-19.97
-23.60
-27.48
-30.91
-32.99
-33.00
-30.60
-25.99
-19.80
-12.95
-6.32
-0.55
4.10
7.70
10.50
12.87
15.07
17.26
19.41
21.41
23.14
24.52
25.57
26.36
26.98
27.53
28.06
28.59
29.10
29.58
29.98
30.26
30.35
30.22
29.78
28.96
27.69
25.95
23.78
21.29
18.67
16.13
13.79
11.64
9.50
7.12
4.29
0.94
-2.78
-6.58
-10.15
-13.30
-16.04
-18.55
-21.10
-23.90
-27.01
-30.38
-33.89
-37.37
-40.62
-43.31
-44.95
-44.97
-42.94
-38.73
-32.70
-25.61
-18.42
-11.99
-6.79
-2.83
0.15
2.52
4.58
6.44
8.12
9.53
10.67
11.58
12.30
