1565021921.00
64.000000
-0.00
-0.00
-0.00
-0.00
-0.00
-0.00
-0.00
-0.00
-0.00
-0.00
0.00
0.01
0.01
-0.00
-0.03
-0.05
-0.05
0.00
0.13
0.36
0.66
1.01
1.37
1.72
2.06
2.40
2.79
3.24
3.80
4.42
5.06
5.66
6.20
6.68
7.15
7.68
8.31
9.14
10.09
11.04
11.88
12.56
13.14
13.76
14.65
15.96
17.91
20.32
22.90
25.38
27.58
29.57
31.68
34.32
37.81
42.54
48.15
54.10
59.83
64.97
69.58
74.14
79.34
85.71
93.76
103.00
112.62
121.73
129.77
136.75
143.30
150.75
157.77
166.64
177.95
191.79
206.97
220.57
228.25
225.36
208.53
176.87
132.76
80.05
23.07
-34.94
-92.44
-149.16
-205.23
-260.37
-313.74
-363.87
-409.83
-450.89
-486.47
-515.69
-537.16
-549.12
-549.83
-538.19
-513.98
-478.40
-433.54
-382.05
-326.56
-269.32
-212.04
-156.00
-102.22
-51.56
-5.02
36.55
72.49
102.51
126.77
145.76
160.21
170.81
178.18
182.74
184.75
184.46
182.14
178.13
172.84
166.69
160.02
153.08
146.01
138.90
131.77
124.68
117.69
110.86
104.26
97.96
91.97
86.31
81.00
76.04
71.44
67.22
63.37
59.91
56.85
54.17
51.88
49.97
48.43
47.25
46.38
45.74
45.24
44.74
44.08
43.08
41.57
39.38
36.39
32.55
27.88
22.44
16.41
10.02
3.52
-2.80
-8.68
-13.87
-18.19
-21.54
-23.87
-25.22
-25.72
-25.51
-24.77
-23.68
-22.36
-20.89
-19.31
-17.57
-15.60
-13.32
-10.60
-7.37
-3.57
0.72
5.39
10.18
14.87
19.19
22.87
25.65
27.42
28.15
28.02
27.33
26.56
26.29
27.11
29.37
33.22
38.62
45.29
52.85
60.79
68.68
76.16
83.04
89.04
93.90
97.50
99.82
100.94
101.07
100.52
99.80
99.55
100.08
101.19
102.39
102.89
101.69
97.79
90.40
78.94
65.44
51.35
37.02
22.44
7.23
-9.10
-26.72
-45.12
-63.03
-78.55
-89.87
-96.95
-100.73
-103.09
-106.28
-112.28
-122.07
-135.43
-151.16
-168.01
-187.04
-210.56
-241.65
-283.30
-337.53
-404.94
-485.01
-576.42
-665.34
-738.32
-781.99
-785.96
-746.01
-666.19
-558.01
-437.59
-321.13
-220.08
-141.18
-84.90
-47.63
-24.51
-11.48
-4.97
-1.39
1.40
8.80
24.43
50.01
84.93
126.95
172.70
219.92
267.62
313.98
357.81
396.75
428.22
449.70
459.29
455.64
439.52
413.20
379.74
342.83
304.86
267.00
229.40
195.13
162.68
130.69
98.59
66.42
35.17
5.49
-22.24
-47.94
-71.75
-94.47
-116.37
-137.45
-157.85
-177.36
-196.03
-213.84
-230.51
-245.36
-257.88
-266.89
-270.56
-269.47
-263.64
-253.39
-239.04
-220.63
-197.85
-170.59
-138.69
-101.47
-59.31
-13.28
34.68
82.79
130.10
176.76
223.46
270.89
320.58
372.32
424.23
472.57
513.60
544.64
564.92
575.93
581.19
587.64
600.93
623.57
652.61
681.05
700.12
702.48
684.68
632.80
542.73
419.06
275.51
130.56
2.69
-96.06
-163.23
-204.79
-230.83
-248.33
-260.98
-265.77
-263.92
-258.12
-251.73
-246.93
-243.18
-237.52
-224.77
-205.29
-181.67
-160.41
-147.43
-144.78
-149.40
-154.74
-154.48
-145.29
-129.10
-112.99
-105.90
-113.44
-135.79
-167.66
-200.57
-225.41
-235.18
-228.65
-209.53
-184.30
-157.57
-130.85
-103.48
-75.10
-47.34
-23.69
-8.50
-4.26
-11.62
-28.46
-50.32
-71.51
-86.07
-88.92
-77.40
-52.08
-15.07
26.33
63.59
90.37
104.57
108.51
107.17
105.56
106.16
107.96
106.34
95.56
71.24
32.33
-18.28
-74.73
-129.98
-177.55
-211.90
-228.66
-224.44
-198.04
-152.26
-94.58
-35.88
13.11
45.76
61.52
65.31
64.70
66.27
73.16
83.79
92.49
91.47
73.74
36.67
-15.60
-71.95
-117.61
-140.12
-134.48
-105.13
-63.44
-22.16
9.96
30.52
42.08
48.63
52.44
53.23
49.71
41.76
31.48
22.50
18.19
19.61
24.98
30.76
33.14
29.96
21.55
10.39
-0.05
-6.93
-9.25
-8.13
-6.27
-6.69
-11.46
-20.88
-33.46
-46.64
-57.93
-65.91
-70.86
-74.56
-79.59
-88.11
-100.96
-117.19
-134.28
-149.05
-158.68
-161.73
-158.38
-150.05
-138.42
-124.45
-107.86
-87.29
-60.93
-27.17
14.80
64.70
120.57
178.08
230.38
268.82
284.79
272.65
232.59
171.83
103.11
40.52
-5.32
-30.42
-37.32
-32.15
-20.70
-5.84
12.47
35.06
61.43
89.07
114.73
136.38
154.22
170.06
185.26
199.00
208.16
208.97
199.22
179.55
152.98
123.27
93.38
64.55
36.82
10.25
-14.14
-34.19
-47.47
-52.37
-49.14
-40.15
-29.40
-21.35
-19.49
-25.16
-36.99
-51.57
-64.56
-72.57
-74.60
-72.54
-70.61
-73.86
-86.43
-109.77
-141.52
-175.11
-200.71
-208.01
-190.24
-147.58
-88.16
-25.84
24.85
53.97
59.41
46.39
24.05
1.27
-16.22
-26.17
-28.68
-24.65
-15.16
-1.36
14.98
31.38
44.89
52.24
50.37
36.78
10.47
-26.80
-69.76
-110.05
-138.70
-149.72
-143.43
-127.18
-112.52
-109.53
-121.55
-143.16
-162.86
-169.16
-156.51
-127.80
-92.03
-58.80
-33.26
-14.41
2.59
22.19
45.18
68.55
87.99
101.10
108.87
114.71
121.94
131.48
141.16
146.82
144.46
132.26
111.48
86.16
61.57
42.71
33.14
34.60
46.83
67.63
93.00
117.85
137.43
148.99
152.98
152.65
152.37
155.28
161.46
167.79
169.52
162.71
146.06
121.43
92.97
65.34
42.07
24.72
12.81
4.39
-3.10
-12.10
-24.44
-41.28
-63.28
-90.72
-123.36
-159.57
-195.46
-224.66
-239.64
-234.56
-208.44
-166.68
-119.62
-78.63
-51.66
-40.85
-43.29
-54.05
-69.28
-87.19
-106.48
-123.96
-133.63
-128.43
-103.91
-61.32
-8.11
44.83
87.42
113.58
122.05
114.95
95.63
67.44
33.60
-2.28
-36.02
-63.16
-79.79
-83.20
-72.44
-48.70
-15.51
20.97
52.69
71.38
71.29
51.57
17.43
-21.15
-52.88
-68.83
-65.22
-43.75
-10.11
28.24
63.61
88.96
98.62
89.67
64.00
29.11
-3.65
-23.60
-25.84
-13.79
3.04
14.66
16.46
11.34
6.99
10.14
21.66
35.78
43.48
37.90
17.99
-11.30
-41.83
-65.97
-78.96
-79.33
-68.02
-47.59
-21.58
5.90
30.39
47.41
52.91
44.19
20.71
-15.25
-58.48
-101.54
-136.38
-156.52
-159.01
-145.57
-121.84
-95.80
-74.85
-63.47
-61.76
-65.63
-68.37
-62.70
-43.48
-9.57
35.34
83.66
126.37
156.25
170.64
172.00
166.77
161.75
160.74
162.64
161.96
151.62
126.54
86.67
37.68
-10.38
-46.53
-62.53
-55.83
-30.48
3.94
35.25
52.58
49.81
27.74
-6.11
-40.28
-63.65
-69.86
-59.56
-39.66
-19.67
-7.11
-4.30
-8.28
-13.89
-17.61
-19.58
-22.56
-28.82
-37.19
-42.93
-40.46
-27.37
-6.64
14.54
28.78
32.82
29.23
24.46
24.26
29.68
36.21
36.66
25.82
4.08
-22.23
-44.10
-54.37
-51.12
-37.89
-21.02
-5.93
5.24
13.62
21.39
29.21
34.86
34.07
23.04
1.13
-27.58
-55.03
-72.06
-72.20
-54.76
-25.48
5.61
28.44
37.14
32.27
19.91
8.03
2.07
2.45
5.36
6.02
2.50
-2.61
-3.64
4.37
22.06
44.52
63.34
70.67
63.19
43.72
19.79
0.09
-9.61
-8.85
-2.32
2.42
-1.70
-18.68
-48.34
-86.91
-128.85
-168.84
-203.04
-229.41
-247.08
-255.47
-253.64
-240.57
-216.32
-183.29
-146.40
-112.01
-85.89
-71.26
-68.08
-74.05
-86.53
-103.95
-125.91
-152.00
-179.74
-204.57
-220.80
-223.48
-210.12
-181.25
-139.65
-89.04
-33.03
25.18
82.50
136.04
183.20
222.05
251.54
271.67
283.33
287.87
286.75
281.18
272.06
259.99
245.45
228.93
211.09
192.74
174.67
157.47
141.48
126.69
112.92
99.91
87.48
75.63
64.50
54.29
45.13
37.05
29.95
23.65
17.98
12.81
8.11
3.91
0.24
-2.86
-5.43
-7.57
-9.36
-10.88
-12.17
-13.26
-14.13
-14.78
-15.20
-15.43
-15.52
-15.53
-15.47
-15.35
-15.12
-14.71
-14.05
-13.15
-11.96
-10.68
-9.48
-8.45
-7.61
-6.87
-6.07
-5.09
-3.86
-2.45
-1.03
0.21
1.15
1.81
2.38
3.19
4.51
6.46
8.85
11.25
13.18
14.28
14.60
14.64
15.19
16.91
20.07
24.25
28.45
31.61
32.98
32.72
31.98
32.37
35.22
40.90
48.35
55.32
59.30
58.32
51.85
41.07
28.11
15.04
2.80
-9.18
-22.60
-38.53
-57.80
-80.05
-104.01
-127.99
-149.28
-164.14
-167.94
-157.37
-131.66
-95.90
-60.27
-36.54
-33.24
-50.65
-81.27
-112.99
-134.50
-139.72
-129.48
-109.06
-83.74
-58.24
-33.85
-10.44
11.66
30.76
44.73
51.89
52.64
48.93
43.19
37.90
34.06
31.41
28.93
25.67
21.00
15.25
9.20
3.59
-0.88
-4.36
-7.91
-13.08
-20.89
-30.62
-39.12
-41.65
-33.84
-14.01
15.26
47.76
76.15
94.95
102.52
101.01
94.46
86.53
79.18
72.67
66.71
61.44
57.67
56.19
56.91
58.62
59.55
58.37
54.82
50.06
46.00
44.32
45.62
49.09
53.00
55.57
55.69
53.52
50.25
47.54
46.96
49.61
55.71
64.13
72.14
75.73
70.71
54.66
28.50
-3.22
-33.79
-57.02
-69.69
-72.51
-68.99
-63.47
-58.95
-56.26
-54.76
-53.60
-52.71
-52.78
-54.47
-57.64
-61.11
-63.15
-62.26
-57.84
-50.50
-41.73
-33.24
-26.29
-21.34
-18.03
-15.43
-12.71
-9.48
-5.87
-2.40
0.28
1.83
2.31
2.16
2.06
2.55
3.76
5.55
7.56
9.36
10.72
11.64
12.31
13.01
13.96
15.24
16.82
18.55
20.24
21.82
23.29
24.73
26.30
28.08
30.18
32.72
35.76
39.24
43.09
47.13
51.03
54.40
56.69
57.37
56.01
52.30
46.13
37.66
27.25
15.47
3.30
-8.61
-19.56
-28.94
-36.39
-41.76
-45.12
-46.67
-46.95
-46.05
-44.34
-42.14
-39.70
-37.23
-34.92
-32.80
-30.91
-29.22
-27.54
-25.88
-24.21
-22.53
-20.91
-19.46
-18.23
-17.23
-16.41
-15.57
-14.64
-13.54
-12.34
-11.20
-10.43
-10.23
-10.62
-11.41
-12.17
-12.54
-12.30
-11.58
-10.84
-10.66
-11.50
-13.45
-16.09
-18.72
-20.63
-21.40
-21.22
-20.80
-21.05
-22.75
-26.07
-30.58
-35.20
-39.06
-41.42
-42.26
-42.07
-41.71
-42.17
-44.62
-50.07
-58.85
-69.72
-79.30
-82.68
-75.37
-55.63
-26.07
6.80
35.10
53.01
58.91
55.53
48.05
41.02
36.54
34.56
34.44
36.47
42.18
52.46
65.72
78.03
84.47
81.89
70.60
54.24
37.62
23.89
13.14
3.57
-6.17
-15.12
-20.20
-17.92
-8.34
5.11
16.85
22.08
19.29
10.60
0.06
-8.82
-14.65
-18.47
-21.83
-25.43
-28.69
-30.42
-29.91
-27.98
-26.22
-26.29
-29.25
-34.40
-39.60
-42.52
-41.62
-36.74
-29.05
-20.13
-10.75
-0.54
12.31
29.95
53.90
84.19
119.34
156.38
190.92
217.58
230.69
226.23
203.12
164.34
116.11
65.93
19.89
-19.16
-51.46
-80.05
-107.60
-134.07
-155.81
-167.27
-163.81
-144.65
-113.73
-78.43
-46.84
-24.40
-12.36
-8.04
-7.33
-7.16
-6.87
-7.73
-11.15
-17.43
-24.55
-29.76
-31.15
-28.80
-24.77
-21.94
-22.71
-27.73
-35.81
-44.42
-51.12
-54.59
-55.17
-54.61
-55.21
-58.69
-65.51
-74.64
-84.14
-92.24
-97.97
-101.47
-103.78
-105.99
-108.26
-109.67
-108.49
-102.28
-89.48
-69.72
-43.50
-11.56
25.21
65.19
104.58
137.89
159.10
163.87
151.57
125.74
92.67
58.92
29.91
8.84
-1.63
0.60
16.12
42.41
72.51
97.18
108.03
101.52
80.26
52.19
26.50
10.32
6.72
14.45
29.39
44.71
54.01
51.27
33.52
2.74
-33.11
-62.66
-75.44
-66.54
-39.07
-2.35
32.25
57.09
69.35
71.34
67.84
61.63
53.29
41.99
27.47
10.95
-4.69
-16.48
-22.87
-24.44
-23.43
-22.24
-22.28
-23.06
-23.72
-21.56
-15.19
-4.88
7.47
19.05
27.35
31.07
30.56
27.22
23.26
20.30
19.07
19.31
20.45
21.14
20.66
19.02
16.66
14.47
13.07
12.65
13.03
13.79
14.40
14.63
14.49
14.15
14.02
14.35
15.21
16.55
18.16
19.74
20.97
21.76
21.44
19.69
16.38
11.54
5.44
-1.52
-8.86
-16.04
-22.65
-28.35
-32.81
-35.76
-37.03
-36.50
-34.25
-30.47
-25.58
-20.21
-15.13
-10.93
-7.97
-6.35
-5.91
-6.37
-7.34
-8.75
-10.75
-13.54
-17.06
-20.74
-23.60
-24.57
-22.74
-17.59
-9.74
-0.76
7.62
14.10
18.46
21.50
24.67
29.44
36.99
46.81
56.98
65.30
70.02
70.58
67.62
62.49
56.88
53.11
52.66
56.14
62.96
70.85
75.79
72.99
58.66
28.43
-12.55
-54.09
-85.99
-102.49
-103.99
-95.53
-83.42
-72.05
-62.71
-53.92
-44.62
-35.22
-27.38
-22.63
-21.28
-22.18
-23.30
-22.64
-18.78
-12.22
-4.66
1.85
5.95
7.54
7.61
7.78
9.56
14.05
21.00
29.37
37.66
44.67
49.85
53.06
54.65
54.81
53.59
50.57
45.25
37.13
26.16
13.49
0.12
-12.74
-24.09
-33.17
-39.82
-44.13
-46.74
-48.35
-49.22
-49.56
-49.33
-48.39
-46.44
-44.20
-40.71
-35.76
-29.65
-22.51
-14.80
-7.14
-0.22
5.37
8.95
10.23
10.00
7.59
3.36
-2.03
-7.69
-12.85
-16.85
-19.63
-21.32
-22.30
-23.15
-24.08
-25.04
-25.85
-26.21
-25.96
-25.49
-25.42
-26.25
-28.38
-31.53
-34.83
-37.07
-37.95
-36.02
-31.37
-25.08
-18.55
-13.31
-10.14
-9.10
-9.67
-11.38
-13.84
-16.62
-21.04
-27.80
-37.21
-49.25
-63.76
-80.22
-97.05
-110.91
-117.39
-112.41
-94.20
-65.13
-31.45
-1.14
19.23
27.02
24.18
15.42
5.57
-2.32
-7.57
-10.94
-13.09
-13.48
-10.61
-2.81
10.66
29.37
51.71
75.00
96.38
113.38
124.43
128.91
127.30
120.80
111.08
99.82
88.95
80.62
76.71
77.83
82.21
85.83
82.97
70.71
49.61
24.10
0.56
-15.63
-22.57
-22.15
-18.37
-14.68
-12.14
-9.89
-6.46
-1.43
3.82
7.00
6.48
2.51
-2.81
-6.41
-6.02
-1.10
6.88
15.07
20.41
20.88
15.56
4.72
-10.41
-27.68
-43.91
-55.23
-58.20
-51.43
-36.42
-18.18
-2.64
5.78
5.88
-0.30
-9.06
-17.26
-23.62
-28.75
-33.84
-39.28
-44.20
-47.29
-47.79
-46.14
-43.91
-42.75
-44.04
-47.96
-53.74
-59.76
-64.65
-67.58
-68.48
-67.72
-65.83
-62.76
-57.93
-50.38
-39.15
-23.76
-4.52
17.49
40.33
62.22
81.80
98.32
111.60
121.84
129.37
134.49
137.66
138.97
137.77
133.74
126.75
116.84
104.17
89.01
71.83
52.59
32.66
13.09
-5.10
-21.09
-34.37
-44.78
-52.55
-58.09
-61.91
-64.33
-65.65
-65.97
-65.39
-64.15
-62.70
-61.65
-61.49
-62.54
-64.59
-67.21
-69.65
-71.34
-72.00
-71.74
-70.96
-69.79
-67.86
-64.10
-57.15
-45.66
-29.01
-7.72
16.46
40.63
62.49
80.42
94.00
103.75
110.74
116.07
120.82
126.28
132.52
138.74
142.35
139.37
125.87
100.21
64.64
25.10
-10.83
-37.13
-51.40
-55.39
-53.34
-49.41
-45.84
-42.72
-39.19
-34.86
-30.46
-27.28
-26.22
-27.10
-28.68
-29.41
-28.06
-24.49
-19.61
-14.84
-11.38
-9.76
-9.60
-9.92
-9.63
-8.04
-5.15
-1.51
2.03
4.79
6.60
7.74
8.75
10.11
12.03
14.44
17.20
20.19
23.43
27.13
31.34
35.87
39.91
42.42
42.37
39.20
32.90
24.05
13.48
1.82
-10.68
-24.20
-39.22
-55.84
-73.30
-90.13
-104.35
-114.33
-119.72
-120.04
-116.09
-108.96
-99.72
-89.41
-79.15
-69.80
-61.39
-52.60
-40.74
-23.20
0.89
29.42
57.61
79.15
89.73
88.70
78.86
64.95
50.99
39.05
29.24
20.96
14.14
9.56
8.16
9.86
13.42
16.52
17.17
14.49
9.32
3.81
0.16
-0.47
1.44
4.12
5.42
3.75
-0.84
-6.75
-11.44
-12.28
-7.23
4.72
23.24
46.12
69.20
87.07
94.41
88.98
72.79
51.63
32.77
21.72
20.09
25.44
33.36
39.94
43.54
44.52
43.79
41.37
35.98
25.78
9.68
-11.31
-34.54
-56.43
-73.73
-84.82
-89.89
-90.53
-88.89
-86.49
-83.60
-79.45
-72.87
-63.17
-50.99
-37.97
-26.35
-18.10
-13.96
-13.60
-16.55
-22.75
-32.40
-45.39
-59.70
-70.49
-73.51
-66.08
-48.93
-26.58
-5.05
11.33
21.18
25.90
27.54
26.13
19.70
6.08
-14.68
-38.72
-58.84
-68.71
-65.51
-51.23
-31.40
-11.81
3.89
14.94
22.59
28.30
32.10
32.88
28.97
19.69
6.83
-5.13
-11.03
-6.85
8.23
30.60
53.95
71.47
79.08
77.21
70.14
63.33
60.80
63.64
70.13
77.73
84.09
88.25
90.43
90.92
89.37
84.84
76.32
61.97
43.58
23.30
3.53
-13.63
-26.94
-36.32
-42.45
-46.41
-49.14
-50.72
-51.04
-49.63
-46.31
-41.20
-34.97
-28.46
-22.53
-17.87
-14.51
-12.36
-11.16
-10.67
-10.74
-11.40
-12.81
-15.12
-18.36
-22.32
-26.81
-31.57
-36.18
-40.07
-42.57
-43.07
-41.03
-36.00
-27.79
-16.80
-3.95
9.60
22.62
33.96
42.59
47.92
49.12
46.20
39.39
29.16
16.48
2.91
-9.65
-19.13
-23.73
-22.58
-15.89
-5.02
7.91
20.67
31.51
39.52
44.58
46.65
46.21
43.33
37.57
28.53
16.27
1.68
-13.47
-26.90
-36.32
-39.96
-36.47
-25.32
-7.16
15.50
38.01
54.42
59.14
50.20
30.29
6.00
-15.04
-27.31
-29.49
-24.36
-16.53
-9.96
-6.14
-4.30
-2.78
-0.41
2.89
6.41
9.24
10.96
11.55
11.39
10.91
10.08
8.43
5.04
-0.93
-10.32
-23.50
-40.24
-59.85
-81.38
-104.63
-129.54
-155.12
-178.37
-194.61
-198.76
-187.74
-162.83
-129.00
-93.16
-61.82
-38.35
-22.08
-9.65
2.71
16.99
32.94
48.64
62.45
73.78
83.01
90.67
96.77
100.71
101.72
99.27
94.28
87.67
80.82
74.94
70.61
67.66
65.42
63.14
60.28
56.90
53.33
50.00
47.16
44.74
42.49
40.21
37.93
35.87
34.43
33.78
33.76
34.06
34.03
33.19
31.28
28.41
25.14
22.75
22.86
26.56
33.36
40.26
42.39
34.84
15.10
-15.52
-51.85
-86.52
-112.31
-124.02
-119.56
-99.77
-68.14
-30.35
6.59
35.74
52.15
54.43
45.07
29.28
12.86
0.13
-7.12
-9.02
-6.90
-2.15
4.25
11.58
19.17
26.69
34.55
43.44
53.53
63.08
68.20
63.79
45.91
14.19
-26.97
-69.15
-103.05
-121.79
-124.37
-114.83
-99.37
-83.45
-70.13
-60.32
-53.41
-48.37
-43.12
-35.09
-21.55
-0.72
26.26
55.09
79.03
92.45
93.23
83.65
69.76
56.68
48.01
43.54
40.96
35.96
26.22
12.31
-2.48
-14.03
-19.61
-18.67
-13.32
-6.29
0.34
6.43
12.53
18.74
23.84
25.79
23.38
17.04
9.16
2.75
0.12
1.61
6.11
12.11
18.73
25.96
33.78
41.55
47.60
50.08
47.83
41.47
33.27
25.84
20.85
18.02
15.06
8.16
-4.94
-26.45
-57.08
-94.81
-134.38
-167.48
-184.55
-177.79
-144.38
-88.28
-19.64
48.65
105.28
143.91
164.17
170.24
168.06
162.82
157.75
153.97
151.40
149.69
148.51
147.24
144.93
140.38
132.82
122.22
109.25
94.46
78.00
59.04
35.94
7.31
-27.01
-65.30
-103.83
-137.70
-162.57
-175.17
-174.77
-164.29
-149.84
-139.06
-138.55
-151.49
-176.81
-211.38
-251.20
-293.36
-336.79
-380.33
-420.35
-449.88
-460.31
-444.62
-402.02
-337.04
-257.37
-171.96
-88.93
-14.79
45.71
89.77
124.56
153.02
176.85
197.35
214.06
224.85
227.11
220.18
206.82
192.02
179.58
169.56
161.80
154.60
145.77
133.60
117.28
96.54
70.73
43.09
15.06
-9.67
-25.11
-23.82
-0.62
43.75
100.87
156.24
193.36
201.03
178.91
136.48
88.31
47.63
19.90
5.68
2.47
5.60
11.64
19.98
31.23
45.31
60.46
73.85
82.96
87.12
85.43
78.26
67.45
54.76
40.44
22.46
2.43
-19.28
-41.66
-65.71
-92.10
-120.36
-149.53
-179.21
-210.16
-243.68
-281.18
-305.35
-304.94
-278.93
-236.13
-188.05
-142.73
-103.70
-71.34
-44.96
-23.32
-7.37
2.05
5.57
5.31
3.74
2.65
2.85
4.37
6.74
8.06
6.48
1.57
-5.57
-13.12
-19.55
-23.84
-25.52
-26.78
-27.19
-26.77
-25.14
-21.29
-14.10
-3.02
11.81
31.44
53.23
74.75
93.70
108.75
119.66
126.93
131.34
133.73
134.79
134.69
133.82
131.95
128.64
123.85
117.73
110.52
102.55
93.63
83.19
71.05
56.92
40.65
23.09
5.90
-8.88
-19.38
-24.51
-24.56
-20.81
-15.45
-11.20
-9.75
-11.71
-16.76
-24.29
-33.85
-45.57
-59.91
-74.64
-90.28
-107.00
-124.72
-143.00
-160.41
-173.89
-178.99
-171.22
-148.42
-112.95
-71.14
-31.39
-1.12
16.13
21.49
19.13
13.69
8.02
2.36
-3.99
-11.44
-19.54
-26.90
-32.26
-35.45
-37.47
-39.69
-43.44
-48.71
-54.24
-58.44
-59.48
-56.32
-48.39
-36.15
-20.53
-2.67
16.58
36.64
56.46
74.36
89.47
101.15
109.01
113.15
113.97
112.04
109.26
104.66
97.81
88.92
78.86
69.12
61.58
57.70
56.49
57.88
59.88
60.35
58.15
53.39
47.51
42.47
39.82
40.00
42.77
47.11
52.02
55.71
54.93
45.56
24.96
-5.43
-39.09
-66.03
-77.58
-70.49
-48.88
-21.91
0.29
11.72
12.36
6.49
-0.74
-6.57
-11.20
-16.23
-22.48
-28.80
-32.61
-31.69
-25.39
-15.24
-4.19
4.62
9.54
10.66
9.48
8.01
7.66
8.65
9.92
9.77
6.62
0.05
-9.20
-19.61
-29.57
-38.03
-44.69
-49.84
-53.99
-57.57
-60.17
-61.15
-59.84
-56.19
-50.86
-44.86
-39.01
-33.65
-28.73
-23.21
-16.32
-7.44
2.74
12.64
20.71
26.46
30.30
33.04
36.48
41.87
50.63
63.25
79.97
101.26
127.65
159.34
189.60
213.80
229.07
236.11
236.40
230.69
218.08
196.32
163.08
117.73
63.80
2.03
-57.86
-104.59
-132.75
-144.98
-147.63
-145.70
-141.30
-134.01
-123.73
-110.20
-95.22
-81.65
-71.55
-65.06
-60.97
-57.75
-53.80
-48.45
-41.12
-32.75
-25.07
-19.36
-15.70
-13.21
-10.88
-7.76
-3.56
2.09
8.61
14.94
20.31
24.60
28.19
31.39
34.37
36.64
38.14
38.28
36.33
31.88
25.05
16.34
6.38
-3.35
-12.62
-20.86
-27.82
-33.40
-37.59
-40.40
-41.91
-42.32
-41.83
-40.86
-39.51
-38.01
-36.51
-35.09
-33.76
-32.50
-31.33
-30.20
-29.24
-28.33
-27.55
-27.01
-26.75
-26.73
-26.86
-26.99
-26.83
-26.87
-26.00
-23.66
-19.53
-13.43
-5.34
4.32
14.89
25.47
34.93
42.41
47.04
48.20
45.60
39.52
30.38
18.87
6.69
-5.67
-17.36
-27.82
-36.68
-43.90
-49.40
-53.47
-56.50
-58.75
-60.50
-61.74
-62.34
-62.02
-61.42
-59.12
-54.48
-47.05
-36.61
-23.32
-7.55
10.04
29.14
48.09
66.00
82.04
95.56
106.19
113.70
117.87
118.59
115.77
109.25
99.34
86.42
71.07
54.06
36.35
18.72
2.01
-13.14
-25.88
-35.21
-40.15
-40.01
-34.67
-24.57
-11.35
2.80
15.28
24.05
27.81
26.48
20.80
11.89
1.10
-11.11
-23.18
-35.65
-48.45
-60.96
-71.63
-78.84
-83.42
-84.31
-82.50
-79.86
-78.56
-77.99
-80.22
-86.02
-95.31
-106.88
-117.52
-122.96
-118.78
-102.70
-75.87
-43.40
-12.04
12.07
25.71
29.59
26.56
19.96
12.05
4.00
-3.52
-9.18
-11.32
-8.72
-1.09
10.02
22.83
35.90
48.94
63.04
80.39
102.99
131.77
165.27
199.80
228.98
245.31
242.88
220.03
180.83
134.35
88.86
50.75
21.83
-0.63
-21.59
-45.42
-74.01
-105.60
-136.86
-163.33
-180.34
-184.57
-175.13
-154.29
-127.18
-100.28
-78.95
-66.07
-61.38
-62.40
-66.52
-72.31
-79.37
-87.56
-96.07
-103.04
-106.70
-106.33
-102.12
-95.38
-87.61
-79.32
-69.78
-57.53
-41.08
-19.79
5.65
33.42
60.80
84.55
102.98
115.70
123.31
126.97
127.94
127.07
124.78
120.78
115.25
107.67
98.13
87.51
75.98
64.01
52.07
40.65
29.93
20.19
11.81
5.31
1.18
-0.40
0.61
3.03
6.85
11.46
16.14
20.19
23.24
25.11
25.74
25.30
24.01
22.29
20.32
18.68
17.16
15.73
14.52
13.47
12.60
11.87
11.37
11.01
10.77
10.56
10.41
10.37
10.42
10.57
10.84
11.28
11.84
12.49
13.18
13.91
14.74
15.66
16.67
17.79
18.96
20.00
20.73
21.15
20.74
19.22
16.44
12.41
7.40
1.74
-4.14
-9.76
-14.67
-18.53
-21.05
-22.09
-21.67
-19.85
-16.96
-13.50
-10.05
-7.26
-5.81
-6.14
-8.43
-13.02
-18.88
-25.19
-31.22
-36.47
-40.72
-44.17
-47.04
-49.43
-51.07
-51.28
-49.48
-45.17
-38.55
-30.28
-21.62
-13.76
-7.34
-2.19
2.77
8.78
16.91
27.37
39.48
51.58
62.12
70.00
75.10
78.11
79.89
81.26
82.87
85.39
88.85
92.42
93.79
89.32
75.39
50.28
15.97
-22.44
-56.12
-78.30
-86.54
-83.10
-73.17
-61.82
-51.96
-43.88
-36.53
-29.06
-22.05
-16.85
-14.43
-14.58
-15.86
-16.40
-14.55
-9.86
-2.96
4.52
10.94
15.30
17.54
18.40
18.86
19.53
20.51
21.23
20.60
17.67
12.09
4.39
-4.12
-11.81
-17.23
-19.70
-19.31
-17.09
-14.60
-13.40
-14.52
-18.20
-23.87
-29.63
-35.05
-39.58
-43.34
-46.95
-51.22
-56.64
-63.00
-69.37
-74.44
-77.43
-78.00
-76.74
-74.92
-73.89
-74.68
-77.96
-84.09
-92.78
-102.68
-110.66
-112.48
-104.28
-84.59
-55.71
-23.44
5.12
24.45
32.66
31.88
26.35
19.91
14.54
10.37
6.78
3.84
2.84
5.55
13.20
25.46
40.44
55.45
67.83
76.12
80.25
81.26
80.61
79.43
77.98
75.62
71.19
63.74
53.27
40.98
29.13
20.30
16.45
18.23
24.69
33.44
41.71
47.11
48.48
46.27
42.09
38.10
36.05
36.87
39.87
42.56
41.01
30.75
8.41
-27.09
-73.30
-124.00
-170.22
-202.72
-214.90
-205.40
-178.71
-143.25
-108.74
-82.75
-68.63
-65.35
-69.16
-75.80
-82.33
-87.73
-91.58
-93.98
-94.48
-92.22
-86.35
-76.46
-62.52
-44.29
-24.87
-5.30
14.28
34.37
55.67
78.74
103.52
129.34
155.23
180.51
205.68
231.39
257.71
283.14
304.60
318.21
321.10
312.93
296.12
275.28
254.62
236.26
219.74
202.75
182.86
158.98
131.92
103.35
74.79
46.14
15.56
-19.26
-59.45
-103.49
-147.22
-185.18
-212.92
-228.57
-233.49
-231.22
-225.61
-219.11
-212.25
-204.26
-194.34
-182.54
-169.93
-158.10
-148.38
-141.09
-135.67
-131.03
-126.15
-120.48
-113.87
-106.45
-98.32
-89.58
-80.07
-69.56
-57.93
-45.06
-31.05
-16.33
-1.65
12.17
24.34
34.41
42.26
48.00
51.87
54.10
54.67
53.49
50.73
46.73
42.05
37.22
32.63
28.64
25.39
22.82
20.73
18.84
16.83
14.40
11.32
7.62
4.18
1.91
1.39
2.65
5.35
9.06
13.40
17.89
22.28
27.66
34.85
43.95
54.15
64.38
73.79
82.05
88.85
94.39
100.83
109.69
120.96
133.06
144.04
152.69
158.67
161.94
163.19
165.44
170.41
177.72
185.02
189.76
190.97
189.08
184.83
164.04
119.98
56.15
-14.33
-77.23
-124.34
-154.14
-167.02
-170.28
-169.73
-166.73
-161.42
-153.75
-144.09
-134.88
-126.79
-119.98
-115.02
-111.88
-108.53
-103.51
-96.87
-90.61
-87.59
-89.69
-97.11
-107.96
-117.84
-120.51
-111.41
-89.59
-58.17
-22.66
11.58
40.74
63.02
78.73
89.59
97.08
101.86
103.92
103.15
99.94
94.99
88.89
82.13
75.15
68.08
60.85
53.28
45.29
37.01
28.71
20.61
12.94
5.78
-0.82
-6.55
-10.76
-12.31
-9.94
-2.74
9.30
25.07
42.45
58.64
70.68
75.94
72.62
60.18
39.54
12.96
-16.52
-45.98
-73.29
-97.20
-116.87
-131.42
-139.94
-141.99
-138.06
-129.54
-117.91
-103.94
-87.54
-68.42
-47.24
-26.15
-8.28
3.77
9.28
9.68
7.64
5.44
3.86
2.29
-0.23
-3.96
-8.11
-11.29
-12.44
-11.26
-8.22
-4.09
0.53
5.48
10.87
16.82
23.22
29.61
35.37
39.95
42.96
44.29
44.11
42.72
40.55
38.01
35.38
32.78
30.14
27.31
24.21
20.89
17.59
14.59
12.08
10.07
8.39
6.78
5.06
3.23
1.50
0.19
-0.40
-0.09
1.01
2.55
4.01
4.87
4.75
3.49
1.13
-2.21
-6.31
-10.94
-15.74
-20.23
-23.91
-26.37
-27.45
-27.22
-26.02
-24.24
-22.26
-20.33
-18.60
-17.18
-16.18
-15.65
-15.63
-15.99
-16.54
-17.08
-17.51
-17.88
-18.37
-19.11
-20.07
-21.06
-21.78
-22.01
-21.74
-21.15
-20.51
-20.04
-19.84
-19.81
-19.77
-19.51
-18.86
-17.79
-16.37
-14.81
-13.38
-12.31
-11.70
-11.43
-11.17
-10.47
-8.85
-5.99
-1.82
3.45
9.34
15.26
20.57
24.72
27.39
28.45
28.00
26.17
23.15
19.15
14.51
9.70
5.28
1.88
-0.07
-0.32
1.07
3.91
7.90
12.71
17.97
23.22
27.92
31.55
33.70
34.23
33.25
31.04
27.91
24.16
19.99
15.56
11.00
6.41
1.85
-2.57
-6.73
-10.36
-13.00
-14.19
-13.53
-10.95
-6.69
-1.35
4.30
9.55
13.84
16.88
18.60
19.10
18.55
17.17
15.18
12.77
10.14
7.53
5.16
3.27
2.04
1.55
1.68
2.19
2.82
3.29
3.46
3.28
2.74
1.87
0.63
-0.96
-2.88
-5.02
-7.24
-9.41
-11.49
-13.57
-15.78
-18.21
-20.78
-23.20
-24.96
-25.54
-24.53
-21.79
-17.56
-12.30
-6.65
-1.16
3.73
7.80
10.98
13.27
14.65
15.15
14.80
13.74
12.16
10.33
8.50
6.91
5.68
4.88
4.47
4.35
4.41
4.51
4.55
4.45
4.12
3.50
2.49
1.03
-0.87
-3.07
-5.33
-7.40
-9.11
-10.44
-11.54
-12.66
-14.06
-15.85
-17.97
-20.11
-21.81
-22.58
-22.04
-20.06
-16.80
-12.68
-8.20
-3.86
0.02
3.32
6.00
8.07
9.53
10.34
10.51
10.07
9.16
8.00
6.81
5.78
5.02
4.53
4.21
3.95
3.65
3.24
2.76
2.26
1.73
1.12
0.33
-0.74
-2.10
-3.62
-5.09
-6.33
-7.26
-7.97
-8.65
-9.51
-10.67
-12.13
-13.75
-15.31
-16.51
-17.01
-16.51
-14.81
-11.93
-8.12
-3.82
0.46
4.28
7.37
9.62
11.05
11.70
11.59
10.79
9.42
7.70
5.88
4.18
2.79
1.74
1.01
0.52
0.14
-0.22
-0.65
-1.20
-1.86
-2.60
-3.40
-4.27
-5.27
-6.45
-7.80
-9.19
-10.41
-11.29
-11.79
-12.05
-12.37
-13.00
-14.05
-15.38
-16.70
-17.64
-17.91
-17.36
-15.93
-13.65
-10.63
-7.05
-3.22
0.45
3.61
6.04
7.72
8.76
9.31
9.44
9.15
8.47
7.50
6.47
5.62
5.09
4.87
4.81
4.73
4.57
4.37
4.25
4.28
4.34
4.24
3.72
2.67
1.11
-0.77
-2.70
-4.46
-5.94
-7.16
-8.27
-9.46
-10.91
-12.69
-14.77
-16.98
-18.98
-20.41
-20.91
-20.26
-18.43
-15.56
-11.93
-7.90
-3.87
-0.16
2.94
5.23
6.63
7.12
6.80
5.84
4.50
3.03
1.62
0.44
-0.51
-1.31
-2.11
-3.12
-4.43
-6.09
-8.10
-10.47
-13.18
-16.20
-19.38
-22.43
-24.99
-26.61
-26.97
-25.90
-23.46
-19.91
-15.67
-11.23
-7.13
-3.80
-1.49
-0.15
0.58
1.23
2.38
4.32
7.09
10.38
13.70
16.59
18.71
19.97
20.41
20.18
19.36
18.07
16.40
14.52
12.57
10.73
9.12
7.80
6.82
6.16
5.81
5.74
5.88
6.13
6.33
6.33
6.00
5.32
4.32
3.10
1.73
0.21
-1.52
-3.61
-6.18
-9.27
-12.84
-16.73
-20.65
-24.24
-27.15
-29.15
-30.14
-30.21
-29.63
-28.77
-28.07
-27.81
-28.16
-29.06
-30.38
-31.92
-33.49
-34.97
-36.11
-36.48
-35.42
-32.06
-25.54
-15.24
-0.88
17.34
38.85
62.80
88.10
113.46
137.48
158.65
175.53
186.82
191.41
188.43
177.31
157.89
130.49
96.01
55.92
12.01
-33.71
-79.19
-122.37
-161.15
-193.44
-217.34
-231.43
-235.05
-228.49
-212.94
-190.33
-163.06
-133.58
-104.19
-76.70
-52.23
-31.23
-13.52
1.53
14.71
26.76
38.20
49.25
59.86
69.80
78.74
86.34
92.24
96.03
97.29
95.77
91.53
85.06
77.29
69.34
62.28
56.84
53.25
51.27
50.36
49.55
47.63
43.53
36.56
26.85
15.28
3.29
-7.44
-15.25
-19.22
-19.84
-17.78
-13.87
-8.64
-2.15
5.70
14.71
24.42
33.55
42.26
49.76
55.59
60.06
63.66
66.75
69.52
72.54
76.15
78.42
78.70
76.85
73.17
67.67
59.92
47.45
30.41
10.86
-7.93
-23.08
-34.65
-43.45
-50.37
-56.59
-63.58
-70.14
-76.01
-80.96
-84.63
-86.67
-86.61
-84.25
-79.77
-73.63
-66.19
-58.64
-52.51
-49.32
-50.24
-55.53
-64.62
-76.30
-88.96
-100.67
-110.14
-116.56
-119.57
-119.11
-115.15
-107.78
-97.30
-84.24
-69.27
-53.39
-37.58
-22.57
-8.70
4.10
16.09
27.47
38.33
48.67
58.46
67.68
76.27
83.99
90.40
95.09
97.93
99.26
99.82
100.40
101.47
102.98
104.26
104.50
103.12
100.07
95.69
90.45
84.69
78.40
71.32
63.11
53.62
43.15
32.33
21.93
12.50
3.98
-4.39
-13.83
-25.38
-39.21
-54.20
-68.18
-78.71
-84.04
-83.68
-78.20
-68.45
-55.01
-38.19
-18.64
2.01
21.06
35.35
42.55
42.26
36.21
27.50
19.10
12.67
8.15
4.43
0.36
-4.50
-9.80
-15.02
-20.06
-25.42
-31.52
-37.96
-42.99
-43.89
-38.01
-24.15
-3.27
21.55
46.07
65.85
77.16
77.44
65.66
42.56
10.53
-26.77
-65.19
-100.72
-129.59
-148.04
-152.21
-138.95
-107.25
-59.98
-4.42
49.04
89.82
110.45
108.81
88.24
55.80
19.64
-12.89
-36.24
-46.76
-42.85
-25.40
1.82
32.68
60.06
78.09
84.04
78.87
66.19
50.39
34.76
20.82
8.80
-1.37
-9.39
-14.74
-17.38
-18.14
-18.59
-20.25
-23.77
-28.71
-33.97
-38.45
-41.63
-43.65
-44.86
-45.38
-44.84
-42.56
-37.94
-30.98
-22.49
-13.93
-6.97
-2.80
-1.66
-2.83
-5.01
-7.06
-8.51
-9.61
-11.14
-13.89
-18.43
-24.84
-32.78
-41.48
-49.87
-56.79
-61.23
-62.52
-60.64
-56.14
-49.96
-43.08
-36.18
-29.51
-22.99
-16.52
-10.14
-4.03
1.56
6.54
11.11
15.81
21.43
28.88
38.76
51.07
65.16
79.54
92.11
100.58
102.95
98.06
85.87
67.40
44.32
18.55
-8.07
-33.92
-57.71
-78.72
-96.68
-111.70
-123.88
-133.00
-138.31
-138.78
-133.30
-121.27
-102.85
-79.01
-51.34
-21.86
7.36
34.29
57.19
75.00
87.50
95.28
99.47
101.22
101.21
99.57
96.01
90.16
81.85
71.34
59.24
46.42
33.71
21.68
10.68
0.82
-7.81
-15.14
-21.08
-25.58
-28.59
-30.01
-29.60
-26.87
-21.26
-12.33
-0.12
14.68
30.76
46.41
60.00
70.25
76.46
78.46
76.51
71.09
62.78
52.18
39.88
26.57
13.13
0.60
-10.06
-18.17
-23.57
-26.63
-28.00
-28.21
-27.48
-25.60
-22.12
-16.70
-9.30
-0.27
9.77
20.14
30.20
39.41
47.30
53.48
57.52
59.06
57.79
53.53
46.37
36.72
25.35
13.23
1.39
-9.24
-18.06
-24.81
-29.67
-33.08
-35.75
-38.35
-41.43
-45.23
-49.70
-54.55
-59.38
-63.79
-67.43
-69.97
-71.19
-71.01
-69.56
-67.22
-64.54
-61.98
-59.81
-57.94
-55.90
-53.04
-48.63
-42.02
-32.81
-20.96
-6.82
8.82
24.85
40.12
53.65
64.82
73.37
79.34
82.87
84.14
83.34
80.86
77.38
73.84
71.30
70.60
72.09
75.52
80.20
85.30
90.04
93.90
96.56
97.74
97.14
94.36
89.03
80.91
70.17
57.33
43.25
28.95
15.44
3.55
-6.24
-13.85
-19.61
-24.03
-27.62
-30.62
-32.88
-33.96
-33.27
-30.34
-25.20
-18.47
-11.30
-5.12
-1.13
-0.08
-2.14
-6.84
-13.36
-20.81
-28.77
-37.36
-47.21
-59.02
-73.09
-89.06
-105.65
-121.09
-133.48
-141.40
-144.24
-142.25
-136.24
-127.19
-115.95
-103.13
-89.24
-74.83
-60.69
-47.77
-36.99
-28.80
-22.89
-18.32
-14.05
-9.51
-4.84
-0.66
2.49
4.56
6.14
8.22
11.64
16.72
23.03
29.66
35.59
40.10
42.93
44.19
44.23
43.34
41.81
39.95
38.21
37.23
37.79
40.60
46.09
54.25
64.74
76.91
90.05
103.47
116.38
127.95
137.25
143.36
145.54
143.27
136.28
124.61
108.63
89.15
67.36
44.65
22.34
1.46
-17.34
-33.73
-47.48
-58.37
-66.23
-71.06
-73.23
-73.39
-72.17
-69.97
-66.89
-62.76
-57.54
-51.46
-45.08
-39.19
-34.40
-31.00
-28.90
-27.72
-27.03
-26.55
-26.22
-26.23
-26.83
-28.19
-30.32
-33.07
-36.15
-39.24
-42.16
-44.90
-47.48
-49.81
-51.66
-52.67
-52.71
-51.91
-50.87
-50.46
-51.51
-54.53
-59.39
-65.29
-70.93
-74.99
-76.56
-75.41
-71.96
-66.94
-60.97
-54.31
-46.76
-37.90
-27.40
-15.31
-2.09
11.60
25.14
38.02
49.78
59.98
68.19
74.05
77.45
78.62
78.02
76.23
73.83
71.32
69.27
68.42
69.62
73.80
81.66
93.52
109.23
127.99
148.22
167.46
182.46
189.62
186.04
170.33
143.29
107.75
67.70
27.18
-10.52
-43.14
-69.21
-87.67
-97.83
-99.49
-93.28
-80.75
-64.12
-45.85
-28.08
-12.45
-0.03
8.41
12.31
11.34
5.50
-4.84
-18.91
-35.70
-54.10
-73.11
-91.90
-109.93
-126.83
-142.44
-156.68
-169.47
-180.53
-189.29
-194.84
-195.97
-191.54
-180.80
-163.62
-140.70
-113.31
-82.93
-50.92
-18.36
13.81
44.40
71.80
94.25
110.27
119.30
122.08
120.49
117.07
114.16
113.36
115.29
119.75
126.10
133.46
140.71
146.27
148.13
144.00
131.91
110.94
81.64
45.91
6.54
-33.44
-71.43
-105.51
-134.52
-158.03
-176.09
-189.19
-197.89
-202.44
-202.56
-197.50
-186.31
-168.36
-143.67
-113.05
-77.89
-39.84
-0.67
37.73
72.97
102.12
121.91
129.44
123.03
102.83
71.17
32.11
-9.11
-47.07
-76.89
-94.90
-99.13
-89.43
-67.56
-36.76
-1.22
34.82
67.83
95.38
116.15
129.52
135.29
133.38
123.81
106.84
83.31
54.80
23.71
-7.02
-34.35
-55.55
-68.58
-72.40
-66.94
-52.95
-31.85
-5.62
23.21
51.46
75.49
91.70
97.42
91.61
75.27
51.19
23.15
-4.99
-30.03
-49.82
-63.19
-69.69
-69.50
-63.27
-52.22
-37.96
-22.28
-6.88
6.93
18.30
26.95
33.06
37.08
39.59
41.14
42.10
42.60
42.51
41.53
39.37
35.84
31.04
25.37
19.37
13.57
8.38
4.10
0.93
-0.94
-1.44
-0.65
0.96
2.50
2.89
1.21
-2.84
-8.90
-16.17
-23.78
-31.14
-38.14
-45.04
-52.11
-59.33
-66.20
-71.81
-75.16
-75.52
-72.53
-66.21
-56.81
-44.68
-30.33
-14.53
1.67
16.96
29.98
39.67
45.50
47.59
46.44
42.60
36.49
28.36
18.43
7.04
-5.25
-17.53
-28.67
-37.34
-42.34
-42.77
-38.28
-29.16
-16.30
-0.92
15.74
32.64
49.19
65.07
80.17
94.39
107.63
119.83
131.04
141.42
151.15
160.35
168.89
176.48
182.60
186.71
188.18
186.33
180.47
169.96
154.52
134.25
109.85
82.45
53.45
24.33
-3.54
-28.91
-50.75
-68.35
-81.52
-90.62
-96.48
-100.13
-102.34
-103.39
-103.01
-100.64
-95.89
-88.83
-80.07
-70.66
-61.73
-54.17
-48.62
-45.17
-43.73
-44.05
-45.99
-49.39
-54.03
-59.53
-65.12
-69.91
-72.92
-73.53
-71.74
-68.12
-63.50
-58.60
-53.80
-49.16
-44.70
-40.31
-36.15
-32.58
-29.95
-28.18
-26.90
-25.65
-24.25
-22.94
-21.58
-20.44
-20.39
-22.74
-28.68
-39.10
-54.33
-73.93
-96.36
-117.28
-132.36
-138.88
-136.21
-125.09
-107.02
-83.84
-57.60
-30.21
-0.71
31.20
64.19
95.84
124.62
150.76
175.57
200.29
225.37
253.56
285.50
318.73
348.73
371.64
385.83
391.51
389.71
359.94
294.08
201.00
101.46
13.11
-57.00
-109.65
-148.32
-176.27
-195.61
-204.54
-202.60
-192.60
-179.97
-169.72
-164.35
-163.78
-167.10
-171.68
-172.77
-167.61
-156.53
-142.43
-128.43
-116.38
-106.81
-99.40
-93.25
-85.85
-75.44
-61.83
-46.31
-30.42
-15.08
-1.37
9.94
18.60
25.48
31.58
37.31
42.42
46.25
48.28
48.16
46.05
42.50
38.42
34.44
30.63
26.59
21.96
16.68
10.89
4.69
-2.04
-9.68
-18.37
-27.62
-36.31
-43.10
-47.03
-47.98
-46.40
-42.83
-37.59
-30.64
-21.95
-11.90
-1.36
8.38
16.21
21.61
24.71
25.93
25.65
24.01
20.97
16.48
10.52
3.20
-5.24
-14.45
-24.13
-33.96
-43.63
-52.86
-61.33
-68.73
-74.66
-78.57
-79.76
-77.50
-71.25
-60.80
-46.47
-28.95
-9.18
11.77
32.85
53.05
71.47
87.27
99.55
107.49
110.59
108.88
102.98
94.04
83.37
72.19
61.35
51.17
41.67
33.00
25.65
20.32
17.72
18.00
20.90
25.69
31.47
37.38
42.83
47.45
50.80
52.42
51.79
49.09
45.03
40.54
36.43
33.13
30.58
28.29
25.83
22.79
19.81
17.73
16.99
17.21
17.55
17.07
14.96
11.00
5.19
-1.21
-6.80
-10.71
-13.07
-14.10
-13.77
-11.80
-7.36
0.13
12.26
30.09
53.47
80.48
108.79
136.31
161.21
182.41
190.26
178.05
145.61
99.85
49.18
0.11
-42.81
-80.88
-114.67
-144.42
-169.34
-189.81
-203.77
-212.11
-216.17
-216.70
-213.73
-206.52
-195.12
-179.75
-161.61
-142.63
-125.42
-111.48
-100.94
-93.23
-87.44
-83.36
-80.68
-79.15
-78.42
-78.46
-78.90
-79.01
-77.85
-74.30
-67.67
-57.45
-43.70
-27.00
-8.66
10.07
28.23
45.32
61.30
76.03
89.29
100.66
109.83
116.64
121.48
125.11
128.18
130.96
133.12
134.13
133.55
131.21
126.92
120.22
110.16
95.61
75.79
50.97
22.64
-6.87
-35.04
-59.80
-79.65
-93.39
-100.06
-98.98
-90.19
-74.71
-54.60
-32.46
-10.75
8.72
24.92
37.41
45.99
50.56
51.20
48.36
42.86
35.79
28.22
20.96
14.52
9.12
4.76
1.39
-1.03
-2.40
-2.37
-0.61
2.78
7.13
11.37
14.33
15.32
14.17
11.34
8.25
6.26
6.25
8.20
11.40
14.88
18.03
20.49
22.21
24.12
27.01
31.27
36.55
42.05
47.05
51.60
55.91
60.21
65.54
72.29
80.41
89.38
98.69
108.11
117.87
127.11
128.78
116.91
89.38
50.41
7.70
-31.61
-66.33
-96.21
-121.73
-144.20
-160.66
-169.73
-171.21
-166.28
-156.95
-145.25
-132.27
-118.74
-105.19
-91.29
-77.23
-63.25
-49.92
-37.95
-27.94
-19.96
-14.06
-10.25
-7.71
-5.72
-3.47
-0.67
2.42
5.07
6.61
6.39
4.09
0.24
-4.33
-8.49
-11.23
-11.85
-10.00
-5.56
1.34
10.42
21.40
33.62
45.97
56.77
64.09
66.35
62.84
53.95
40.93
25.35
8.52
-8.58
-25.08
-39.97
-52.07
-60.49
-65.09
-66.69
-66.42
-65.10
-62.75
-58.80
-52.83
-44.98
-35.93
-26.37
-16.54
-6.03
5.79
19.05
33.04
46.39
57.74
66.36
72.17
75.28
75.87
74.26
71.17
67.82
65.63
65.62
67.86
71.27
73.69
72.88
67.49
57.57
44.54
30.56
17.91
8.39
2.93
0.90
0.81
0.85
-0.82
-5.82
-15.25
-29.14
-45.80
-62.22
-75.81
-84.77
-88.84
-89.52
-89.66
-92.24
-98.71
-107.94
-117.31
-125.26
-131.45
-136.65
-142.01
-148.37
-155.67
-162.61
-166.53
-157.77
-131.24
-89.49
-42.09
0.72
33.79
57.42
74.75
90.51
106.57
120.66
129.54
131.36
126.90
119.06
111.45
104.11
97.64
91.68
84.80
76.09
65.96
56.07
48.34
43.89
42.70
44.49
48.37
53.04
57.55
61.49
64.80
67.38
68.82
68.54
66.38
62.16
55.61
46.72
35.91
23.98
11.93
0.66
-9.15
-16.89
-22.28
-25.36
-26.34
-25.61
-23.76
-21.59
-20.02
-19.81
-21.18
-23.97
-27.66
-31.60
-35.20
-37.93
-39.34
-38.95
-36.36
-31.29
-23.78
-14.24
-3.33
8.12
19.32
29.62
38.62
46.08
51.98
56.34
59.16
60.30
59.55
56.70
51.64
44.40
35.08
23.87
11.13
-2.48
-15.98
-28.11
-37.68
-43.89
-46.60
-46.32
-43.93
-40.30
-35.99
-31.22
-26.07
-20.69
-15.43
-10.87
-7.61
-6.25
-7.14
-10.33
-15.60
-22.47
-30.39
-38.83
-47.31
-55.42
-62.99
-70.01
-76.57
-82.83
-88.75
-94.22
-98.85
-101.99
-102.89
-100.99
-96.02
-88.20
-78.14
-66.63
-54.63
-42.96
-32.32
-23.17
-15.73
-9.93
-5.60
-2.47
-0.15
1.73
3.52
5.40
7.43
9.67
12.11
14.73
17.37
19.87
21.85
22.73
21.87
18.59
12.53
3.66
-7.69
-20.97
-35.41
-50.14
-64.16
-76.37
-85.83
-91.79
-94.07
-92.89
-88.84
-82.45
-74.05
-63.58
-50.89
-36.13
-20.00
-3.81
10.86
22.56
30.37
34.16
34.57
32.86
30.43
28.37
27.12
26.35
25.33
23.47
20.78
18.01
16.24
16.36
18.67
22.85
28.41
35.17
43.40
53.55
65.65
78.94
91.96
103.06
111.03
115.54
117.11
116.74
115.34
113.34
110.67
106.99
101.95
95.55
88.14
80.37
73.01
66.70
61.88
58.68
56.99
56.52
56.86
57.57
58.18
58.22
57.25
54.93
51.13
45.92
39.59
32.63
25.62
19.19
13.88
10.15
8.29
8.36
10.05
12.70
15.46
17.51
18.42
18.31
17.72
17.25
17.18
17.10
15.96
12.49
5.68
-4.89
-19.02
-36.16
-55.60
-76.52
-97.79
-117.88
-134.82
-146.65
-152.05
-151.04
-145.11
-136.67
-128.23
-121.46
-116.87
-114.05
-112.19
-110.54
-108.65
-106.17
-102.64
-97.33
-89.29
-77.59
-61.59
-41.08
-16.38
11.70
41.84
72.32
101.27
127.01
148.24
164.09
174.07
177.85
175.40
167.07
153.79
137.03
118.76
100.81
84.42
69.87
56.62
43.69
30.28
16.17
1.76
-12.07
-24.49
-34.93
-43.04
-48.45
-50.48
-48.22
-40.97
-28.71
-12.21
6.97
26.85
45.54
61.53
73.85
81.79
84.62
81.57
72.30
56.83
35.70
10.03
-18.27
-46.59
-72.01
-91.84
-104.12
-107.15
-100.42
-84.87
-62.72
-36.83
-10.00
15.20
36.50
52.04
61.82
66.55
66.97
63.49
56.46
46.61
35.06
23.17
12.49
6.05
6.39
14.38
28.92
47.93
69.57
92.63
116.31
130.58
128.34
109.23
79.83
47.71
17.17
-10.55
-35.49
-57.83
-77.45
-92.69
-102.30
-106.52
-107.32
-107.16
-107.86
-109.99
-113.14
-117.38
-120.47
-120.64
-117.61
-112.68
-107.63
-103.54
-100.33
-96.89
-90.05
-78.38
-61.93
-42.35
-22.34
-4.19
11.13
23.93
35.56
46.33
55.69
62.45
65.32
63.55
57.52
48.67
38.88
29.94
22.88
18.17
15.99
16.40
19.29
24.58
32.17
41.19
50.52
58.77
64.72
67.72
67.70
64.95
59.84
52.59
43.21
31.77
18.57
4.42
-9.40
-21.51
-30.84
-36.93
-39.83
-39.94
-37.77
-33.87
-28.92
-23.81
-19.52
-16.88
-16.29
-17.53
-19.91
-22.55
-24.72
-26.02
-26.43
-26.19
-25.59
-24.90
-24.18
-23.48
-22.82
-22.21
-21.56
-20.84
-19.92
-18.57
-16.46
-13.06
-7.97
-1.21
6.84
15.29
22.88
28.42
31.24
31.51
30.28
28.90
28.21
28.70
30.38
32.99
36.49
41.39
48.68
59.59
74.89
94.19
116.43
139.67
161.08
177.15
184.14
178.20
158.15
127.88
91.28
53.13
18.12
-10.62
-32.26
-47.95
-59.90
-70.05
-79.61
-89.28
-98.99
-108.53
-117.99
-127.64
-137.48
-146.77
-154.03
-157.52
-156.12
-149.37
-137.68
-122.29
-104.80
-86.68
-69.01
-52.48
-37.59
-25.01
-15.23
-8.54
-4.96
-4.09
-5.08
-6.74
-7.71
-6.94
-4.03
0.67
6.23
11.52
15.88
19.39
22.83
27.18
33.06
40.36
48.35
56.12
62.94
68.52
72.99
76.75
80.37
84.40
89.18
94.53
99.46
102.25
100.97
94.17
81.65
64.76
46.00
28.33
14.40
5.88
3.16
5.44
11.00
17.66
23.28
26.11
25.17
20.36
12.28
2.02
-9.15
-20.01
-29.51
-36.92
-41.99
-44.98
-46.60
-47.75
-49.20
-51.35
-54.31
-57.98
-62.28
-67.19
-72.61
-78.02
-82.35
-84.04
-81.60
-74.34
-62.92
-49.28
-36.02
-25.38
-18.41
-14.67
-12.54
-9.87
-4.84
3.56
15.38
29.67
44.66
58.14
67.85
72.10
70.35
63.45
53.57
43.62
36.35
33.49
34.98
38.68
40.64
36.30
22.12
-2.52
-34.48
-67.46
-94.11
-108.88
-110.10
-100.35
-84.90
-69.19
-56.68
-48.32
-43.28
-40.50
-39.67
-41.12
-44.86
-49.69
-53.16
-52.45
-45.78
-33.39
-17.56
-1.80
10.43
16.89
17.07
12.03
3.78
-5.56
-14.39
-21.95
-28.21
-33.35
-37.15
-38.67
-36.30
-28.54
-14.80
3.99
25.50
46.84
65.54
80.31
91.05
98.28
102.43
103.47
100.92
94.33
83.67
69.51
52.74
34.35
15.27
-3.50
-20.70
-34.85
-44.51
-48.86
-48.02
-43.12
-35.96
-28.32
-21.57
-16.44
-13.20
-11.89
-12.51
-15.00
-19.07
-24.14
-29.46
-34.35
-38.42
-41.64
-44.08
-45.76
-46.53
-46.07
-44.18
-40.97
-36.87
-32.58
-28.77
-25.94
-24.29
-23.78
-24.18
-25.24
-26.74
-28.62
-30.94
-33.82
-37.39
-41.57
-46.03
-50.12
-53.09
-54.22
-53.16
-50.03
-45.37
-40.00
-34.80
-30.46
-27.34
-25.49
-24.80
-25.15
-26.55
-29.09
-32.79
-37.33
-41.88
-45.19
-45.93
-43.21
-36.98
-28.30
-19.01
-11.21
-6.44
-5.15
-6.42
-8.35
-8.73
-5.77
1.39
12.68
27.37
44.41
62.66
80.84
97.45
110.73
119.02
121.21
117.15
107.77
94.73
79.95
65.07
51.20
39.00
28.78
20.70
14.82
11.03
9.11
8.69
9.33
10.68
12.43
14.40
16.49
18.59
20.62
22.47
24.00
25.03
25.37
24.85
23.42
21.15
18.32
15.39
12.98
11.73
12.10
14.23
17.81
21.99
25.62
27.35
26.10
21.30
13.11
2.46
-9.08
-19.75
-27.99
-32.92
-34.58
-33.85
-32.21
-31.16
-31.75
-34.29
-38.27
-42.64
-46.06
-47.43
-46.10
-42.06
-35.84
-28.22
-19.98
-11.72
-3.80
3.48
9.80
14.78
18.05
19.46
19.21
17.78
15.81
13.87
12.42
11.77
12.19
13.92
17.05
21.33
26.14
30.55
33.53
34.18
31.95
26.71
18.85
9.22
-0.96
-10.33
-17.83
-22.90
-25.67
-26.76
-26.91
-26.66
-26.24
-25.63
-24.90
-24.28
-24.17
-24.84
-26.28
-28.06
-29.54
-30.06
-29.21
-26.89
-23.18
-18.30
-12.47
-5.97
0.78
7.25
12.84
17.01
19.49
20.29
19.71
18.18
16.14
13.95
11.85
10.06
8.76
8.13
8.21
8.89
9.82
10.57
10.65
9.73
7.69
4.66
0.95
-3.08
-7.08
-10.83
-14.21
-17.19
-19.90
-22.55
-25.42
-28.78
-32.72
-37.04
-41.27
-44.74
-46.88
-47.37
-46.16
-43.30
-38.72
-32.19
-23.49
-12.68
-0.41
12.16
23.70
33.16
40.20
45.13
48.65
51.34
53.36
54.44
54.02
51.71
47.41
41.55
34.91
28.46
23.06
19.24
17.03
16.04
15.63
15.19
14.28
12.72
10.53
7.83
4.77
1.55
-1.56
-4.32
-6.60
-8.56
-10.55
-12.98
-16.09
-19.78
-23.61
-27.07
-29.76
-31.69
-33.24
-35.06
-37.79
-41.69
-46.38
-50.85
-53.66
-53.43
-49.29
-41.22
-30.04
-17.08
-3.81
8.60
19.37
28.15
34.82
39.49
42.39
43.84
44.16
43.60
42.21
39.91
36.60
32.39
27.68
23.16
19.56
17.49
17.17
18.41
20.67
23.31
25.76
27.63
28.80
29.26
29.06
28.30
27.02
25.28
23.01
20.00
15.84
10.04
2.29
-7.16
-17.31
-26.51
-32.92
-35.11
-32.66
-26.34
-17.83
-9.19
-2.18
2.15
3.55
2.39
-0.66
-4.80
-9.19
-12.97
-15.20
-14.97
-11.61
-4.95
4.60
16.03
28.01
39.17
48.37
54.81
58.06
58.01
54.81
48.90
40.97
31.94
22.78
14.35
7.23
1.70
-2.22
-4.68
-5.95
-6.47
-6.79
-7.49
-9.14
-12.14
-16.70
-22.85
-30.36
-38.68
-46.92
-53.81
-58.02
-58.50
-54.86
-47.59
-37.93
-27.50
-17.76
-9.69
-3.58
0.82
4.04
6.63
8.98
11.32
13.71
16.18
18.71
21.20
23.50
25.38
26.56
26.82
26.03
24.18
21.36
17.64
13.06
7.65
1.51
-5.04
-11.42
-16.87
-20.66
-22.31
-21.80
-19.58
-16.46
-13.43
-11.42
-11.11
-12.73
-15.94
-19.83
-23.13
-24.49
-22.93
-18.15
-10.62
-1.41
8.12
16.80
23.83
28.85
31.85
33.04
32.73
31.30
29.20
26.90
24.82
23.23
22.19
21.57
21.15
20.68
20.05
19.26
18.46
17.84
17.50
17.36
17.10
16.31
14.55
11.56
7.39
2.40
-2.86
-7.76
-11.79
-14.65
-16.38
-17.33
-18.09
-19.32
-21.48
-24.61
-28.15
-31.17
-32.58
-31.62
-28.12
-22.55
-15.83
-8.96
-2.68
2.63
6.97
10.45
13.19
15.24
16.58
17.21
17.26
16.93
16.47
16.10
15.96
16.04
16.23
16.31
16.08
15.44
14.41
13.18
11.99
10.99
10.15
9.19
7.72
5.34
1.88
-2.58
-7.60
-12.55
-16.80
-19.93
-21.88
-23.12
-24.55
-27.26
-32.05
-39.04
-47.45
-55.79
-62.40
-66.12
-66.72
-64.94
-62.12
-59.65
-58.40
-58.47
-59.25
-59.80
-59.29
-57.33
-54.04
-49.87
-45.30
-40.47
-34.95
-27.70
-17.13
-1.51
20.66
50.08
86.17
126.82
168.62
207.55
239.86
262.94
275.67
278.16
271.21
255.91
233.47
205.48
174.12
142.07
111.96
85.65
63.66
45.10
28.09
10.42
-9.84
-33.76
-61.17
-90.46
-118.69
-142.13
-157.27
-161.89
-155.87
-141.27
-121.56
-100.50
-81.00
-64.67
-51.82
-42.06
-34.85
-29.70
-26.16
-23.73
-21.71
-19.44
-16.49
-12.82
-8.88
-5.32
-2.65
-1.09
-0.39
-0.15
0.06
0.39
0.74
0.84
0.52
-0.19
-1.00
-1.50
-1.38
-0.54
0.81
2.26
3.31
3.56
2.86
1.27
-0.95
-3.52
-6.21
-8.96
-11.78
-14.74
-17.81
-20.81
-23.37
-25.00
-25.19
-23.60
-20.16
-15.21
-9.41
-3.55
1.64
5.71
8.52
10.17
10.88
10.87
10.34
9.51
8.62
7.92
7.57
7.57
7.76
7.94
7.97
7.92
8.00
8.48
9.57
11.24
13.26
15.15
16.34
16.31
14.74
11.64
7.36
2.49
-2.29
-6.47
-9.78
-12.23
-14.01
-15.31
-16.25
-16.82
-17.03
-16.89
-16.53
-16.10
-15.79
-15.76
-16.13
-16.91
-17.94
-18.81
-18.92
-17.60
-14.42
-9.39
-3.05
3.71
9.96
15.07
18.95
21.93
24.61
27.49
30.77
34.27
37.55
40.01
41.11
40.50
38.06
33.91
28.39
22.01
15.34
8.97
3.45
-0.82
-3.61
-4.95
-5.07
-4.41
-3.46
-2.67
-2.32
-2.55
-3.31
-4.50
-6.02
-7.79
-9.75
-11.78
-13.64
-15.04
-15.71
-15.53
-14.58
-13.16
-11.66
-10.48
-9.89
-10.05
-10.88
-12.12
-13.34
-14.04
-13.79
-12.37
-9.93
-6.86
-3.70
-0.98
0.98
2.08
2.36
1.97
1.01
-0.38
-2.05
-3.75
-5.16
-5.92
-5.79
-4.70
-2.81
-0.47
1.94
4.14
5.97
7.43
8.57
9.41
9.91
9.98
9.52
8.47
6.84
4.73
2.29
-0.23
-2.59
-4.57
-6.10
-7.25
-8.26
-9.44
-11.03
-13.03
-15.22
-17.16
-18.37
-18.45
-17.22
-14.77
-11.42
-7.59
-3.78
-0.43
2.12
3.68
4.21
3.84
2.80
1.38
-0.11
-1.33
-1.97
-1.82
-0.80
0.97
3.19
5.50
7.58
9.32
10.72
11.83
12.59
12.79
12.13
10.43
7.70
4.25
0.52
-3.10
-6.32
-9.05
-11.29
-13.06
-14.33
-15.13
-15.55
-15.81
-16.19
-16.86
-17.75
-18.51
-18.66
-17.75
-15.63
-12.45
-8.61
-4.57
-0.77
2.52
5.11
6.93
7.91
8.06
7.40
5.98
3.89
1.27
-1.65
-4.56
-7.11
-9.03
-10.16
-10.55
-10.38
-9.87
-9.23
-8.64
-8.25
-8.16
-8.41
-8.90
-9.43
-9.78
-9.82
-9.50
-8.81
-7.69
-5.94
-3.39
0.04
4.10
8.20
11.53
13.37
13.34
11.66
9.01
6.29
4.22
3.09
2.61
2.19
1.21
-0.55
-2.86
-5.08
-6.53
-6.79
-5.88
-4.20
-2.17
-0.07
2.18
4.95
8.68
13.66
19.88
27.01
34.49
41.74
48.26
53.81
58.31
61.84
64.49
66.37
67.49
67.81
67.15
65.20
61.53
55.71
47.56
37.25
25.38
12.84
0.43
-11.39
-22.63
-33.57
-44.44
-54.99
-64.49
-71.90
-76.34
-77.42
-75.41
-71.03
-65.18
-58.60
-51.79
-45.08
-38.80
-33.29
-28.95
-25.99
-24.36
-23.68
-23.35
-22.86
-21.89
-20.42
-18.72
-17.10
-15.79
-14.80
-13.93
-12.87
-11.37
-9.34
-6.92
-4.44
-2.32
-0.94
-0.49
-0.93
-2.05
-3.50
-4.93
-6.12
-6.94
-7.39
-7.55
-7.51
-7.32
-7.06
-6.83
-6.89
-7.64
-9.51
-12.73
-17.22
-22.35
-27.10
-30.27
-30.90
-28.55
-23.46
-16.43
-8.52
-0.72
6.25
12.02
16.50
19.77
21.96
23.23
23.75
23.77
23.58
23.46
23.61
24.07
24.75
25.45
25.95
26.07
25.71
24.81
23.37
21.40
18.99
16.27
13.44
10.66
8.00
5.40
2.73
-0.13
-3.19
-6.25
-9.01
-11.20
-12.70
-13.69
-14.60
-15.95
-18.17
-21.36
-25.24
-29.20
-32.37
-33.92
-33.18
-29.82
-23.93
-16.01
-6.90
2.37
10.78
17.55
22.22
24.76
25.49
24.94
23.70
22.26
20.97
20.01
19.44
19.27
19.45
19.83
20.18
20.28
19.90
19.01
17.76
16.49
15.55
15.20
15.49
16.17
16.87
17.13
16.59
15.00
12.31
8.63
4.20
-0.65
-5.52
-9.99
-13.71
-16.44
-18.15
-19.01
-19.43
-19.84
-20.62
-21.89
-23.40
-24.65
-25.00
-23.96
-21.29
-17.07
-11.58
-5.19
1.79
9.09
16.44
23.46
29.70
34.67
37.99
39.47
39.10
37.10
33.79
29.59
25.04
20.74
17.21
14.91
14.04
14.56
16.23
18.65
21.36
23.89
25.82
26.80
26.64
25.28
22.83
19.54
15.68
11.47
7.01
2.38
-2.35
-6.95
-11.04
-14.12
-15.72
-15.58
-13.78
-10.82
-7.45
-4.56
-2.89
-2.84
-4.34
-6.82
-9.32
-10.75
-10.17
-7.14
-1.80
5.13
12.65
19.79
25.88
30.71
34.42
37.30
39.63
41.43
42.52
42.52
41.07
38.03
33.68
28.74
24.20
21.04
19.80
20.40
22.13
24.01
25.09
24.71
22.56
18.54
12.61
4.80
-4.70
-15.38
-26.44
-36.91
-45.96
-53.16
-58.44
-62.08
-64.43
-65.83
-66.51
-66.68
-66.56
-66.47
-66.68
-67.30
-68.14
-68.61
-67.89
-65.12
-59.70
-51.51
-41.01
-29.08
-16.81
-5.22
4.92
13.14
19.29
23.44
25.80
26.72
26.56
25.67
24.36
22.85
21.34
20.05
19.15
18.80
18.95
19.43
19.94
20.16
19.92
19.26
18.31
17.23
16.08
14.76
13.16
11.21
9.04
6.89
5.06
3.73
2.95
2.61
2.49
2.42
2.22
1.76
0.92
-0.27
-1.52
-2.24
-1.58
1.24
6.72
14.80
24.82
35.69
46.26
55.58
63.08
68.48
71.65
72.46
70.67
66.06
58.54
48.23
35.46
20.71
4.48
-12.66
-30.00
-46.55
-61.05
-72.21
-79.02
-81.09
-78.82
-73.18
-65.50
-57.01
-48.70
-41.28
-35.22
-30.81
-28.14
-27.06
-27.12
-27.73
-28.37
-28.82
-29.20
-30.01
-31.82
-35.01
-39.57
-44.86
-49.82
-53.20
-54.01
-51.84
-47.07
-40.72
-34.14
-28.54
-24.68
-22.75
-22.48
-23.40
-25.07
-27.22
-29.72
-32.51
-35.44
-38.31
-40.86
-42.83
-44.09
-44.59
-44.24
-42.82
-39.91
-34.96
-27.49
-17.32
-4.80
9.30
23.88
37.86
50.42
61.12
69.81
76.45
81.01
83.35
83.28
80.75
75.91
69.17
61.13
52.46
43.82
35.74
28.75
23.30
19.77
18.38
19.06
21.42
24.78
28.37
31.43
33.36
33.70
32.13
28.55
23.13
16.41
9.24
2.62
-2.58
-5.89
-7.32
-7.24
-6.28
-4.99
-3.79
-2.88
-2.26
-1.74
-1.13
-0.26
0.85
2.02
2.88
3.10
2.45
0.93
-1.23
-3.69
-6.12
-8.31
-10.19
-11.76
-13.12
-14.37
-15.63
-17.00
-18.53
-20.10
-21.40
-21.90
-21.01
-18.24
-13.47
-7.02
0.34
7.60
13.80
18.24
20.63
21.10
20.05
18.00
15.45
12.79
10.25
7.97
5.99
4.36
3.12
2.30
1.92
1.97
2.31
2.77
3.12
3.15
2.79
2.06
1.11
0.10
-0.91
-1.97
-3.24
-4.83
-6.77
-8.91
-11.00
-12.78
-14.11
-14.99
-15.55
-15.98
-16.44
-17.10
-18.10
-19.55
-21.42
-23.43
-24.95
-25.22
-23.53
-19.55
-13.53
-6.20
1.44
8.44
14.14
18.26
20.80
21.90
21.78
20.67
18.91
16.91
15.15
14.00
13.63
13.94
14.60
15.24
15.60
15.63
15.48
15.37
15.46
15.75
16.06
16.12
15.66
14.54
12.76
10.44
7.80
5.12
2.69
0.75
-0.63
-1.49
-2.09
-2.70
-3.56
-4.79
-6.31
-7.89
-9.27
-10.28
-10.90
-11.33
-11.88
-12.88
-14.51
-16.75
-19.22
-21.33
-22.38
-21.74
-19.08
-14.46
-8.35
-1.51
5.18
10.95
15.29
17.98
19.12
18.95
17.85
16.19
14.35
12.67
11.41
10.70
10.55
10.79
11.22
11.63
11.91
12.06
12.14
12.19
12.16
11.98
11.58
10.97
10.22
9.42
8.62
7.78
6.81
5.60
4.13
2.41
0.52
-1.45
-3.42
-5.31
-7.07
-8.67
-10.13
-11.52
-12.97
-14.61
-16.51
-18.64
-20.86
-22.98
-24.82
-26.31
-27.50
-28.59
-29.83
-31.30
-32.85
-34.03
-34.18
-32.72
-29.36
-24.25
-17.91
-11.13
-4.69
0.79
4.96
7.71
9.15
9.54
9.29
8.79
8.43
8.48
9.02
9.96
11.12
12.24
13.08
13.50
13.42
12.89
12.03
10.97
9.80
8.57
7.28
5.90
4.46
3.01
1.63
0.40
-0.64
-1.52
-2.27
-2.97
-3.66
-4.36
-5.08
-5.83
-6.67
-7.67
-8.91
-10.47
-12.38
-14.62
-17.12
-19.72
-22.21
-24.31
-25.75
-26.26
-25.66
-23.90
-21.06
-17.32
-12.90
-8.06
-3.08
1.76
6.13
9.74
12.35
13.86
14.36
14.17
13.67
13.22
12.96
12.80
12.51
11.84
10.71
9.31
7.96
7.00
6.59
6.60
6.72
6.62
6.10
5.23
4.22
3.28
2.44
1.51
0.19
-1.72
-4.20
-6.94
-9.48
-11.43
-12.63
-13.20
-13.47
-13.84
-14.59
-15.83
-17.55
-19.53
-21.44
-22.84
-23.22
-22.11
-19.24
-14.62
-8.53
-1.53
5.73
12.60
18.50
23.05
26.04
27.41
27.27
25.87
23.58
20.83
18.10
15.74
14.01
12.97
12.54
12.51
12.72
13.07
13.52
14.06
14.60
14.97
14.90
14.19
12.78
10.80
8.56
6.37
4.48
2.96
1.78
0.77
-0.20
-1.23
-2.35
-3.56
-4.86
-6.25
-7.74
-9.30
-10.92
-12.57
-14.34
-16.31
-18.59
-21.12
-23.58
-25.46
-26.17
-25.28
-22.72
-18.85
-14.30
-9.80
-5.88
-2.76
-0.37
1.52
3.10
4.40
5.27
5.41
4.47
2.19
-1.53
-6.55
-12.48
-18.71
-24.60
-29.52
-32.99
-34.76
-34.82
-33.31
-30.55
-26.89
-22.71
-18.40
-14.33
-10.80
-7.97
-5.83
-4.24
-3.00
-1.94
-1.04
-0.33
0.17
0.51
0.91
1.64
2.90
4.75
7.12
9.90
13.00
16.49
20.47
25.05
30.15
35.45
40.35
44.08
45.84
44.99
41.36
35.20
27.22
18.30
9.25
0.64
-7.13
-13.79
-19.03
-22.44
-23.66
-22.34
-18.19
-10.96
-0.34
13.78
31.07
50.45
70.15
87.93
101.74
110.26
113.16
110.97
104.68
95.31
83.62
70.21
55.65
40.65
26.09
12.82
1.48
-7.70
-14.92
-20.74
-25.80
-30.65
-35.54
-40.43
-45.15
-49.53
-53.61
-57.53
-61.41
-65.05
-67.88
-69.07
-67.82
-63.84
-57.46
-49.56
-41.28
-33.65
-27.29
-22.39
-18.82
-16.28
-14.56
-13.50
-13.08
-13.28
-14.04
-15.15
-16.26
-16.94
-16.79
-15.61
-13.47
-10.79
-8.07
-5.83
-4.38
-3.74
-3.73
-4.06
-4.52
-5.00
-5.57
-6.36
-7.43
-8.77
-10.22
-11.56
-12.52
-12.80
-12.08
-10.15
-6.94
-2.82
1.45
4.78
6.12
4.90
1.41
-3.18
-7.20
-8.98
-7.45
-2.38
5.58
15.15
24.66
32.44
37.09
37.80
34.53
28.02
19.50
10.30
1.40
-6.77
-14.20
-21.01
-27.09
-32.04
-35.31
-36.49
-35.47
-32.56
-28.24
-23.01
-17.26
-11.25
-5.27
0.30
4.95
8.15
9.55
9.10
7.14
4.34
1.43
-1.00
-2.64
-3.57
-4.15
-4.89
-6.22
-8.40
-11.38
-14.82
-18.15
-20.64
-21.63
-20.62
-17.49
-12.43
-5.96
1.25
8.49
15.13
20.69
24.81
27.30
28.12
27.38
25.39
22.53
19.29
16.13
13.49
11.66
10.83
11.00
12.00
13.53
15.22
16.70
17.72
18.14
17.90
17.01
15.50
13.37
10.67
7.49
4.00
0.41
-3.01
-6.08
-8.67
-10.80
-12.55
-14.12
-15.76
-17.73
-20.22
-23.17
-26.26
-28.88
-30.29
-29.82
-27.11
-22.20
-15.50
-7.69
0.43
8.11
14.72
19.82
23.22
25.00
25.49
25.17
24.53
23.96
23.70
23.88
24.57
25.82
27.63
29.94
32.55
35.17
37.44
39.05
39.79
39.64
38.73
37.27
35.51
33.60
31.60
29.47
27.21
24.87
22.57
20.47
18.72
17.41
16.53
15.98
15.68
15.50
15.31
15.03
14.72
14.70
15.53
17.96
22.70
30.01
39.46
49.84
59.39
66.27
69.06
67.20
60.98
51.34
39.44
26.29
12.65
-0.91
-13.89
-25.76
-36.01
-44.33
-50.71
-55.36
-58.55
-60.45
-61.08
-60.45
-58.78
-56.56
-54.48
-53.16
-52.85
-53.35
-54.17
-54.75
-54.75
-54.08
-52.85
-51.18
-49.14
-46.73
-43.99
-41.15
-38.62
-36.86
-36.31
-37.15
-39.19
-41.94
-44.60
-46.32
-46.36
-44.31
-40.15
-34.24
-27.24
-19.91
-13.00
-7.08
-2.58
0.35
1.76
1.89
1.21
0.22
-0.50
-0.55
0.28
1.91
3.97
5.93
7.32
7.92
7.84
7.49
7.34
7.72
8.70
10.10
11.59
12.86
13.73
14.28
14.86
16.21
19.36
25.37
34.86
47.55
62.01
75.91
86.66
92.24
91.84
85.93
75.86
63.13
48.82
33.43
17.11
0.19
-16.44
-31.28
-42.57
-48.87
-49.60
-45.30
-37.44
-27.93
-18.55
-10.40
-3.84
1.34
5.52
8.92
11.48
12.96
13.21
12.37
10.86
9.24
7.90
6.94
6.18
5.32
4.20
2.91
1.70
0.80
0.25
-0.19
-0.85
-2.04
-3.83
-6.12
-8.62
-11.11
-13.51
-15.85
-18.28
-20.80
-23.30
-25.49
-27.11
-27.93
-28.02
-27.70
-27.49
-27.97
-29.59
-32.48
-36.32
-40.39
-43.56
-44.65
-42.68
-37.24
-28.66
-18.03
-6.86
3.39
11.62
17.46
21.17
23.39
24.86
26.06
27.18
28.14
28.74
28.80
28.22
26.95
25.00
22.44
19.46
16.37
13.54
11.33
9.88
9.07
8.56
8.00
7.17
6.05
4.85
3.80
3.00
2.36
1.61
0.46
-1.29
-3.64
-6.34
-9.01
-11.25
-12.81
-13.66
-14.08
-14.52
-15.50
-17.39
-20.18
-23.46
-26.46
-28.24
-27.97
-25.18
-19.96
-12.93
-5.10
2.42
8.65
13.04
15.53
16.49
16.50
16.14
15.76
15.50
15.35
15.22
15.11
15.01
14.90
14.73
14.49
14.20
14.02
14.13
14.62
15.42
16.19
16.54
16.10
14.75
12.58
9.89
7.03
4.28
1.77
-0.54
-2.79
-5.13
-7.63
-10.18
-12.59
-14.63
-16.13
-17.10
-17.68
-18.08
-18.55
-19.29
-20.38
-21.73
-23.05
-23.82
-23.41
-21.22
-16.95
-10.73
-3.20
4.65
11.74
17.21
20.61
21.93
21.56
20.04
17.94
15.68
13.51
11.57
9.93
8.69
7.99
7.98
8.71
10.10
11.87
13.62
14.98
15.69
15.68
15.08
14.04
12.62
10.74
8.17
4.75
0.54
-4.07
-8.47
-12.00
-14.26
-15.25
-15.23
-14.61
-13.65
-12.39
-10.75
-8.77
-6.72
-5.11
-4.49
-5.11
-6.76
-8.80
-10.35
-10.66
-9.29
-6.27
-1.97
3.00
7.93
12.19
15.26
16.83
16.80
15.28
12.60
9.17
5.46
1.93
-1.04
-3.18
-4.34
-4.55
-3.89
-2.55
-0.76
1.26
3.29
5.11
6.47
7.18
7.09
6.11
4.28
1.66
-1.58
-5.23
-9.00
-12.54
-15.50
-17.58
-18.60
-18.55
-17.65
-16.26
-14.86
-13.91
-13.75
-14.56
-16.24
-18.48
-20.78
-22.52
-23.06
-21.87
-18.66
-13.47
-6.76
0.75
8.17
14.67
19.73
23.13
25.02
25.79
25.85
25.55
25.02
24.21
22.97
21.20
18.98
16.60
14.50
13.08
12.57
12.94
13.87
14.93
15.70
15.93
15.54
14.66
13.45
12.08
10.64
9.17
7.72
6.35
5.19
4.34
3.85
3.65
3.59
3.52
3.32
2.95
2.43
1.79
1.05
0.29
-0.34
-0.59
-0.18
1.11
3.30
6.16
9.28
12.17
14.45
15.88
16.36
15.86
14.37
11.80
8.14
3.47
-1.92
-7.58
-13.00
-17.70
-21.41
-24.00
-25.52
-26.03
-25.64
-24.41
-22.46
-19.97
-17.19
-14.42
-11.93
-9.89
-8.39
-7.46
-7.03
-7.06
-7.51
-8.35
-9.57
-11.17
-13.24
-15.87
-19.19
-23.14
-27.38
-31.22
-33.77
-34.24
-32.24
-28.01
-22.37
-16.45
-11.39
-7.93
-6.36
-6.40
-7.47
-8.82
-9.75
-9.76
-8.66
-6.50
-3.59
-0.29
3.04
6.10
8.66
10.58
11.81
12.41
12.52
12.29
11.76
10.83
9.21
6.59
2.77
-2.17
-7.91
-13.88
-19.42
-23.98
-27.26
-29.27
-30.36
-31.00
-31.56
-32.12
-32.39
-31.82
-29.88
-26.34
-21.33
-15.32
-8.90
-2.61
3.16
8.16
12.21
15.19
17.09
18.09
18.62
19.22
20.40
22.47
25.38
28.81
32.25
35.22
37.36
38.53
38.73
38.05
36.54
34.22
31.07
27.13
22.53
17.56
12.60
8.04
4.19
1.16
-1.11
-2.85
-4.33
-5.83
-7.48
-9.25
-10.96
-12.23
-12.60
-11.65
-9.13
-5.13
-0.08
5.35
10.40
14.42
17.03
18.13
17.92
16.69
14.81
12.56
10.21
7.93
5.87
4.19
2.97
2.27
2.02
2.07
2.18
2.16
1.84
1.22
0.37
-0.59
-1.60
-2.63
-3.74
-5.01
-6.48
-8.14
-9.88
-11.61
-13.18
-14.51
-15.56
-16.40
-17.18
-18.08
-19.28
-20.73
-22.16
-23.06
-22.82
-20.92
-17.12
-11.55
-4.67
2.85
10.25
16.85
22.13
25.79
27.77
28.20
27.37
25.61
23.29
20.80
18.46
16.53
15.14
14.25
13.62
12.94
11.95
10.52
8.73
6.78
4.85
3.08
1.47
-0.00
-1.35
-2.58
-3.70
-4.73
-5.73
-6.74
-7.69
-8.45
-8.80
-8.64
-8.04
-7.29
-6.88
-7.24
-8.62
-10.96
-13.86
-16.69
-18.71
-19.25
-17.81
-14.21
-8.66
-1.76
5.55
12.25
17.44
20.67
21.97
21.85
21.00
20.04
19.27
18.64
17.86
16.66
15.04
13.37
12.28
12.43
14.17
17.37
21.38
25.26
28.07
29.18
28.40
26.02
22.76
19.57
17.50
17.50
20.19
25.66
33.32
41.92
49.79
55.17
56.68
53.65
46.29
35.60
23.06
10.19
-1.79
-12.27
-21.13
-28.62
-35.00
-40.33
-44.40
-46.81
-47.19
-45.32
-41.30
-35.44
-28.29
-20.49
-12.73
-5.70
-0.03
3.82
5.58
5.28
3.21
-0.17
-4.26
-8.46
-12.21
-15.10
-16.90
-17.62
-17.49
-16.84
-16.00
-15.14
-14.31
-13.46
-12.62
-11.87
-11.41
-11.42
-11.96
-12.99
-14.36
-15.89
-17.42
-18.83
-20.03
-20.98
-21.71
-22.41
-23.36
-24.84
-26.99
-29.69
-32.52
-34.83
-35.89
-35.11
-32.18
-27.19
-20.62
-13.20
-5.72
1.13
6.93
11.51
14.88
17.18
18.54
19.11
19.04
18.60
18.08
17.80
18.01
18.84
20.26
22.11
24.10
25.89
27.13
27.55
26.97
25.40
22.92
19.70
15.86
11.55
6.96
2.37
-1.86
-5.34
-7.86
-9.52
-10.66
-11.80
-13.30
-15.30
-17.59
-19.74
-21.29
-21.89
-21.31
-19.47
-16.35
-12.04
-6.80
-1.08
4.54
9.51
13.51
16.48
18.61
20.14
21.18
21.63
21.22
19.68
16.90
13.02
8.41
3.59
-0.93
-4.78
-7.74
-9.79
-11.03
-11.64
-11.80
-11.67
-11.37
-10.99
-10.61
-10.33
-10.22
-10.28
-10.38
-10.26
-9.61
-8.29
-6.40
-4.41
-3.04
-2.99
-4.74
-8.23
-12.81
-17.40
-20.77
-21.90
-20.24
-15.88
-9.50
-2.13
5.07
11.15
15.56
18.24
19.47
19.72
19.43
18.81
17.91
16.56
14.56
11.78
8.28
4.30
0.34
-3.03
-5.22
-5.84
-4.84
-2.46
0.81
4.45
7.99
11.08
13.49
15.03
15.64
15.34
14.29
12.77
11.06
9.28
7.42
5.35
2.87
-0.10
-3.58
-7.41
-11.32
-14.86
-17.44
-18.35
-17.06
-13.37
-7.65
-0.74
6.21
12.15
16.37
18.60
18.96
17.80
15.53
12.61
9.48
6.62
4.50
3.48
3.71
5.17
7.64
10.80
14.28
17.66
20.48
22.28
22.63
21.27
18.14
13.44
7.55
1.02
-5.56
-11.63
-16.76
-20.72
-23.50
-25.36
-26.71
-28.10
-29.98
-32.62
-35.95
-39.58
-42.84
-44.95
-45.27
-43.40
-39.33
-33.43
-26.39
-18.97
-11.89
-5.68
-0.59
3.31
6.04
7.62
8.10
7.60
6.39
4.82
3.34
2.22
1.60
1.42
1.55
1.87
2.31
2.84
3.33
3.58
3.32
2.39
0.80
-1.25
-3.42
-5.44
-7.20
-8.77
-10.36
-12.16
-14.25
-16.60
-19.13
-21.78
-24.54
-27.31
-29.79
-31.39
-31.40
-29.15
-24.33
-17.10
-8.12
1.69
11.38
20.11
27.30
32.59
35.77
36.81
35.79
32.97
28.76
23.75
18.56
13.84
10.11
7.68
6.58
6.63
7.53
8.96
10.70
12.52
14.19
15.39
15.78
15.03
12.97
9.65
5.33
0.48
-4.39
-8.80
-12.40
-15.04
-16.81
-17.97
-18.82
-19.54
-20.04
-19.93
-18.62
-15.56
-10.48
-3.57
4.49
12.69
19.93
25.37
28.61
29.77
29.32
27.94
26.17
24.35
22.54
20.65
18.59
16.36
14.06
11.85
9.83
8.01
6.35
4.80
3.36
2.11
1.09
0.23
-0.64
-1.83
-3.61
-6.12
-9.25
-12.67
-15.91
-18.51
-20.17
-20.88
-20.88
-20.61
-20.58
-21.10
-22.20
-23.58
-24.64
-24.73
-23.35
-20.35
-15.97
-10.77
-5.44
-0.58
3.38
6.26
8.08
8.96
9.10
8.72
8.05
7.27
6.59
6.09
5.85
5.85
6.11
6.59
7.25
8.03
8.82
9.47
9.83
9.78
9.26
8.28
6.93
5.34
3.65
2.03
0.61
-0.45
-1.10
-1.43
-1.67
-2.18
-3.26
-5.06
-7.52
-10.40
-13.40
-16.20
-18.48
-19.85
-19.91
-18.31
-15.00
-10.32
-4.95
0.25
4.59
7.70
9.60
10.57
10.94
10.97
10.77
10.39
9.89
9.39
9.16
9.46
10.45
12.12
14.18
16.20
17.73
18.50
18.50
17.97
17.22
16.50
15.86
15.20
14.33
13.03
11.19
8.81
6.05
3.22
0.70
-1.20
-2.35
-2.88
-3.13
-3.52
-4.42
-6.04
-8.40
-11.41
-14.85
-18.36
-21.39
-23.28
-23.41
-21.36
-17.20
-11.40
-4.75
1.96
8.07
13.24
17.34
20.30
22.11
22.80
22.54
21.68
20.67
19.90
19.48
19.23
18.82
17.95
16.55
14.81
12.98
11.27
9.66
7.96
5.93
3.40
0.41
-2.87
-6.16
-9.22
-11.89
-14.13
-16.01
-17.66
-19.30
-21.11
-23.23
-25.65
-28.16
-30.39
-31.92
-32.28
-31.15
-28.38
-24.09
-18.59
-12.36
-5.92
0.23
5.69
10.11
13.25
14.93
15.07
13.74
11.16
7.74
3.99
0.46
-2.39
-4.29
-5.07
-4.77
-3.49
-1.46
1.01
3.50
5.51
6.60
6.49
5.16
2.87
0.09
-2.67
-5.01
-6.76
-8.02
-9.06
-10.22
-11.72
-13.60
-15.70
-17.67
-19.08
-19.54
-18.72
-16.52
-12.99
-8.40
-3.19
2.11
7.02
11.13
14.21
16.14
16.91
16.58
15.29
13.27
10.89
8.56
6.62
5.24
4.37
3.92
3.75
3.85
4.28
5.06
6.08
7.02
7.51
7.23
6.06
4.09
1.56
-1.22
-3.98
-6.50
-8.69
-10.51
-12.08
-13.57
-15.19
-17.02
-18.97
-20.74
-21.84
-21.80
-20.25
-17.11
-12.55
-6.95
-0.88
5.10
10.43
14.66
17.51
18.86
18.80
17.56
15.52
13.07
10.59
8.33
6.46
5.08
4.20
3.80
3.82
4.17
4.77
5.50
6.24
6.82
7.03
6.67
5.65
4.01
1.97
-0.16
-2.06
-3.58
-4.73
-5.76
-6.99
-8.69
-10.93
-13.50
-15.87
-17.33
-17.17
-14.91
-10.55
-4.52
2.35
9.14
15.05
19.58
22.58
24.15
24.56
24.10
23.03
21.60
19.98
18.37
16.87
15.60
14.64
14.05
13.88
14.11
14.63
15.28
15.89
16.25
16.23
15.75
14.78
13.36
11.59
9.62
7.60
5.65
3.79
1.85
-0.45
-3.52
-7.69
-13.07
-19.46
-26.26
-32.62
-37.61
-40.51
-41.01
-39.26
-35.78
-31.26
-26.38
-21.65
-17.42
-13.92
-11.26
-9.41
-8.25
-7.56
-7.10
-6.66
-6.13
-5.47
-4.65
-3.67
-2.51
-1.20
0.16
1.40
2.34
2.82
2.79
2.23
1.19
-0.24
-1.98
-3.88
-5.80
-7.57
-9.10
-10.33
-11.30
-12.17
-13.14
-14.43
-16.18
-18.39
-20.91
-23.33
-25.08
-25.50
-24.05
-20.42
-14.72
-7.46
0.53
8.26
14.88
19.81
22.85
24.17
24.15
23.26
21.88
20.29
18.67
17.16
15.89
14.93
14.30
13.95
13.76
13.59
13.36
13.06
12.76
12.48
12.14
11.58
10.63
9.21
7.36
5.31
3.31
1.49
-0.15
-1.78
-3.54
-5.49
-7.50
-9.35
-10.80
-11.78
-12.42
-12.98
-13.79
-15.13
-17.12
-19.70
-22.51
-24.99
-26.46
-26.28
-24.03
-19.68
-13.62
-6.58
0.57
7.02
12.22
15.93
18.21
19.31
19.49
19.06
18.27
17.35
16.52
15.94
15.69
15.72
15.92
16.12
16.23
16.24
16.23
16.29
16.46
16.67
16.80
16.71
16.23
15.27
13.78
11.87
9.70
7.50
5.46
3.71
2.27
1.08
0.09
-0.80
-1.66
-2.58
-3.66
-4.96
-6.50
-8.21
-9.98
-11.65
-13.17
-14.53
-15.83
-17.17
-18.70
-20.50
-22.63
-25.07
-27.67
-30.09
-31.79
-32.11
-30.48
-26.61
-20.66
-13.23
-5.22
2.40
8.93
13.98
17.58
19.95
21.42
22.26
22.65
22.66
22.33
21.70
20.81
19.77
18.66
17.53
16.37
15.12
13.71
12.17
10.60
9.19
8.11
7.41
7.00
6.73
6.44
6.09
5.77
5.64
5.80
6.25
6.82
7.26
7.34
6.96
6.13
4.99
3.68
2.30
0.82
-0.87
-2.86
-5.14
-7.58
-9.92
-11.90
-13.32
-14.16
-14.54
-14.70
-14.90
-15.38
-16.23
-17.38
-18.57
-19.31
-19.04
-17.25
-13.73
-8.62
-2.45
4.02
10.01
14.92
18.48
20.69
21.76
22.00
21.73
21.17
20.49
19.73
18.88
17.91
16.78
15.54
14.24
12.92
11.60
10.26
8.86
7.43
6.00
4.62
3.31
2.04
0.75
-0.59
-1.98
-3.34
-4.57
-5.66
-6.63
-7.54
-8.45
-9.37
-10.25
-11.06
-11.79
-12.44
-13.08
-13.76
-14.45
-15.10
-15.60
-15.90
-16.01
-16.07
-16.27
-16.76
-17.57
-18.48
-19.03
-18.59
-16.62
-12.91
-7.63
-1.37
5.08
10.99
15.85
19.47
21.89
23.27
23.82
23.73
23.16
22.25
21.11
19.83
18.47
17.18
16.09
15.39
15.22
15.60
16.43
17.57
18.94
20.51
22.43
24.74
27.39
30.10
32.47
34.14
34.91
34.79
33.87
32.25
29.88
26.58
22.14
16.44
9.53
1.49
-7.53
-17.46
-28.11
-39.18
-50.11
-60.21
-68.78
-75.30
-79.54
-81.42
-80.95
-78.09
-72.86
-65.45
-56.41
-46.61
-37.03
-28.53
-21.55
-16.07
-11.74
-8.15
-5.08
-2.61
-1.00
-0.54
-1.33
-3.22
-5.81
-8.59
-11.06
-12.91
-14.00
-14.36
-14.13
-13.44
-12.34
-10.85
-8.97
-6.82
-4.69
-3.03
-2.28
-2.73
-4.37
-6.82
-9.54
-11.97
-13.76
-14.88
-15.57
-16.15
-16.87
-17.77
-18.73
-19.59
-20.36
-21.22
-22.49
-24.33
-26.53
-28.43
-29.11
-27.66
-23.53
-16.59
-7.03
4.85
18.75
34.27
50.68
66.81
81.11
92.00
98.26
99.39
95.58
87.55
76.18
62.29
46.54
29.60
12.21
-4.74
-20.28
-33.54
-43.77
-50.37
-52.85
-50.74
-43.72
-31.75
-15.38
4.04
24.44
43.37
58.62
68.76
73.53
73.76
70.92
66.52
61.63
56.61
51.34
45.55
39.04
31.93
24.41
16.61
8.54
0.18
-8.26
-16.12
-22.37
-25.94
-26.15
-23.10
-17.65
-11.18
-5.17
-0.74
1.53
1.59
-0.19
-3.23
-6.87
-10.40
-13.17
-14.61
-14.32
-12.10
-8.02
-2.32
4.58
12.12
19.67
26.53
32.01
35.53
36.71
35.43
31.88
26.48
19.77
12.24
4.26
-3.91
-12.06
-19.93
-27.16
-33.32
-38.04
-41.13
-42.71
-43.16
-43.00
-42.75
-42.79
-43.27
-44.21
-45.42
-46.67
-47.62
-47.89
-47.16
-45.17
-41.84
-37.28
-31.77
-25.70
-19.51
-13.63
-8.43
-4.22
-1.19
0.61
1.23
0.90
-0.05
-1.26
-2.31
-2.91
-2.84
-2.06
-0.66
1.15
3.15
5.12
6.90
8.35
9.41
9.98
9.97
9.24
7.65
5.18
1.96
-1.69
-5.28
-8.32
-10.45
-11.61
-11.99
-12.01
-12.10
-12.61
-13.76
-15.53
-17.76
-20.08
-21.96
-22.76
-21.90
-19.05
-14.29
-8.16
-1.55
4.57
9.44
12.68
14.39
14.92
14.71
14.13
13.36
12.48
11.54
10.65
9.95
9.56
9.45
9.47
9.42
9.13
8.63
8.09
7.74
7.73
7.97
8.20
8.06
7.29
5.84
3.91
1.81
-0.21
-2.03
-3.74
-5.46
-7.32
-9.38
-11.64
-14.05
-16.53
-18.89
-20.77
-21.62
-20.86
-18.10
-13.35
-7.06
-0.05
6.76
12.66
17.24
20.50
22.64
23.93
24.61
24.73
24.25
23.08
21.18
18.60
15.54
12.26
9.06
6.22
3.93
2.24
1.02
-0.01
-1.26
-3.23
-6.29
-10.58
-15.83
-21.41
-26.44
-30.09
-31.78
-31.32
-28.86
-24.76
-19.48
-13.61
-7.93
-3.46
-1.32
-2.39
-6.96
-14.50
-23.66
-32.59
-39.40
-42.55
-41.22
-35.39
-25.80
-13.83
-1.16
10.59
20.20
27.08
31.36
33.64
34.70
35.14
35.27
35.11
34.65
33.96
33.24
32.71
32.37
31.98
31.08
29.31
26.61
23.35
20.13
17.59
16.04
15.42
15.36
15.44
15.36
15.12
14.91
14.88
15.11
15.35
15.18
14.08
11.69
8.00
3.49
-1.02
-4.55
-6.27
-5.72
-2.91
1.72
7.51
13.70
19.51
24.31
27.59
29.07
28.72
26.81
23.77
20.11
16.23
12.38
8.68
5.10
1.64
-1.77
-5.15
-8.54
-11.99
-15.50
-19.07
-22.57
-25.79
-28.43
-30.12
-30.57
-29.65
-27.50
-24.53
-21.32
-18.49
-16.61
-16.06
-17.06
-19.70
-23.87
-29.22
-35.09
-40.53
-44.43
-45.87
-44.33
-39.88
-33.11
-24.95
-16.34
-8.01
-0.39
6.43
12.57
18.28
23.89
29.71
35.89
42.27
48.31
53.12
55.73
55.41
51.87
45.41
36.80
26.99
16.89
7.21
-1.57
-9.13
-15.21
-19.59
-22.13
-22.81
-21.64
-18.74
-14.27
-8.47
-1.78
5.00
10.82
14.48
15.05
12.22
6.55
-0.64
-7.58
-12.71
-15.07
-14.61
-12.03
-8.43
-4.88
-2.08
-0.32
0.45
0.34
-0.51
-1.99
-3.92
-5.94
-7.54
-8.20
-7.62
-5.85
-3.39
-0.96
0.75
1.33
0.74
-0.72
-2.64
-4.71
-6.78
-8.91
-11.16
-13.50
-15.82
-17.92
-19.70
-21.15
-22.36
-23.50
-24.66
-25.84
-26.88
-27.49
-27.25
-25.70
-22.46
-17.40
-10.68
-2.79
5.60
13.74
21.04
27.09
31.67
34.75
36.35
36.55
35.53
33.51
30.82
27.83
24.90
22.34
20.35
18.95
18.03
17.34
16.61
15.65
14.35
12.70
10.74
8.48
5.95
3.15
0.12
-3.01
-6.07
-8.87
-11.30
-13.34
-15.12
-16.88
-18.90
-21.45
-24.63
-28.22
-31.64
-33.93
-34.08
-31.30
-25.36
-16.76
-6.62
3.63
12.69
19.69
24.35
26.87
27.76
27.55
26.66
25.40
23.90
22.25
20.54
18.84
17.27
15.95
14.94
14.28
13.93
13.81
13.76
13.62
13.23
12.48
11.29
9.63
7.46
4.81
1.79
-1.38
-4.35
-6.78
-8.50
-9.54
-10.26
-11.12
-12.51
-14.60
-17.26
-20.12
-22.73
-24.65
-25.50
-24.95
-22.66
-18.44
-12.35
-4.84
3.21
10.73
16.74
20.67
22.49
22.65
21.77
20.35
18.66
16.74
14.62
12.45
10.54
9.21
8.64
8.77
9.40
10.29
11.30
12.39
13.47
14.30
14.44
13.36
10.69
6.42
1.03
-4.66
-9.66
-13.20
-14.91
-14.94
-13.85
-12.41
-11.28
-10.83
-11.09
-11.81
-12.67
-13.40
-13.97
-14.50
-15.23
-16.32
-17.70
-18.96
-19.40
-18.23
-14.83
-9.08
-1.48
6.91
14.78
20.99
24.94
26.63
26.55
25.42
23.86
22.19
20.52
18.84
17.17
15.58
14.23
13.24
12.62
12.28
12.11
12.02
11.96
11.92
11.82
11.54
10.88
9.67
7.85
5.49
2.80
0.09
-2.42
-4.62
-6.55
-8.32
-10.02
-11.66
-13.16
-14.38
-15.31
-15.97
-16.53
-17.14
-17.95
-19.03
-20.37
-21.91
-23.47
-24.76
-25.34
-24.74
-22.59
-18.80
-13.57
-7.39
-0.93
5.14
10.24
13.98
16.16
16.83
16.19
14.57
12.36
9.99
7.85
6.34
5.79
6.38
8.05
10.48
13.15
15.44
16.92
17.44
17.14
16.31
15.15
13.69
11.83
9.48
6.74
3.87
1.23
-0.96
-2.72
-4.30
-5.98
-7.86
-9.82
-11.53
-12.66
-13.04
-12.71
-11.95
-11.13
-10.63
-10.77
-11.67
-13.17
-14.79
-15.73
-15.14
-12.39
-7.29
-0.21
8.05
16.54
24.49
31.39
37.08
41.57
44.92
47.20
48.50
49.01
49.12
49.29
49.98
51.42
53.60
56.18
58.55
59.94
59.64
57.09
52.18
45.16
36.70
27.59
18.47
9.59
0.74
-8.53
-18.66
-29.68
-41.06
-51.84
-60.91
-67.41
-70.99
-71.87
-70.56
-67.62
-63.35
-57.78
-50.83
-42.53
-33.27
-23.65
-14.39
-6.00
1.32
7.74
13.68
19.61
25.96
33.10
41.21
50.28
60.05
69.99
79.43
87.58
93.78
97.58
98.81
97.52
93.93
88.30
80.75
71.23
59.42
45.01
28.05
9.32
-9.65
-26.97
-41.10
-51.61
-59.57
-67.19
-77.01
-90.90
-109.27
-130.97
-153.62
-174.38
-190.60
-200.40
-202.86
-198.05
-186.97
-171.35
-153.28
-134.84
-117.61
-102.36
-89.03
-77.02
-65.58
-54.42
-43.90
-34.88
-28.27
-24.45
-22.98
-22.61
-21.79
-19.19
-14.14
-6.68
2.62
13.01
23.78
34.35
44.21
52.88
59.95
65.16
68.49
70.24
70.88
70.86
70.44
69.63
68.22
65.96
62.73
58.70
54.27
49.97
46.21
43.19
40.75
38.53
36.12
33.18
29.52
25.12
20.05
14.47
8.57
2.58
-3.30
-8.93
-14.25
-19.26
-23.99
-28.43
-32.43
-35.70
-37.87
-38.52
-37.37
-34.32
-29.55
-23.46
-16.61
-9.57
-2.76
3.56
9.24
14.24
18.42
21.59
23.57
24.31
23.96
22.84
21.38
19.91
18.61
17.45
16.30
15.02
13.59
12.09
10.65
9.42
8.41
7.56
6.64
5.40
3.59
1.05
-2.21
-5.98
-9.96
-13.82
-17.35
-20.53
-23.47
-26.36
-29.36
-32.54
-35.83
-39.02
-41.72
-43.46
-43.68
-41.97
-38.20
-32.64
-25.93
-18.96
-12.55
-7.33
-3.61
-1.43
-0.71
-1.24
-2.74
-4.77
-6.71
-7.85
-7.66
-5.89
-2.71
1.39
5.82
10.11
14.06
17.64
20.91
23.87
26.41
28.34
29.54
29.99
29.78
28.97
27.51
25.19
21.72
16.90
10.78
3.75
-3.52
-10.32
-16.01
-20.21
-22.75
-23.56
-22.58
-19.71
-14.89
-8.28
-0.36
8.11
16.23
23.17
28.42
31.80
33.46
33.67
32.72
30.88
28.37
25.46
22.43
19.57
17.11
15.19
13.77
12.78
12.06
11.49
10.98
10.45
9.83
9.09
8.19
7.11
5.82
4.29
2.45
0.26
-2.30
-5.20
-8.30
-11.35
-13.97
-15.78
-16.53
-16.24
-15.33
-14.41
-14.17
-15.01
-16.86
-19.17
-21.04
-21.62
-20.30
-16.99
-12.06
-6.17
-0.07
5.59
10.35
13.95
16.24
17.18
16.84
15.43
13.30
10.94
8.87
7.49
7.04
7.47
8.60
10.15
11.81
13.36
14.66
15.66
16.34
16.76
16.95
16.89
16.48
15.59
14.11
12.07
9.62
7.04
4.55
2.23
0.01
-2.31
-4.89
-7.72
-10.67
-13.53
-16.14
-18.38
-20.18
-21.44
-21.94
-21.38
-19.45
-15.98
-10.97
-4.64
2.51
9.82
16.52
21.94
25.62
27.49
27.81
27.03
25.54
23.56
21.08
18.01
14.37
10.41
6.64
3.60
1.73
1.21
1.89
3.43
5.34
7.18
8.56
9.22
9.01
7.90
5.97
3.40
0.39
-2.81
-6.03
-9.13
-12.01
-14.64
-17.04
-19.20
-21.14
-22.85
-24.31
-25.55
-26.66
-27.69
-28.60
-29.10
-28.69
-26.82
-23.13
-17.64
-10.86
-3.57
3.41
9.48
14.32
17.87
20.22
21.44
21.65
21.03
19.90
18.63
17.59
17.02
16.96
17.29
17.78
18.24
18.53
18.59
18.41
17.98
17.27
16.25
14.92
13.34
11.60
9.78
7.94
6.06
4.09
1.98
-0.32
-2.82
-5.52
-8.36
-11.30
-14.25
-17.13
-19.93
-22.67
-25.43
-28.10
-30.38
-31.69
-31.39
-28.97
-24.36
-17.99
-10.71
-3.53
2.66
7.34
10.38
11.91
12.15
11.21
9.14
5.99
1.98
-2.45
-6.68
-10.15
-12.45
-13.54
-13.62
-13.05
-12.15
-11.12
-10.10
-9.22
-8.65
-8.57
-9.15
-10.38
-12.12
-14.13
-16.10
-17.74
-18.84
-19.30
-19.16
-18.55
-17.68
-16.77
-16.01
-15.49
-15.22
-15.08
-14.87
-14.29
-13.02
-10.82
-7.58
-3.39
1.45
6.59
11.64
16.36
20.58
24.21
27.18
29.40
30.80
31.34
31.05
30.02
28.47
26.67
24.92
23.50
22.60
22.27
22.39
22.74
23.07
23.10
22.60
21.42
19.47
16.75
13.37
9.56
5.60
1.78
-1.61
-4.38
-6.44
-7.81
-8.68
-9.34
-10.13
-11.36
-13.19
-15.62
-18.44
-21.24
-23.55
-24.87
-24.81
-23.21
-20.15
-15.95
-11.12
-6.15
-1.41
2.83
6.46
9.32
11.23
12.00
11.57
10.04
7.76
5.20
2.82
0.94
-0.28
-0.88
-0.95
-0.60
0.10
1.08
2.30
3.68
5.10
6.43
7.55
8.37
8.88
9.11
9.20
9.22
9.23
9.19
9.02
8.61
7.89
6.85
5.50
3.93
2.25
0.69
-0.43
-0.70
0.30
2.89
7.09
12.63
18.89
25.11
30.50
34.42
36.50
36.58
34.80
31.48
27.11
22.30
17.64
13.63
10.51
8.33
6.98
6.29
6.10
6.30
6.74
7.21
7.48
7.41
6.97
6.25
5.35
4.28
2.88
0.89
-1.87
-5.37
-9.32
-13.24
-16.73
-19.54
-21.74
-23.59
-25.34
-27.07
-28.57
-29.37
-28.88
-26.67
-22.56
-16.75
-9.77
-2.37
4.68
10.72
15.26
18.06
19.09
18.46
16.37
13.03
8.59
3.20
-2.97
-9.62
-16.29
-22.36
-27.27
-30.60
-32.31
-32.65
-32.14
-31.33
-30.68
-30.47
-30.79
-31.59
-32.67
-33.73
-34.35
-34.10
-32.63
-29.81
-25.88
-21.36
-16.97
-13.34
-10.80
-9.27
-8.27
-7.15
-5.26
-2.26
1.81
6.55
11.29
15.35
18.15
19.32
18.78
16.75
13.67
10.16
6.78
3.98
1.97
0.79
0.37
0.62
1.47
2.85
4.60
6.49
8.17
9.33
9.74
9.29
7.99
5.92
3.17
-0.13
-3.84
-7.75
-11.62
-15.19
-18.26
-20.70
-22.54
-23.89
-24.88
-25.53
-25.66
-24.89
-22.76
-18.97
-13.50
-6.72
0.71
8.07
14.65
19.98
23.83
26.21
27.31
27.39
26.75
25.65
24.33
22.97
21.69
20.55
19.51
18.51
17.49
16.38
15.20
14.00
12.84
11.74
10.65
9.49
8.19
6.76
5.29
3.90
2.76
1.97
1.54
1.36
1.17
0.65
-0.53
-2.53
-5.28
-8.40
-11.27
-13.19
-13.55
-12.03
-8.76
-4.23
0.76
5.35
8.84
10.85
11.34
10.55
8.83
6.52
3.90
1.21
-1.28
-3.29
-4.58
-5.07
-4.90
-4.41
-4.00
-3.92
-4.20
-4.62
-4.85
-4.60
-3.81
-2.64
-1.46
-0.65
-0.50
-1.08
-2.24
-3.69
-5.08
-6.18
-6.95
-7.54
-8.29
-9.50
-11.38
-13.88
-16.69
-19.23
-20.85
-20.93
-19.09
-15.31
-10.04
-4.05
1.70
6.34
9.36
10.72
10.82
10.30
9.74
9.45
9.42
9.34
8.89
7.91
6.47
4.86
3.48
2.62
2.43
2.96
4.12
5.79
7.72
9.56
10.80
10.91
9.45
6.26
1.55
-4.10
-9.96
-15.30
-19.57
-22.58
-24.42
-25.41
-25.98
-26.53
-27.31
-28.28
-29.08
-29.13
-27.80
-24.58
-19.29
-12.22
-4.08
4.16
11.50
17.19
20.85
22.54
22.63
21.62
19.95
17.92
15.67
13.34
11.13
9.30
8.10
7.69
8.01
8.83
9.87
10.86
11.61
12.04
12.07
11.64
10.69
9.18
7.15
4.75
2.18
-0.42
-2.94
-5.37
-7.75
-10.09
-12.38
-14.56
-16.59
-18.45
-20.13
-21.57
-22.62
-22.96
-22.18
-19.94
-16.09
-10.75
-4.37
2.38
8.65
13.61
16.56
17.14
15.36
11.72
7.05
2.33
-1.46
-3.60
-3.72
-1.82
1.76
6.36
11.13
15.17
17.72
18.38
17.22
14.81
11.94
9.39
7.67
6.91
6.87
7.06
7.00
6.31
4.81
2.55
-0.27
-3.38
-6.50
-9.44
-12.06
-14.34
-16.31
-18.06
-19.70
-21.34
-23.03
-24.67
-25.96
-26.39
-25.43
-22.67
-18.04
-11.87
-4.79
2.47
9.26
15.14
19.84
23.21
25.17
25.67
24.76
22.69
19.90
16.91
14.26
12.31
11.24
11.02
11.44
12.20
12.97
13.45
13.42
12.81
11.68
10.22
8.63
7.09
5.71
4.48
3.35
2.21
1.01
-0.25
-1.52
-2.69
-3.68
-4.45
-5.07
-5.69
-6.53
-7.80
-9.67
-12.20
-15.38
-19.03
-22.91
-26.68
-29.94
-32.32
-33.53
-33.47
-32.22
-29.96
-26.81
-22.77
-17.64
-11.12
-3.10
6.18
16.02
25.35
33.00
38.06
40.07
39.18
36.07
31.75
27.31
23.75
21.74
21.53
22.96
25.48
28.31
30.66
31.82
31.37
29.21
25.58
20.94
15.85
10.85
6.30
2.38
-0.90
-3.65
-6.08
-8.41
-10.83
-13.42
-16.12
-18.73
-20.97
-22.58
-23.49
-23.77
-23.67
-23.45
-23.30
-23.26
-23.31
-23.38
-23.51
-23.79
-24.30
-25.01
-25.65
-25.77
-24.77
-22.17
-17.72
-11.61
-4.43
3.05
9.98
15.78
20.17
23.13
24.84
25.50
25.28
24.31
22.72
20.75
18.78
17.21
16.44
16.65
17.79
19.56
21.55
23.41
24.99
26.41
27.88
29.68
31.94
34.71
37.94
41.57
45.40
48.93
51.30
51.33
47.88
40.26
28.61
13.97
-2.02
-17.52
-31.02
-41.53
-48.67
-52.47
-53.35
-51.88
-48.86
-45.18
-41.69
-39.02
-37.37
-36.49
-35.72
-34.30
-31.62
-27.50
-22.20
-16.35
-10.73
-6.00
-2.55
-0.42
0.59
0.79
0.50
-0.07
-0.78
-1.51
-2.12
-2.40
-2.18
-1.35
0.10
2.07
4.36
6.77
9.11
11.17
12.73
13.61
13.66
12.83
11.21
9.04
6.63
4.31
2.37
0.99
0.20
-0.09
-0.05
0.15
0.40
0.70
1.15
1.86
2.88
4.10
5.28
6.07
6.12
5.21
3.39
0.97
-1.47
-3.25
-3.74
-2.55
0.39
4.75
9.91
15.09
19.55
22.70
24.28
24.34
23.18
21.21
18.82
16.33
13.89
11.61
9.56
7.82
6.48
5.55
4.99
4.67
4.42
4.11
3.64
2.94
1.95
0.60
-1.20
-3.40
-5.88
-8.42
-10.74
-12.64
-14.06
-15.03
-15.66
-16.08
-16.31
-16.33
-16.12
-15.68
-15.07
-14.39
-13.78
-13.39
-13.38
-13.76
-14.41
-14.94
-14.87
-13.73
-11.31
-7.74
-3.49
0.81
4.60
7.50
9.37
10.19
10.02
8.86
6.77
3.89
0.54
-2.88
-5.90
-8.18
-9.53
-10.05
-9.94
-9.50
-8.94
-8.37
-7.83
-7.31
-6.85
-6.51
-6.42
-6.69
-7.37
-8.45
-9.81
-11.29
-12.64
-13.66
-14.21
-14.28
-14.00
-13.67
-13.58
-13.95
-14.78
-15.77
-16.46
-16.27
-14.71
-11.53
-6.79
-0.89
5.56
11.85
17.31
21.49
24.21
25.60
26.04
26.01
25.89
25.82
25.64
24.96
23.26
20.18
15.67
10.02
3.86
-1.99
-6.79
-10.00
-11.47
-11.46
-10.53
-9.39
-8.69
-8.80
-9.75
-11.27
-12.93
-14.38
-15.54
-16.62
-18.06
-20.38
-23.88
-28.56
-34.02
-39.51
-44.06
-46.66
-46.45
-42.97
-36.22
-26.81
-15.78
-4.45
5.90
14.29
20.18
23.52
24.63
24.04
22.28
19.82
16.98
14.02
11.12
8.49
6.35
4.86
4.10
4.04
4.54
5.35
6.26
7.05
7.60
7.82
7.72
7.28
6.50
5.40
3.95
2.14
-0.00
-2.42
-5.03
-7.73
-10.44
-13.05
-15.43
-17.41
-18.80
-19.39
-19.01
-17.59
-15.13
-11.72
-7.55
-2.93
1.70
5.85
9.05
10.99
11.62
11.17
9.99
8.48
6.97
5.66
4.67
4.08
3.93
4.17
4.66
5.24
5.78
6.26
6.83
7.68
8.94
10.53
12.18
13.50
14.11
13.81
12.59
10.56
7.88
4.73
1.28
-2.19
-5.21
-7.18
-7.49
-5.75
-1.93
3.58
10.08
16.71
22.66
27.32
30.36
31.71
31.55
30.19
28.06
25.66
23.50
22.10
21.89
23.16
25.98
30.19
35.37
41.01
46.51
51.30
54.91
57.03
57.53
56.43
53.82
49.74
44.18
37.01
28.08
17.33
4.81
-9.20
-24.26
-39.86
-55.45
-70.49
-84.35
-96.36
-105.80
-112.03
-114.72
-113.97
-110.44
-105.16
-99.27
-93.52
-88.13
-82.71
-76.71
-69.73
-61.90
-53.89
-46.54
-40.48
-35.75
-31.94
-28.34
-24.41
-19.72
-14.16
-7.93
-1.39
4.99
10.79
15.35
18.30
19.29
18.75
17.52
16.50
16.24
16.83
18.01
18.96
19.26
18.50
17.18
16.06
15.59
15.62
15.52
14.87
13.18
11.27
10.21
12.01
18.54
30.61
47.99
69.59
94.65
122.27
153.01
179.67
194.33
192.75
177.67
156.13
134.14
120.03
111.12
103.82
94.70
82.50
67.93
50.41
31.71
13.81
-1.72
-15.11
-26.50
-36.62
-45.34
-51.90
-55.58
-56.13
-54.44
-51.98
-50.77
-51.50
-54.26
-58.11
-61.81
-64.45
-65.65
-65.85
-65.73
-66.19
-67.24
-68.55
-69.38
-68.89
-66.43
-61.56
-54.35
-45.16
-34.79
-23.81
-12.80
-2.07
8.17
17.72
26.33
33.52
38.80
41.79
42.60
41.69
39.78
37.53
35.44
33.75
32.49
31.57
30.89
30.42
30.13
30.00
29.99
29.95
29.62
28.62
26.47
22.69
16.90
9.01
-0.66
-11.39
-22.17
-31.91
-39.82
-45.61
-49.57
-52.34
-54.63
-56.87
-59.06
-60.80
-61.58
-61.03
-59.08
-55.91
-51.83
-47.08
-41.88
-36.46
-31.20
-26.62
-23.24
-21.29
-20.60
-20.56
-20.42
-19.56
-17.81
-15.46
-13.14
-11.52
-11.01
-11.68
-13.31
-15.50
-17.87
-20.21
-22.39
-24.39
-26.12
-27.37
-27.79
-27.01
-24.74
-20.91
-15.74
-9.61
-2.99
3.68
10.12
16.12
21.50
26.08
29.62
31.91
32.82
32.42
30.94
28.79
26.39
24.05
21.95
20.11
18.45
16.88
15.32
13.76
12.20
10.63
9.01
7.36
5.70
4.10
2.66
1.35
0.08
-1.36
-3.13
-5.28
-7.65
-9.84
-11.37
-11.80
-10.89
-8.69
-5.52
-1.86
1.74
4.81
7.07
8.41
8.98
9.01
8.81
8.61
8.56
8.66
8.83
8.93
8.88
8.69
8.42
8.21
8.16
8.36
8.79
9.33
9.81
10.02
9.82
9.16
8.15
6.97
5.79
4.75
3.89
3.24
2.80
2.57
2.51
2.47
2.26
1.65
0.55
-0.96
-2.61
-4.08
-5.18
-5.90
-6.41
-7.01
-7.91
-9.21
-10.85
-12.68
-14.43
-15.80
-16.43
-15.98
-14.19
-10.97
-6.50
-1.18
4.37
9.54
13.86
17.05
19.07
20.03
20.06
19.31
17.92
16.05
13.97
11.98
10.39
9.37
8.91
8.82
8.85
8.82
8.67
8.42
8.12
7.73
7.14
6.26
5.07
3.68
2.31
1.17
0.46
0.21
0.36
0.69
0.91
0.71
-0.18
-1.82
-4.01
-6.32
-8.20
-9.15
-8.98
-7.83
-6.09
-4.32
-3.00
-2.40
-2.44
-2.73
-2.57
-1.16
2.16
7.72
15.35
24.41
34.03
43.39
51.90
59.33
65.63
70.79
74.71
77.26
78.45
78.51
77.89
77.04
76.12
74.88
72.69
68.75
62.30
52.66
39.22
21.44
-0.95
-27.65
-57.46
-88.35
-117.97
-144.30
-166.17
-183.25
-195.53
-202.68
-203.68
-197.21
-182.28
-159.15
-129.65
-96.97
-64.84
-36.69
-14.94
-0.75
5.81
5.61
0.13
-8.70
-18.61
-27.33
-32.87
-33.98
-30.36
-22.71
-12.44
-1.30
9.18
17.97
24.66
29.40
32.65
34.90
36.50
37.59
38.15
38.09
37.41
36.26
34.91
33.65
32.68
32.02
31.52
30.94
30.14
29.11
27.96
26.89
25.97
25.21
24.44
23.49
22.28
20.83
19.29
17.79
16.35
14.83
13.04
10.82
8.17
5.29
2.52
0.25
-1.17
-1.44
-0.35
2.22
6.22
11.39
17.23
23.07
28.21
32.06
34.28
34.83
33.95
31.99
29.44
26.76
24.33
22.48
21.37
21.03
21.31
21.89
22.34
22.18
21.00
18.66
15.30
11.32
7.27
3.61
0.55
-1.98
-4.26
-6.67
-9.45
-12.64
-16.04
-19.28
-22.04
-24.20
-25.97
-27.86
-30.50
-34.38
-39.56
-45.59
-51.56
-56.43
-59.38
-60.08
-58.75
-56.12
-53.00
-50.05
-47.56
-45.45
-43.41
-41.03
-37.95
-33.89
-28.59
-21.89
-13.71
-4.14
6.64
18.63
32.25
48.30
67.62
90.35
115.34
140.01
161.01
175.22
180.81
177.70
167.21
151.24
131.44
108.78
83.84
57.29
30.36
4.84
-17.46
-35.32
-48.62
-58.29
-65.86
-72.64
-79.08
-84.64
-88.05
-88.10
-84.29
-77.23
-68.34
-59.29
-51.26
-44.63
-39.11
-34.21
-29.67
-25.74
-22.96
-21.84
-22.54
-24.72
-27.71
-30.79
-33.44
-35.42
-36.75
-37.52
-37.75
-37.33
-36.06
-33.78
-30.49
-26.48
-22.26
-18.42
-15.37
-13.23
-11.81
-10.73
-9.70
-8.65
-7.80
-7.52
-8.22
-10.10
-13.18
-17.20
-21.66
-25.90
-29.16
-30.74
-30.19
-27.48
-23.03
-17.61
-12.03
-6.93
-2.59
1.05
4.21
7.05
9.60
11.77
13.43
14.55
15.21
15.62
15.95
16.38
17.04
17.98
19.22
20.64
21.92
22.62
22.24
20.47
17.29
13.01
8.15
3.23
-1.35
-5.40
-8.86
-11.76
-14.19
-16.29
-18.24
-20.22
-22.19
-23.81
-24.44
-23.30
-19.77
-13.66
-5.40
4.10
13.62
22.03
28.51
32.70
34.68
34.82
33.61
31.52
28.92
26.07
23.16
20.33
17.70
15.31
13.14
11.12
9.22
7.42
5.77
4.35
3.21
2.32
1.58
0.83
-0.08
-1.18
-2.43
-3.68
-4.75
-5.50
-5.93
-6.18
-6.51
-7.07
-7.87
-8.64
-8.90
-8.10
-5.94
-2.37
2.25
7.35
12.27
16.42
19.37
20.96
21.24
20.46
19.02
17.30
15.64
14.21
13.08
12.22
11.60
11.25
11.21
11.53
12.23
13.24
14.45
15.60
16.44
16.69
16.19
14.93
13.01
10.69
8.26
5.98
4.08
2.66
1.68
1.00
0.38
-0.43
-1.54
-2.89
-4.16
-4.93
-4.80
-3.51
-1.08
2.23
6.06
9.99
13.67
16.80
19.15
20.54
20.88
20.23
18.78
16.87
14.91
13.25
12.20
11.89
12.30
13.26
14.51
15.74
16.73
17.35
17.68
17.83
17.94
18.03
18.01
17.79
17.31
16.65
15.98
15.48
15.26
15.25
15.32
15.23
14.84
14.13
13.29
12.66
12.68
13.72
15.99
19.48
23.92
28.89
33.86
38.26
41.49
43.09
42.82
40.73
37.21
32.84
28.17
23.57
19.13
14.74
10.19
5.32
0.08
-5.54
-11.56
-17.93
-24.52
-31.06
-37.14
-42.29
-46.09
-48.28
-48.84
-48.00
-46.22
-44.13
-42.33
-41.20
-40.74
-40.50
-39.81
-38.03
-34.92
-30.80
-26.45
-22.75
-20.29
-19.10
-18.65
-18.15
-16.91
-14.61
-11.41
-7.76
-4.19
-1.07
1.44
3.39
4.87
5.96
6.62
6.83
6.59
6.01
5.34
4.90
4.97
5.74
7.23
9.33
11.82
14.38
16.62
18.11
18.45
17.40
14.97
11.44
7.28
2.98
-1.10
-4.76
-7.83
-10.14
-11.46
-11.62
-10.70
-9.08
-7.31
-5.88
-4.99
-4.39
-3.52
-1.72
1.59
6.77
13.91
22.79
32.66
42.14
49.27
51.90
48.36
38.11
22.05
2.31
-18.41
-37.72
-54.04
-66.79
-76.08
-82.22
-85.42
-85.73
-83.27
-78.42
-71.97
-64.89
-58.09
-52.12
-47.06
-42.68
-38.70
-35.01
-31.77
-29.33
-27.91
-27.49
-27.72
-28.02
-27.75
-26.39
-23.66
-19.55
-14.31
-8.36
-2.21
3.67
8.95
13.45
17.16
20.16
22.49
24.20
25.29
25.75
25.62
25.04
24.24
23.51
23.21
23.59
24.67
26.25
27.96
29.38
30.19
30.22
29.35
27.39
24.10
19.21
12.57
4.37
-4.86
-14.28
-22.98
-30.24
-35.64
-39.13
-40.95
-41.47
-41.09
-40.16
-38.91
-37.46
-35.87
-34.17
-32.36
-30.40
-28.12
-25.35
-21.92
-17.80
-13.13
-8.19
-3.26
1.44
5.86
10.03
13.98
17.62
20.79
23.24
24.82
25.48
25.29
24.44
23.09
21.40
19.50
17.50
15.52
13.62
11.89
10.35
9.04
7.90
6.84
5.69
4.29
2.53
0.42
-1.92
-4.20
-6.09
-7.27
-7.45
-6.52
-4.47
-1.42
2.40
6.62
10.82
14.55
17.48
19.42
20.37
20.49
20.00
19.10
17.93
16.56
15.08
13.62
12.33
11.32
10.61
10.09
9.59
8.99
8.27
7.47
6.65
5.77
4.73
3.37
1.63
-0.41
-2.46
-4.21
-5.42
-6.02
-6.21
-6.30
-6.66
-7.53
-8.99
-10.88
-12.84
-14.39
-14.97
-14.21
-11.91
-8.22
-3.61
1.27
5.73
9.24
11.52
12.54
12.50
11.69
10.39
8.84
7.21
5.66
4.36
3.48
3.17
3.45
4.21
5.22
6.24
7.10
7.72
8.14
8.41
8.50
8.33
7.78
6.78
5.37
3.68
1.92
0.24
-1.28
-2.67
-3.95
-5.17
-6.33
-7.50
-8.77
-10.22
-11.88
-13.58
-14.95
-15.48
-14.73
-12.51
-9.01
-4.73
-0.30
3.73
7.05
9.55
11.28
12.31
12.66
12.36
11.46
10.14
8.65
7.31
6.33
5.85
5.86
6.27
6.94
7.71
8.42
8.92
9.12
8.94
8.41
7.61
6.62
5.49
4.24
2.82
1.22
-0.53
-2.35
-4.08
-5.61
-6.81
-7.71
-8.40
-9.11
-10.08
-11.57
-13.64
-16.13
-18.59
-20.41
-21.01
-19.98
-17.30
-13.27
-8.47
-3.54
0.96
4.67
7.40
9.14
9.95
9.92
9.21
8.00
6.53
5.05
3.79
2.90
2.46
2.48
2.94
3.81
4.98
6.25
7.33
7.91
7.78
6.87
5.30
3.27
1.03
-1.21
-3.28
-4.99
-6.19
-6.70
-6.43
-5.45
-3.96
-2.31
-0.87
0.00
0.05
-0.82
-2.51
-4.73
-6.96
-8.54
-8.82
-7.41
-4.24
0.28
5.44
10.44
14.64
17.69
19.53
20.26
20.05
18.98
17.11
14.57
11.64
8.74
6.32
4.72
4.08
4.24
4.85
5.49
5.84
5.77
5.36
4.77
4.15
3.53
2.83
1.96
0.84
-0.43
-1.66
-2.59
-3.06
-3.05
-2.73
-2.37
-2.27
-2.66
-3.61
-5.14
-7.12
-9.38
-11.67
-13.68
-15.07
-15.54
-14.91
-13.22
-10.70
-7.78
-4.97
-2.69
-1.24
-0.69
-0.96
-1.83
-3.01
-4.28
-5.45
-6.44
-7.20
-7.73
-8.00
-7.93
-7.46
-6.54
-5.11
-3.18
-0.74
2.14
5.34
8.59
11.58
13.89
15.24
15.49
14.74
13.28
11.47
9.66
8.04
6.74
5.71
4.82
3.88
2.69
1.13
-0.78
-2.82
-4.60
-5.66
-5.64
-4.33
-1.79
1.66
5.57
9.43
12.76
15.25
16.73
17.25
16.98
16.17
15.03
13.68
12.16
10.51
8.86
7.47
6.71
6.85
8.05
10.13
12.74
15.38
17.65
19.32
20.35
20.85
20.96
20.82
20.51
20.07
19.56
19.00
18.41
17.80
17.06
16.10
14.76
12.87
10.27
6.82
2.40
-2.91
-8.87
-14.99
-20.53
-24.70
-26.81
-26.45
-23.60
-18.66
-12.31
-5.46
0.98
6.16
9.39
10.25
8.70
5.02
-0.10
-5.85
-11.37
-15.92
-19.02
-20.38
-19.93
-17.75
-14.11
-9.40
-4.17
0.95
5.38
8.70
10.70
11.39
10.94
9.51
7.27
4.32
0.67
-3.70
-8.76
-14.43
-20.56
-26.85
-32.92
-38.27
-42.36
-44.71
-44.93
-42.86
-38.59
-32.50
-25.20
-17.48
-10.16
-3.96
0.62
3.39
4.44
4.12
2.89
1.24
-0.42
-1.77
-2.61
-2.90
-2.70
-2.20
-1.60
-1.04
-0.60
-0.29
-0.12
-0.14
-0.47
-1.19
-2.32
-3.71
-5.08
-6.16
-6.77
-6.96
-7.02
-7.32
-8.18
-9.67
-11.52
-13.19
-14.01
-13.44
-11.30
-7.75
-3.25
1.58
6.16
10.01
12.85
14.53
15.04
14.52
13.17
11.29
9.15
7.02
5.08
3.45
2.16
1.19
0.50
0.06
-0.12
0.01
0.51
1.33
2.32
3.19
3.66
3.54
2.79
1.50
-0.17
-2.08
-4.13
-6.26
-8.42
-10.59
-12.75
-14.87
-16.81
-18.34
-19.08
-18.58
-16.55
-12.93
-8.02
-2.39
3.21
8.10
11.76
13.96
14.73
14.32
13.07
11.36
9.49
7.62
5.86
4.25
2.90
1.92
1.41
1.38
1.74
2.27
2.75
2.98
2.90
2.53
1.94
1.18
0.25
-0.87
-2.23
-3.84
-5.65
-7.62
-9.71
-11.88
-14.12
-16.33
-18.28
-19.60
-19.78
-18.36
-15.07
-9.95
-3.33
4.17
11.78
18.71
24.27
27.99
29.69
29.51
27.87
25.31
22.43
19.65
17.24
15.31
13.83
12.77
12.08
11.76
11.79
12.13
12.59
12.88
12.55
11.15
8.37
4.19
-1.04
-6.72
-12.20
-16.97
-20.78
-23.69
-25.90
-27.78
-29.70
-31.98
-34.76
-37.83
-40.57
-42.10
-41.51
-38.26
-32.39
-24.55
-15.74
-7.00
0.92
7.70
13.37
18.10
22.03
25.20
27.47
28.67
28.70
27.63
25.77
23.64
21.80
20.69
20.49
21.06
22.02
22.88
23.21
22.71
21.26
18.80
15.35
11.06
6.21
1.31
-3.04
-6.24
-8.03
-8.55
-8.34
-8.19
-8.75
-10.31
-12.72
-15.47
-17.97
-19.76
-20.69
-20.90
-20.72
-20.56
-20.77
-21.47
-22.53
-23.58
-24.02
-23.19
-20.63
-16.19
-10.17
-3.23
3.72
9.81
14.45
17.43
18.95
19.43
19.34
19.00
18.55
18.01
17.42
16.88
16.58
16.70
17.26
18.11
18.98
19.57
19.73
19.41
18.69
17.72
16.58
15.30
13.86
12.21
10.36
8.37
6.39
4.64
3.30
2.51
2.28
2.45
2.77
2.94
2.73
2.05
0.92
-0.49
-1.95
-3.30
-4.42
-5.30
-6.05
-6.82
-7.83
-9.26
-11.26
-13.88
-17.00
-20.29
-23.19
-25.00
-25.10
-23.10
-19.09
-13.68
-7.83
-2.61
1.13
2.98
2.97
1.52
-0.82
-3.47
-5.91
-7.69
-8.43
-7.88
-5.95
-2.80
1.30
5.94
10.73
15.33
19.42
22.75
25.15
26.58
27.19
27.25
27.12
27.12
27.45
28.18
29.26
30.48
31.62
32.41
32.69
32.38
31.54
30.25
28.60
26.54
24.02
21.02
17.66
14.16
10.87
8.00
5.68
3.87
2.41
1.06
-0.49
-2.54
-5.27
-8.64
-12.30
-15.61
-17.85
-18.49
-17.40
-14.86
-11.43
-7.77
-4.40
-1.67
0.21
1.20
1.31
0.66
-0.55
-2.09
-3.75
-5.38
-6.94
-8.39
-9.70
-10.71
-11.21
-10.99
-9.92
-8.09
-5.79
-3.49
-1.72
-0.90
-1.26
-2.76
-5.17
-8.12
-11.23
-14.17
-16.73
-18.75
-20.15
-20.88
-20.98
-20.60
-19.96
-19.30
-18.82
-18.66
-18.85
-19.36
-20.12
-21.04
-21.98
-22.71
-22.89
-22.15
-20.20
-16.94
-12.54
-7.36
-1.89
3.40
8.12
11.96
14.69
16.18
16.36
15.31
13.25
10.55
7.66
5.02
2.98
1.76
1.36
1.62
2.24
2.87
3.16
2.90
2.02
0.64
-1.00
-2.64
-4.12
-5.41
-6.59
-7.76
-8.95
-10.07
-10.97
-11.50
-11.58
-11.31
-10.85
-10.44
-10.32
-10.70
-11.66
-13.14
-14.82
-16.11
-16.34
-14.90
-11.54
-6.47
-0.35
6.00
11.80
16.55
20.13
22.66
24.43
25.75
26.85
27.84
28.73
29.44
29.85
29.87
29.48
28.78
27.97
27.26
26.83
26.72
26.86
27.07
27.16
27.01
26.62
26.17
25.94
26.20
27.00
28.01
28.51
27.56
24.30
18.38
10.09
0.29
-9.98
-19.90
-29.13
-37.85
-46.44
-55.13
-63.69
-71.39
-77.19
-79.96
-78.79
-73.16
-63.16
-49.49
-33.49
-17.04
-2.20
9.09
15.48
16.42
12.32
4.35
-5.87
-16.64
-26.51
-34.40
-39.64
-41.89
-41.09
-37.44
-31.40
-23.77
-15.55
-7.73
-1.06
4.17
8.16
11.36
14.27
17.25
20.42
23.75
27.14
30.49
33.66
36.37
38.18
38.54
36.91
32.96
26.74
18.70
9.58
0.22
-8.68
-16.63
-23.41
-28.89
-32.87
-34.98
-34.77
-31.88
-26.33
-18.54
-9.35
0.31
9.55
17.76
24.58
29.84
33.48
35.47
35.81
34.62
32.10
28.61
24.53
20.26
16.07
12.13
8.48
5.05
1.77
-1.35
-4.18
-6.51
-8.11
-8.84
-8.64
-7.54
-5.66
-3.19
-0.49
1.88
3.28
3.10
0.95
-3.13
-8.74
-15.11
-21.40
-26.78
-30.73
-33.01
-33.72
-33.18
-31.79
-29.89
-27.65
-25.11
-22.25
-19.21
-16.31
-13.99
-12.66
-12.38
-12.78
-13.15
-12.74
-11.04
-8.07
-4.25
-0.27
3.42
6.82
10.52
15.53
22.92
33.37
46.87
62.66
79.29
94.95
107.80
116.26
119.30
116.50
108.04
94.54
76.91
56.11
33.22
9.38
-14.13
-35.83
-54.26
-68.06
-76.23
-78.26
-74.24
-64.80
-51.10
-34.64
-17.11
-0.21
14.59
26.21
34.10
38.18
38.81
36.67
32.54
27.23
21.38
15.39
9.38
3.30
-2.98
-9.43
-15.85
-21.81
-26.79
-30.34
-32.21
-32.48
-31.51
-29.84
-28.04
-26.50
-25.41
-24.75
-24.46
-24.58
-25.29
-26.88
-29.51
-33.04
-37.03
-40.72
-43.37
-44.46
-43.86
-41.86
-39.06
-36.16
-33.74
-32.10
-31.16
-30.51
-29.51
-27.49
-23.98
-18.85
-12.36
-5.08
2.24
8.92
14.40
18.36
20.67
21.37
20.66
18.83
16.26
13.34
10.44
7.82
5.64
3.93
2.65
1.73
1.04
0.44
-0.26
-1.25
-2.63
-4.42
-6.56
-9.02
-11.83
-15.15
-19.10
-23.62
-28.40
-32.89
-36.46
-38.63
-39.26
-38.47
-36.58
-33.90
-30.71
-27.17
-23.38
-19.32
-14.84
-9.69
-3.56
3.69
11.97
20.78
29.34
36.71
42.03
44.74
44.73
42.41
38.60
34.35
30.76
28.63
28.42
30.12
33.45
37.90
42.87
47.71
51.77
54.47
55.43
54.56
52.11
48.54
44.38
40.01
35.65
31.32
26.98
22.61
18.26
14.09
10.31
7.17
4.84
3.31
2.21
0.79
-1.96
-6.96
-14.63
-24.58
-35.60
-46.01
-54.22
-59.17
-60.53
-58.68
-54.36
-48.43
-41.69
-34.83
-28.41
-22.87
-18.45
-15.19
-12.92
-11.33
-10.04
-8.75
-7.23
-5.33
-3.04
-0.47
2.20
4.73
6.91
8.61
9.81
10.56
10.95
11.04
10.83
10.27
9.27
7.77
5.78
3.36
0.67
-2.08
-4.71
-7.08
-9.12
-10.87
-12.40
-13.89
-15.57
-17.67
-20.30
-23.35
-26.35
-28.57
-29.15
-27.37
-22.96
-16.18
-7.83
1.01
9.27
16.16
21.31
24.73
26.69
27.55
27.67
27.30
26.65
25.89
25.14
24.55
24.23
24.21
24.47
24.87
25.21
25.24
24.81
23.88
22.50
20.81
18.88
16.76
14.42
11.84
9.01
5.99
2.82
-0.47
-3.84
-7.16
-10.23
-12.76
-14.50
-15.36
-15.45
-15.07
-14.65
-14.60
-15.23
-16.65
-18.72
-20.97
-22.67
-23.00
-21.23
-17.03
-10.53
-2.38
6.47
14.96
22.18
27.52
30.79
32.18
32.12
31.15
29.71
28.06
26.26
24.32
22.31
20.40
18.83
17.69
16.85
16.00
14.74
12.85
10.40
7.74
5.33
3.49
2.29
1.53
0.90
0.13
-0.84
-1.85
-2.64
-2.98
-2.81
-2.30
-1.90
-2.13
-3.50
-6.23
-10.19
-14.81
-19.27
-22.73
-24.66
-25.02
-24.32
-23.38
-23.09
-24.07
-26.49
-30.02
-33.91
-37.18
-38.83
-38.11
-34.65
-28.56
-20.44
-11.18
-1.73
7.14
14.96
21.55
26.85
30.81
33.33
34.30
33.79
32.05
29.55
26.89
24.62
23.17
22.78
23.47
25.04
27.11
29.14
30.63
31.22
30.87
29.73
28.11
26.22
24.09
21.61
18.69
15.39
11.95
8.70
5.84
3.31
0.91
-1.63
-4.40
-7.23
-9.79
-11.76
-13.03
-13.69
-14.02
-14.32
-14.89
-15.93
-17.58
-19.86
-22.58
-25.33
-27.40
-28.05
-26.64
-22.91
-17.05
-9.70
-1.73
5.93
12.48
17.41
20.51
21.83
21.62
20.24
18.04
15.37
12.54
9.82
7.48
5.73
4.69
4.34
4.51
4.93
5.31
5.45
5.27
4.75
3.93
2.82
1.37
-0.47
-2.70
-5.23
-7.87
-10.44
-12.88
-15.21
-17.49
-19.71
-21.75
-23.38
-24.41
-24.77
-24.59
-24.17
-23.84
-23.85
-24.26
-24.88
-25.34
-25.09
-23.59
-20.41
-15.40
-8.76
-1.07
6.85
14.19
20.22
24.56
27.13
28.16
28.06
27.32
26.36
25.47
24.81
24.37
24.12
23.99
23.97
24.02
24.04
23.82
23.05
21.45
18.83
15.18
10.70
5.71
0.59
-4.25
-8.51
-11.97
-14.55
-16.33
-17.54
-18.42
-19.20
-20.00
-20.86
-21.76
-22.71
-23.69
-24.72
-25.74
-26.61
-27.15
-27.23
-26.77
-25.71
-23.99
-21.49
-18.03
-13.47
-7.90
-1.64
4.73
10.53
15.17
18.25
19.71
19.71
18.56
16.59
14.10
11.34
8.56
6.04
4.02
2.68
2.06
2.02
2.29
2.62
2.88
3.07
3.33
3.71
4.16
4.45
4.22
3.16
1.14
-1.76
-5.20
-8.69
-11.80
-14.20
-15.85
-16.93
-17.76
-18.66
-19.83
-21.19
-22.43
-23.14
-22.88
-21.35
-18.44
-14.25
-9.06
-3.27
2.58
7.98
12.47
15.75
17.75
18.60
18.51
17.74
16.50
14.99
13.40
11.92
10.70
9.84
9.32
9.04
8.88
8.76
8.64
8.53
8.42
8.21
7.78
6.99
5.72
3.92
1.66
-0.93
-3.64
-6.21
-8.40
-10.13
-11.50
-12.82
-14.45
-16.68
-19.51
-22.59
-25.33
-27.02
-27.10
-25.34
-21.81
-16.92
-11.22
-5.30
0.29
5.13
8.89
11.40
12.67
12.87
12.29
11.25
10.09
9.03
8.25
7.82
7.73
7.91
8.21
8.48
8.58
8.49
8.28
8.03
7.82
7.56
7.12
6.34
5.17
3.67
2.00
0.28
-1.44
-3.17
-4.96
-6.78
-8.58
-10.26
-11.85
-13.50
-15.46
-17.90
-20.81
-23.84
-26.37
-27.71
-27.28
-24.89
-20.76
-15.50
-9.92
-4.81
-0.76
2.00
3.55
4.24
4.51
4.75
5.17
5.78
6.51
7.25
7.97
8.69
9.44
10.14
10.68
10.93
10.91
10.73
10.62
10.70
10.95
11.13
10.95
10.13
8.57
6.33
3.63
0.77
-1.95
-4.32
-6.24
-7.77
-9.06
-10.29
-11.53
-12.78
-13.93
-14.91
-15.75
-16.64
-17.82
-19.47
-21.57
-23.83
-25.76
-26.73
-26.19
-23.75
-19.36
-13.28
-6.11
1.43
8.57
14.66
19.26
22.15
23.36
23.14
21.95
20.27
18.61
17.25
16.34
15.82
15.57
15.47
15.45
15.49
15.56
15.60
15.55
15.33
14.87
14.15
13.18
11.99
10.63
9.17
7.64
6.08
4.47
2.82
1.16
-0.44
-1.89
-3.15
-4.28
-5.42
-6.69
-8.17
-9.83
-11.52
-13.11
-14.50
-15.71
-16.78
-17.81
-18.90
-20.17
-21.74
-23.71
-26.08
-28.55
-30.52
-31.27
-30.09
-26.64
-21.06
-13.91
-6.06
1.60
8.30
13.57
17.22
19.32
20.13
20.08
19.57
18.92
18.31
17.74
17.16
16.53
15.89
15.33
14.94
14.78
14.85
15.11
15.49
15.89
16.18
16.22
15.86
15.00
13.66
11.94
10.01
8.05
6.16
4.42
2.85
1.44
0.16
-1.02
-2.14
-3.26
-4.40
-5.57
-6.76
-7.96
-9.22
-10.61
-12.11
-13.67
-15.13
-16.38
-17.43
-18.44
-19.71
-21.51
-23.90
-26.61
-29.04
-30.42
-30.05
-27.49
-22.72
-16.10
-8.34
-0.25
7.34
13.78
18.67
21.94
23.78
24.54
24.58
24.17
23.42
22.35
21.00
19.51
18.09
17.01
16.42
16.30
16.47
16.68
16.73
16.53
16.15
15.69
15.19
14.61
13.82
12.69
11.17
9.34
7.31
5.21
3.12
1.04
-1.00
-2.97
-4.82
-6.44
-7.79
-8.85
-9.68
-10.40
-11.11
-11.95
-12.94
-14.07
-15.24
-16.35
-17.36
-18.39
-19.65
-21.35
-23.55
-26.02
-28.24
-29.51
-29.15
-26.73
-22.16
-15.79
-8.27
-0.43
6.90
13.08
17.74
20.82
22.54
23.24
23.27
22.88
22.17
21.17
19.87
18.35
16.75
15.22
13.93
12.99
12.46
12.35
12.58
12.96
13.20
12.97
11.94
9.96
7.00
3.22
-1.13
-5.74
-10.27
-14.41
-17.90
-20.59
-22.51
-23.85
-24.86
-25.80
-26.80
-27.91
-29.06
-30.22
-31.43
-32.80
-34.43
-36.26
-38.01
-39.12
-38.93
-36.84
-32.57
-26.30
-18.57
-10.18
-1.89
5.73
12.32
17.72
21.88
24.78
26.47
27.10
26.88
26.12
25.14
24.23
23.56
23.19
23.07
23.15
23.35
23.69
24.18
24.77
25.33
25.58
25.18
23.90
21.68
18.68
15.24
11.72
8.37
5.26
2.32
-0.60
-3.62
-6.78
-10.02
-13.22
-16.25
-18.94
-21.19
-22.93
-24.15
-25.00
-25.70
-26.54
-27.70
-29.12
-30.45
-31.05
-30.19
-27.31
-22.21
-15.17
-6.82
1.97
10.36
17.68
23.51
27.64
30.08
30.95
30.53
29.14
27.19
25.07
23.11
21.49
20.21
19.12
18.02
16.69
15.05
13.11
11.01
8.90
6.91
5.08
3.36
1.68
0.01
-1.66
-3.28
-4.80
-6.19
-7.42
-8.50
-9.41
-10.13
-10.58
-10.68
-10.32
-9.47
-8.21
-6.76
-5.52
-4.89
-5.20
-6.49
-8.45
-10.46
-11.71
-11.51
-9.48
-5.69
-0.64
4.92
10.13
14.27
16.84
17.61
16.66
14.31
11.04
7.39
3.87
0.82
-1.61
-3.45
-4.74
-5.52
-5.71
-5.21
-3.95
-1.94
0.64
3.51
6.34
8.85
10.85
12.24
12.97
13.02
12.37
11.01
8.97
6.40
3.58
0.84
-1.57
-3.56
-5.31
-7.13
-9.36
-12.16
-15.51
-19.15
-22.69
-25.64
-27.49
-27.76
-26.11
-22.42
-16.95
-10.26
-3.10
3.72
9.61
14.23
17.50
19.48
20.32
20.20
19.30
17.78
15.82
13.56
11.13
8.69
6.40
4.48
3.08
2.27
1.95
1.90
1.88
1.66
1.15
0.38
-0.55
-1.52
-2.50
-3.55
-4.74
-6.12
-7.64
-9.14
-10.44
-11.41
-12.07
-12.58
-13.26
-14.38
-16.14
-18.48
-21.09
-23.44
-24.93
-25.04
-23.49
-20.28
-15.73
-10.39
-4.90
0.14
4.25
7.18
8.90
9.59
9.50
8.92
8.10
7.19
6.32
5.62
5.25
5.38
6.16
7.56
9.44
11.52
13.49
15.10
16.20
16.72
16.63
15.86
14.37
12.09
9.06
5.40
1.34
-2.88
-7.05
-11.03
-14.76
-18.18
-21.24
-23.91
-26.23
-28.34
-30.39
-32.46
-34.42
-35.85
-36.18
-34.80
-31.38
-25.97
-19.05
-11.32
-3.51
3.85
10.45
16.17
20.92
24.60
27.04
28.16
27.99
26.75
24.79
22.48
20.11
17.86
15.77
13.83
12.01
10.25
8.48
6.58
4.50
2.19
-0.26
-2.70
-4.93
-6.81
-8.29
-9.48
-10.54
-11.62
-12.82
-14.10
-15.36
-16.55
-17.62
-18.63
-19.62
-20.70
-21.93
-23.34
-24.91
-26.49
-27.77
-28.23
-27.30
-24.51
-19.65
-12.94
-5.00
3.28
11.00
17.44
22.25
25.44
27.29
28.17
28.42
28.27
27.83
27.13
26.20
25.08
23.86
22.61
21.43
20.34
19.37
18.50
17.68
16.78
15.63
14.04
11.86
9.09
5.87
2.46
-0.82
-3.71
-6.12
-8.05
-9.63
-11.03
-12.40
-13.86
-15.40
-16.88
-18.07
-18.69
-18.52
-17.53
-15.89
-14.06
-12.55
-11.80
-11.88
-12.44
-12.78
-12.09
-9.73
-5.53
0.16
6.56
12.76
17.98
21.75
23.96
24.73
24.32
22.97
20.97
18.60
16.18
14.10
12.68
12.13
12.48
13.58
15.11
16.72
18.08
18.98
19.36
19.27
18.80
18.04
17.04
15.79
14.29
12.49
10.44
8.20
5.87
3.53
1.21
-1.10
-3.47
-5.90
-8.36
-10.71
-12.75
-14.32
-15.37
-15.95
-16.23
-16.41
-16.64
-17.07
-17.77
-18.73
-19.81
-20.69
-20.91
-19.93
-17.34
-13.05
-7.29
-0.65
6.19
12.58
18.05
22.30
25.21
26.79
27.09
26.30
24.62
22.34
19.75
17.10
14.61
12.42
10.58
9.04
7.72
6.54
5.44
4.45
3.68
3.18
2.90
2.69
2.28
1.48
0.18
-1.53
-3.43
-5.30
-6.97
-8.43
-9.78
-11.16
-12.64
-14.20
-15.69
-16.96
-17.91
-18.53
-18.97
-19.42
-20.10
-21.14
-22.51
-23.96
-25.00
-25.04
-23.57
-20.33
-15.43
-9.30
-2.60
4.01
10.02
15.08
19.01
21.70
23.11
23.23
22.19
20.25
17.80
15.25
12.97
11.20
10.05
9.50
9.48
9.81
10.29
10.70
10.84
10.68
10.30
9.87
9.50
9.12
8.48
7.23
5.16
2.26
-1.16
-4.68
-7.90
-10.59
-12.76
-14.63
-16.47
-18.57
-21.13
-24.19
-27.58
-30.94
-33.70
-35.27
-35.19
-33.25
-29.57
-24.58
-18.86
-13.06
-7.72
-3.22
0.31
2.90
4.73
6.07
7.21
8.38
9.72
11.18
12.49
13.32
13.36
12.45
10.72
8.49
6.18
4.16
2.66
1.74
1.35
1.29
1.28
0.96
0.01
-1.72
-4.15
-6.86
-9.32
-11.04
-11.76
-11.54
-10.73
-9.81
-9.27
-9.51
-10.71
-12.80
-15.49
-18.17
-20.11
-20.57
-19.03
-15.37
-9.93
-3.43
3.25
9.27
14.06
17.32
19.08
19.53
18.95
17.64
15.90
14.04
12.33
11.03
10.30
10.17
10.55
11.24
12.02
12.73
13.25
13.57
13.65
13.47
13.01
12.28
11.30
10.15
8.86
7.41
5.80
3.97
1.94
-0.21
-2.40
-4.56
-6.68
-8.83
-11.14
-13.70
-16.60
-19.78
-22.97
-25.75
-27.52
-27.74
-26.03
-22.40
-17.24
-11.29
-5.36
-0.19
3.78
6.39
7.81
8.34
8.35
8.17
7.99
7.90
7.87
7.85
7.81
7.77
7.80
8.00
8.45
9.13
9.94
10.65
10.99
10.66
9.46
7.33
4.32
0.62
-3.53
-7.83
-11.94
-15.57
-18.45
-20.47
-21.71
-22.44
-23.03
-23.81
-24.97
-26.45
-28.01
-29.19
-29.51
-28.47
-25.78
-21.36
-15.42
-8.43
-1.05
6.01
12.16
16.97
20.29
22.20
22.94
22.79
21.97
20.61
18.78
16.50
13.90
11.18
8.60
6.38
4.63
3.34
2.39
1.68
1.17
0.87
0.82
1.03
1.46
1.98
2.43
2.61
2.35
1.52
0.05
-2.08
-4.76
-7.88
-11.26
-14.75
-18.22
-21.69
-25.21
-28.92
-32.84
-36.78
-40.25
-42.58
-43.10
-41.38
-37.45
-31.79
-25.18
-18.47
-12.39
-7.40
-3.74
-1.42
-0.27
0.02
-0.07
0.01
0.77
2.62
5.73
10.11
15.65
22.24
29.71
37.88
46.44
54.91
62.69
69.15
73.83
76.54
77.38
76.60
74.47
71.18
66.77
61.28
54.85
47.77
40.45
33.23
26.27
19.47
12.52
5.07
-3.12
-12.07
-21.54
-31.10
-40.23
-48.40
-55.09
-59.79
-62.11
-61.78
-58.83
-53.60
-46.80
-39.34
-32.18
-26.00
-21.15
-17.58
-15.00
-13.08
-11.59
-10.43
-9.57
-8.97
-8.44
-7.70
-6.38
-4.15
-0.76
3.92
9.82
16.68
24.02
31.23
37.63
42.62
45.82
47.12
46.61
44.52
41.15
36.72
31.46
25.53
19.11
12.28
5.13
-2.27
-9.78
-17.12
-23.84
-29.42
-33.51
-35.98
-37.11
-37.36
-37.16
-36.71
-35.84
-34.15
-31.24
-26.94
-21.39
-15.06
-8.51
-2.32
3.11
7.50
10.71
12.73
13.64
13.66
13.02
12.01
10.84
9.70
8.68
7.86
7.32
7.11
7.24
7.70
8.40
9.23
10.05
10.77
11.26
11.48
11.37
10.88
10.01
8.72
7.05
5.08
2.96
0.90
-0.89
-2.29
-3.23
-3.77
-3.99
-3.96
-3.77
-3.50
-3.29
-3.33
-3.80
-4.72
-5.90
-6.93
-7.23
-6.30
-3.88
-0.12
4.49
9.22
13.40
16.59
18.63
19.67
20.03
20.07
20.12
20.40
21.04
22.07
23.40
24.89
26.35
27.61
28.57
29.19
29.52
29.71
30.00
30.71
32.12
34.35
37.22
40.24
42.68
43.81
43.18
40.71
36.70
31.70
26.27
20.84
15.65
10.76
6.07
1.45
-3.27
-8.18
-13.27
-18.45
-23.55
-28.37
-32.75
-36.61
-39.85
-42.38
-44.11
-44.93
-44.72
-43.45
-41.13
-37.80
-33.55
-28.59
-23.17
-17.72
-12.67
-8.50
-5.52
-3.92
-3.71
-4.77
-6.92
-9.86
-13.25
-16.67
-19.71
-22.00
-23.36
-23.79
-23.40
-22.41
-20.98
-19.20
-17.10
-14.77
-12.33
-10.01
-8.08
-6.77
-6.28
-6.68
-7.97
-10.04
-12.67
-15.57
-18.39
-20.73
-22.20
-22.47
-21.29
-18.59
-14.55
-9.55
-4.12
1.17
5.83
9.54
12.13
13.56
13.88
13.14
11.50
9.17
6.45
3.68
1.15
-0.96
-2.60
-3.84
-4.73
-5.30
-5.47
-5.16
-4.35
-3.17
-1.87
-0.73
0.04
0.35
0.25
-0.17
-0.88
-1.94
-3.48
-5.62
-8.43
-11.86
-15.75
-19.79
-23.55
-26.49
-28.00
-27.59
-24.97
-20.23
-13.74
-6.06
2.22
10.63
18.82
26.46
33.19
38.55
42.23
44.23
44.77
44.23
43.05
41.65
40.35
39.23
38.26
37.24
35.94
33.76
29.93
23.77
15.13
4.59
-6.90
-18.21
-28.41
-36.75
-43.19
-48.06
-51.71
-54.05
-54.63
-53.42
-50.72
-46.92
-41.58
-34.83
-26.97
-18.33
-8.78
1.99
13.23
23.68
32.45
40.85
49.30
57.74
65.60
72.82
79.46
84.04
84.72
80.74
75.37
70.57
67.36
65.40
64.35
63.24
58.36
45.07
20.22
-13.56
-54.40
-100.62
-151.09
-203.27
-241.68
-250.34
-222.87
-183.44
-139.95
-94.97
-44.75
7.30
56.14
96.94
124.48
135.11
128.20
109.19
82.24
50.76
17.35
-14.32
-40.54
-60.20
-74.39
-85.05
-91.49
-94.48
-94.86
-93.23
-88.78
-80.37
-68.60
-55.42
-43.08
-31.69
-21.80
-13.67
-7.44
-2.52
1.66
4.81
6.17
5.39
3.68
2.30
2.41
4.54
8.69
14.20
19.77
23.99
25.98
25.87
24.31
22.13
19.98
18.29
17.11
16.31
15.70
15.23
14.93
14.92
15.26
16.06
17.51
19.89
23.48
28.26
33.77
39.11
43.18
45.10
44.50
41.76
37.70
33.35
29.53
26.61
24.55
22.97
21.48
19.81
17.89
15.83
13.80
11.92
10.34
9.14
8.42
8.16
8.21
8.19
7.56
5.80
2.68
-1.57
-6.19
-10.01
-11.85
-10.93
-7.26
-1.78
3.99
8.48
10.68
10.54
8.93
7.14
6.42
7.43
10.18
14.22
18.90
23.68
28.19
32.36
36.39
40.62
45.34
50.41
55.04
57.82
57.09
51.62
41.23
26.81
9.93
-7.98
-26.07
-44.04
-61.63
-78.06
-91.91
-101.59
-106.22
-106.20
-103.28
-99.80
-97.81
-98.35
-101.29
-105.71
-110.47
-114.54
-117.12
-117.45
-114.78
-108.38
-97.81
-83.11
-64.88
-44.20
-22.44
-0.93
19.24
37.34
53.06
66.38
77.43
86.27
92.86
97.07
98.80
98.15
95.52
91.52
86.87
82.16
77.69
73.49
69.41
65.31
61.17
57.16
53.60
50.83
49.05
48.32
48.44
49.09
49.91
50.52
50.56
49.63
47.35
43.41
37.73
30.57
22.49
14.15
6.13
-1.32
-8.20
-14.67
-20.81
-26.54
-31.67
-36.05
-39.72
-42.96
-46.09
-49.23
-52.13
-54.13
-54.36
-52.01
-46.66
-38.42
-27.89
-16.06
-3.97
7.37
17.19
24.99
30.53
33.79
34.93
34.27
32.27
29.47
26.48
23.84
21.98
21.16
21.34
22.32
23.78
25.39
26.88
28.06
28.76
28.84
28.20
26.77
24.55
21.64
18.22
14.54
10.82
7.33
4.23
1.59
-0.67
-2.77
-4.92
-7.32
-9.94
-12.62
-15.04
-16.94
-18.14
-18.66
-18.69
-18.55
-18.62
-19.14
-20.17
-21.49
-22.64
-23.00
-22.06
-19.53
-15.42
-10.11
-4.18
1.68
6.81
10.67
12.96
13.63
12.90
11.23
9.12
7.02
5.19
3.77
2.78
2.26
2.24
2.66
3.43
4.30
5.05
5.50
5.63
5.52
5.28
4.97
4.56
4.00
3.23
2.28
1.22
0.11
-1.02
-2.18
-3.36
-4.48
-5.44
-6.13
-6.53
-6.76
-7.03
-7.57
-8.56
-10.01
-11.82
-13.68
-15.19
-15.88
-15.35
-13.36
-9.98
-5.58
-0.71
4.04
8.18
11.43
13.70
14.99
15.35
14.85
13.55
11.61
9.27
6.83
4.56
2.59
0.93
-0.58
-2.12
-3.81
-5.64
-7.42
-8.83
-9.61
-9.64
-9.09
-8.31
-7.77
-7.79
-8.51
-9.82
-11.44
-13.10
-14.59
-15.80
-16.67
-17.17
-17.29
-17.15
-16.90
-16.70
-16.62
-16.47
-15.88
-14.36
-11.56
-7.48
-2.45
2.84
7.63
11.29
13.46
14.18
13.70
12.42
10.70
8.77
6.77
4.81
3.03
1.63
0.78
0.56
0.87
1.48
2.06
2.36
2.30
2.00
1.70
1.62
1.83
2.14
2.22
1.70
0.36
-1.74
-4.30
-6.89
-9.13
-10.82
-11.99
-12.82
-13.57
-14.45
-15.58
-16.91
-18.28
-19.38
-19.79
-19.08
-16.93
-13.26
-8.37
-2.78
2.78
7.67
11.43
13.89
15.08
15.17
14.39
12.96
11.16
9.22
7.41
5.90
4.82
4.18
3.94
3.98
4.15
4.29
4.28
4.02
3.57
3.02
2.50
2.09
1.73
1.26
0.46
-0.82
-2.58
-4.68
-6.87
-8.95
-10.80
-12.45
-14.08
-15.85
-17.82
-19.84
-21.58
-22.55
-22.28
-20.45
-17.04
-12.29
-6.72
-0.98
4.25
8.41
11.20
12.61
12.90
12.40
11.50
10.43
9.29
8.12
6.92
5.76
4.75
4.02
3.62
3.52
3.66
3.89
4.12
4.25
4.24
4.07
3.77
3.35
2.78
1.93
0.65
-1.13
-3.37
-5.87
-8.29
-10.37
-11.97
-13.16
-14.19
-15.35
-16.82
-18.62
-20.62
-22.52
-23.96
-24.56
-23.92
-21.80
-18.13
-13.12
-7.27
-1.22
4.37
8.97
12.34
14.47
15.54
15.78
15.41
14.58
13.41
12.03
10.60
9.37
8.49
8.07
8.05
8.25
8.51
8.72
8.91
9.14
9.46
9.84
10.16
10.29
10.12
9.56
8.58
7.13
5.18
2.79
0.15
-2.46
-4.75
-6.57
-7.98
-9.22
-10.58
-12.28
-14.33
-16.62
-18.90
-20.90
-22.32
-22.87
-22.35
-20.69
-18.06
-14.83
-11.57
-8.81
-6.98
-6.24
-6.47
-7.36
-8.50
-9.47
-10.01
-10.00
-9.52
-8.76
-7.94
-7.23
-6.62
-5.94
-4.91
-3.21
-0.62
2.89
7.12
11.66
15.98
19.59
22.12
23.39
23.43
22.40
20.58
18.25
15.69
13.11
10.60
8.09
5.38
2.26
-1.34
-5.32
-9.40
-13.27
-16.75
-19.85
-22.78
-25.69
-28.50
-30.83
-32.09
-31.66
-29.15
-24.47
-17.87
-9.82
-0.99
7.88
16.03
22.84
27.93
31.26
33.04
33.66
33.47
32.70
31.40
29.59
27.35
24.85
22.36
20.06
18.06
16.30
14.68
13.10
11.56
10.06
8.62
7.17
5.57
3.74
1.64
-0.62
-2.89
-5.03
-6.99
-8.82
-10.56
-12.28
-13.94
-15.44
-16.73
-17.77
-18.64
-19.44
-20.35
-21.56
-23.20
-25.29
-27.56
-29.53
-30.49
-29.77
-26.95
-22.00
-15.36
-7.77
-0.11
6.89
12.71
17.14
20.21
22.06
22.87
22.80
21.98
20.55
18.71
16.73
14.98
13.79
13.36
13.67
14.53
15.62
16.72
17.69
18.53
19.24
19.72
19.75
19.08
17.52
15.06
11.91
8.38
4.81
1.52
-1.33
-3.70
-5.72
-7.66
-9.96
-13.04
-17.14
-22.18
-27.61
-32.55
-35.96
-36.99
-35.19
-30.67
-24.04
-16.22
-8.24
-0.99
4.86
9.05
11.57
12.68
12.78
12.23
11.29
10.11
8.68
6.98
5.06
3.05
1.17
-0.37
-1.42
-1.94
-1.94
-1.54
-0.89
-0.14
0.50
0.84
0.68
-0.08
-1.43
-3.24
-5.27
-7.23
-8.84
-10.00
-10.71
-11.14
-11.60
-12.40
-13.80
-15.89
-18.51
-21.27
-23.59
-24.79
-24.32
-21.82
-17.25
-10.92
-3.43
4.47
12.01
18.56
23.71
27.29
29.35
30.09
29.78
28.68
27.03
25.06
22.96
20.92
19.11
17.65
16.63
16.09
16.02
16.38
17.07
17.94
18.79
19.39
19.51
18.94
17.60
15.51
12.82
9.70
6.30
2.65
-1.30
-5.66
-10.47
-15.57
-20.68
-25.44
-29.53
-32.80
-35.19
-36.73
-37.41
-37.16
-35.83
-33.27
-29.46
-24.54
-18.88
-12.94
-7.25
-2.20
2.01
5.37
8.01
10.10
11.76
13.08
14.12
14.93
15.50
15.75
15.48
14.48
12.68
10.20
7.48
5.12
3.66
3.46
4.47
6.29
8.34
10.00
10.89
10.88
10.12
8.89
7.48
6.11
4.88
3.78
2.74
1.63
0.25
-1.58
-4.06
-7.22
-10.94
-14.86
-18.42
-20.96
-21.84
-20.63
-17.21
-11.85
-5.17
1.99
8.77
14.45
18.61
21.15
22.23
22.19
21.45
20.36
19.17
17.99
16.80
15.54
14.17
12.80
11.66
11.02
11.13
11.99
13.30
14.50
14.83
13.53
10.12
4.60
-2.44
-9.80
-15.99
-19.54
-19.50
-15.72
-9.00
-0.88
6.81
12.35
14.63
13.36
8.94
2.31
-5.45
-13.38
-20.78
-27.24
-32.56
-36.54
-38.90
-39.29
-37.46
-33.39
-27.41
-20.25
-12.79
-5.89
-0.12
4.31
7.53
9.87
11.65
13.15
14.50
15.74
16.90
18.08
19.40
21.00
22.90
24.98
26.92
28.32
28.88
28.54
27.54
26.32
25.30
24.69
24.32
23.70
22.07
18.67
13.02
5.14
-4.35
-14.33
-23.53
-30.82
-35.59
-37.81
-37.93
-36.63
-34.50
-31.91
-28.98
-25.70
-22.07
-18.23
-14.54
-11.48
-9.55
-9.12
-10.28
-12.73
-15.81
-18.61
-20.19
-19.76
-16.89
-11.66
-4.62
3.32
11.16
18.05
23.46
27.30
29.72
31.00
31.33
30.78
29.37
27.15
24.37
21.40
18.68
16.52
15.11
14.39
14.18
14.25
14.36
14.33
14.02
13.38
12.38
11.14
9.80
8.56
7.60
7.00
6.75
6.77
6.91
7.02
6.94
6.51
5.63
4.31
2.71
1.11
-0.20
-1.01
-1.32
-1.35
-1.42
-1.82
-2.74
-4.17
-5.95
-7.81
-9.41
-10.47
-10.75
-10.18
-8.87
-7.10
-5.24
-3.64
-2.56
-2.15
-2.42
-3.31
-4.70
-6.35
-7.89
-8.86
-8.80
-7.41
-4.65
-0.78
3.71
8.19
12.08
14.96
16.60
16.98
16.21
14.55
12.35
10.01
7.95
6.46
5.59
5.12
4.63
3.64
1.91
-0.45
-2.96
-4.95
-5.87
-5.50
-4.15
-2.45
-1.18
-0.92
-1.90
-3.91
-6.51
-9.15
-11.35
-12.82
-13.40
-13.00
-11.61
-9.26
-6.07
-2.35
1.48
4.85
7.23
8.25
7.77
5.84
2.67
-1.45
-6.23
-11.32
-16.30
-20.67
-23.95
-25.77
-25.99
-24.77
-22.48
-19.62
-16.60
-13.69
-10.99
-8.53
-6.34
-4.55
-3.35
-2.81
-2.91
-3.42
-4.06
-4.60
-4.99
-5.34
-5.83
-6.60
-7.67
-8.94
-10.26
-11.45
-12.32
-12.62
-12.12
-10.59
-7.95
-4.32
-0.02
4.45
8.52
11.70
13.62
14.12
13.31
11.49
9.06
6.43
3.90
1.60
-0.42
-2.13
-3.50
-4.42
-4.83
-4.65
-3.90
-2.60
-0.87
1.10
2.97
4.27
4.51
3.30
0.53
-3.54
-8.40
-13.35
-17.75
-21.19
-23.50
-24.79
-25.33
-25.43
-25.28
-24.90
-24.04
-22.31
-19.38
-15.21
-10.16
-4.92
-0.25
3.38
5.99
8.05
10.35
13.58
18.10
23.84
30.25
36.38
41.07
43.17
41.86
37.00
29.26
20.10
11.29
4.35
0.05
-1.83
-2.26
-2.62
-4.06
-7.27
-12.29
-18.69
-25.75
-32.71
-38.94
-44.02
-47.76
-50.19
-51.50
-51.93
-51.73
-51.02
-49.78
-47.79
-44.74
-40.29
-34.28
-26.80
-18.31
-9.57
-1.51
5.02
9.42
11.50
11.58
10.31
8.53
7.00
6.23
6.34
7.15
8.30
9.42
10.31
10.98
11.61
12.37
13.33
14.36
15.20
15.55
15.22
14.18
12.57
10.57
8.36
6.03
3.58
1.04
-1.57
-4.17
-6.69
-9.11
-11.40
-13.47
-15.09
-15.90
-15.40
-13.22
-9.20
-3.57
3.08
9.98
16.32
21.52
25.30
27.66
28.80
29.00
28.52
27.64
26.62
25.69
25.03
24.71
24.68
24.80
24.90
24.83
24.50
23.82
22.73
21.19
19.19
16.75
13.92
10.73
7.16
3.20
-1.06
-5.42
-9.48
-12.90
-15.45
-17.14
-18.25
-19.16
-20.22
-21.64
-23.46
-25.66
-28.11
-30.59
-32.69
-33.83
-33.29
-30.46
-25.07
-17.36
-8.12
1.51
10.35
17.49
22.49
25.41
26.64
26.72
26.11
25.15
24.03
22.90
21.87
21.08
20.65
20.61
20.96
21.59
22.40
23.28
24.15
24.92
25.46
25.63
25.27
24.27
22.64
20.47
17.92
15.23
12.54
9.97
7.48
4.95
2.23
-0.77
-4.04
-7.42
-10.66
-13.51
-15.81
-17.58
-19.02
-20.55
-22.67
-25.87
-30.43
-36.29
-42.95
-49.54
-54.93
-57.98
-57.82
-54.04
-46.80
-36.83
-25.23
-13.37
-2.49
6.45
12.96
17.05
19.09
19.71
19.55
19.16
18.95
19.16
19.87
21.03
22.54
24.22
25.94
27.66
29.37
31.09
32.76
34.22
35.26
35.65
35.27
34.12
32.39
30.31
28.04
25.67
23.15
20.39
17.42
14.36
11.45
8.83
6.55
4.45
2.36
0.17
-2.05
-4.08
-5.73
-6.95
-7.88
-8.86
-10.20
-12.08
-14.47
-17.12
-19.62
-21.45
-22.12
-21.21
-18.57
-14.30
-8.76
-2.57
3.62
9.15
13.46
16.19
17.22
16.62
14.65
11.69
8.13
4.38
0.80
-2.29
-4.64
-6.12
-6.71
-6.55
-5.83
-4.78
-3.57
-2.30
-1.06
0.07
0.94
1.41
1.32
0.63
-0.61
-2.19
-3.84
-5.30
-6.41
-7.17
-7.71
-8.25
-8.95
-9.88
-10.94
-12.02
-12.98
-13.81
-14.61
-15.52
-16.76
-18.45
-20.71
-23.52
-26.76
-30.18
-33.47
-36.43
-38.99
-41.29
-43.49
-45.62
-47.42
-48.28
-47.46
-44.41
-39.03
-31.81
-23.60
-15.39
-7.89
-1.39
4.19
9.16
13.78
18.15
22.12
25.43
27.81
29.11
29.37
28.75
27.48
25.83
23.99
22.13
20.33
18.61
16.91
15.17
13.29
11.27
9.20
7.26
5.72
4.79
4.54
4.77
5.10
5.10
4.45
3.12
1.37
-0.30
-1.35
-1.39
-0.16
2.35
5.97
10.41
15.28
20.10
24.45
27.99
30.56
32.16
32.88
32.86
32.16
30.85
29.04
26.88
24.62
22.47
20.54
18.86
17.34
15.92
14.59
13.38
12.32
11.31
10.18
8.70
6.70
4.14
1.16
-1.99
-5.01
-7.63
-9.67
-11.01
-11.66
-11.74
-11.47
-11.15
-11.06
-11.37
-12.12
-13.28
-14.82
-16.78
-19.26
-22.30
-25.78
-29.24
-32.03
-33.40
-32.81
-30.01
-25.19
-18.89
-11.84
-4.80
1.54
6.72
10.51
12.80
13.64
13.10
11.30
8.44
4.79
0.76
-3.22
-6.76
-9.60
-11.61
-12.80
-13.25
-13.02
-12.18
-10.81
-9.06
-7.19
-5.54
-4.45
-4.17
-4.76
-6.12
-8.02
-10.19
-12.44
-14.61
-16.67
-18.54
-20.17
-21.49
-22.50
-23.27
-23.94
-24.63
-25.32
-25.85
-25.85
-24.92
-22.70
-18.98
-13.84
-7.59
-0.80
5.86
11.74
16.33
19.38
20.88
21.10
20.38
19.09
17.50
15.78
14.02
12.32
10.80
9.60
8.87
8.67
9.01
9.76
10.75
11.72
12.44
12.75
12.57
11.90
10.79
9.26
7.29
4.82
1.86
-1.47
-4.93
-8.16
-10.87
-12.91
-14.30
-15.24
-15.99
-16.82
-17.95
-19.47
-21.25
-22.92
-23.87
-23.39
-20.94
-16.28
-9.73
-1.97
6.02
13.36
19.42
23.88
26.73
28.11
28.25
27.34
25.67
23.44
20.94
18.39
16.03
14.08
12.70
11.98
11.90
12.33
13.04
13.79
14.43
14.86
15.08
15.08
14.79
14.08
12.84
11.01
8.66
5.97
3.14
0.36
-2.25
-4.62
-6.75
-8.68
-10.54
-12.50
-14.73
-17.37
-20.33
-23.30
-25.73
-26.95
-26.35
-23.59
-18.69
-12.14
-4.74
2.52
8.66
12.98
15.12
15.18
13.55
10.85
7.70
4.66
2.13
0.39
-0.43
-0.33
0.61
2.21
4.25
6.53
8.93
11.38
13.88
16.37
18.71
20.67
21.92
22.18
21.20
18.91
15.40
10.98
6.14
1.40
-2.76
-6.16
-8.91
-11.36
-14.01
-17.19
-21.01
-25.18
-29.22
-32.50
-34.39
-34.38
-32.18
-27.73
-21.33
-13.63
-5.55
1.90
7.89
11.92
13.92
14.07
12.70
10.13
6.67
2.68
-1.42
-5.16
-8.11
-10.08
-11.11
-11.44
-11.33
-10.97
-10.33
-9.27
-7.64
-5.44
-2.89
-0.43
1.43
2.28
1.88
0.33
-2.07
-4.88
-7.68
-10.18
-12.25
-13.93
-15.39
-16.90
-18.68
-20.92
-23.55
-26.24
-28.34
-29.05
-27.57
-23.46
-16.75
-8.02
1.75
11.40
19.91
26.56
31.04
33.41
33.97
33.12
31.29
28.87
26.21
23.63
21.42
19.83
18.97
18.85
19.40
20.46
21.86
23.42
24.96
26.33
27.44
28.23
28.69
28.82
28.56
27.78
26.35
24.17
21.29
17.90
14.25
10.60
7.08
3.65
0.20
-3.41
-7.24
-11.20
-15.00
-18.14
-20.04
-20.12
-18.02
-13.74
-7.71
-0.74
6.17
12.05
16.19
18.20
18.02
15.84
12.03
7.08
1.57
-3.83
-8.53
-12.11
-14.46
-15.76
-16.38
-16.67
-16.79
-16.73
-16.37
-15.57
-14.35
-12.83
-11.27
-9.92
-9.02
-8.70
-9.00
-9.89
-11.28
-13.06
-15.11
-17.35
-19.75
-22.31
-24.98
-27.59
-29.76
-30.88
-30.28
-27.45
-22.28
-15.17
-6.98
1.25
8.53
14.22
18.08
20.18
20.83
20.36
19.08
17.27
15.16
12.99
11.03
9.53
8.69
8.58
9.18
10.38
12.02
13.95
15.95
17.78
19.03
19.24
17.97
14.99
10.42
4.76
-1.23
-6.76
-11.23
-14.35
-16.25
-17.38
-18.39
-19.87
-22.11
-24.96
-27.77
-29.58
-29.42
-26.65
-21.20
-13.68
-5.14
3.22
10.44
15.94
19.62
21.66
22.41
22.16
21.18
19.72
18.09
16.62
15.64
15.35
15.71
16.48
17.29
17.79
17.77
17.24
16.36
15.32
14.25
13.10
11.71
9.92
7.64
4.97
2.18
-0.39
-2.44
-3.88
-4.83
-5.63
-6.63
-8.13
-10.19
-12.54
-14.73
-16.15
-16.24
-14.69
-11.47
-6.93
-1.69
3.52
8.02
11.36
13.36
14.06
13.67
12.46
10.64
8.41
5.97
3.53
1.34
-0.35
-1.40
-1.76
-1.50
-0.81
0.08
0.89
1.41
1.51
1.13
0.30
-0.94
-2.57
-4.58
-6.91
-9.37
-11.71
-13.63
-14.93
-15.60
-15.80
-15.85
-16.02
-16.49
-17.29
-18.29
-19.21
-19.64
-19.11
-17.17
-13.60
-8.44
-2.14
4.56
10.79
15.86
19.39
21.39
22.20
22.22
21.79
21.08
20.10
18.81
17.28
15.74
14.51
13.90
14.08
15.04
16.57
18.41
20.32
22.15
23.81
25.28
26.53
27.48
28.06
28.12
27.49
25.92
23.21
19.25
14.17
8.39
2.48
-2.96
-7.47
-10.87
-13.26
-14.92
-16.19
-17.30
-18.38
-19.31
-19.79
-19.38
-17.63
-14.27
-9.33
-3.23
3.34
9.65
15.08
19.23
21.96
23.24
23.09
21.56
18.77
14.96
10.47
5.69
0.97
-3.42
-7.35
-10.76
-13.63
-15.93
-17.65
-18.80
-19.44
-19.67
-19.58
-19.22
-18.57
-17.59
-16.22
-14.49
-12.50
-10.43
-8.57
-7.14
-6.29
-6.03
-6.24
-6.69
-7.18
-7.60
-7.92
-8.28
-8.77
-9.51
-10.47
-11.53
-12.46
-12.94
-12.64
-11.23
-8.52
-4.50
0.59
6.23
11.80
16.63
20.15
21.99
21.90
19.85
15.88
10.17
2.96
-5.32
-14.17
-23.01
-31.21
-38.17
-43.38
-46.49
-47.28
-45.81
-42.41
-37.62
-32.16
-26.71
-21.77
-17.64
-14.41
-12.05
-10.54
-9.85
-9.94
-10.60
-11.56
-12.46
-13.01
-13.06
-12.64
-11.91
-11.04
-10.15
-9.32
-8.59
-7.95
-7.37
-6.70
-5.68
-3.99
-1.26
2.80
8.30
15.11
22.82
30.71
37.95
43.69
47.25
48.23
46.63
42.78
37.25
30.74
23.89
17.23
11.06
5.50
0.53
-3.98
-8.11
-11.87
-15.11
-17.60
-19.12
-19.58
-19.13
-18.16
-17.16
-16.59
-16.69
-17.46
-18.66
-19.94
-21.00
-21.64
-21.83
-21.72
-21.55
-21.55
-21.86
-22.39
-22.80
-22.54
-21.03
-17.84
-12.85
-6.37
0.91
8.07
14.19
18.55
20.79
20.95
19.37
16.58
13.06
9.19
5.16
1.04
-3.18
-7.45
-11.72
-15.76
-19.19
-21.48
-21.99
-20.27
-16.27
-10.54
-4.23
1.17
4.27
4.25
1.15
-4.14
-10.27
-15.81
-19.73
-21.61
-21.53
-19.93
-17.36
-14.34
-11.31
-8.66
-6.64
-5.36
-4.71
-4.38
-3.92
-2.85
-0.90
1.97
5.47
9.15
12.48
15.04
16.69
17.48
17.72
17.74
17.78
17.92
18.11
18.22
18.15
17.97
17.77
17.61
17.49
17.28
16.87
16.27
15.69
15.47
15.87
16.83
17.90
18.33
17.31
14.28
9.19
2.52
-4.84
-11.86
-17.61
-21.45
-23.11
-22.65
-20.47
-17.15
-13.43
-10.00
-7.34
-5.63
-4.61
-3.76
-2.46
-0.21
3.13
7.32
11.80
15.85
18.85
20.37
20.32
18.90
16.54
13.80
11.16
9.03
7.54
6.61
5.98
5.31
4.31
2.85
1.08
-0.68
-2.01
-2.53
-2.10
-0.84
0.94
2.83
4.42
5.37
5.50
4.76
3.31
1.47
-0.36
-1.84
-2.83
-3.45
-3.96
-4.59
-5.36
-6.10
-6.56
-6.62
-6.39
-6.04
-5.67
-5.06
-3.71
-1.14
2.81
7.77
12.90
17.23
20.00
20.96
20.30
18.52
16.10
13.43
10.73
8.17
5.94
4.25
3.29
3.08
3.46
4.14
4.74
4.95
4.60
3.68
2.29
0.63
-1.18
-3.04
-4.93
-6.85
-8.81
-10.82
-12.92
-15.13
-17.45
-19.84
-22.13
-24.04
-25.18
-25.11
-23.45
-19.98
-14.72
-7.96
-0.27
7.70
15.33
22.11
27.71
31.95
34.65
35.75
35.21
33.16
29.89
25.84
21.49
17.25
13.41
10.14
7.50
5.48
4.03
3.04
2.43
2.10
2.01
2.17
2.52
2.90
3.01
2.48
1.03
-1.43
-4.64
-8.13
-11.26
-13.49
-14.44
-14.02
-12.34
-9.80
-6.91
-4.28
-2.44
-1.73
-2.15
-3.33
-4.65
-5.42
-5.13
-3.59
-0.96
2.36
5.84
8.94
11.18
12.18
11.71
9.71
6.34
1.90
-3.16
-8.32
-13.07
-16.88
-19.38
-20.35
-19.86
-18.21
-15.91
-13.49
-11.34
-9.65
-8.41
-7.55
-6.97
-6.64
-6.56
-6.69
-6.89
-7.00
-6.89
-6.61
-6.37
-6.49
-7.23
-8.57
-10.20
-11.53
-11.88
-10.68
-7.57
-2.52
4.24
12.14
20.36
27.80
33.35
36.13
35.76
32.52
27.22
20.96
14.73
9.21
4.69
1.25
-1.11
-2.42
-2.65
-1.87
-0.27
1.83
4.09
6.17
7.86
9.00
9.47
9.23
8.25
6.56
4.23
1.44
-1.58
-4.50
-6.98
-8.74
-9.66
-9.84
-9.58
-9.31
-9.46
-10.29
-11.86
-13.97
-16.22
-18.08
-19.00
-18.56
-16.55
-13.11
-8.61
-3.62
1.29
5.69
9.34
12.15
14.11
15.21
15.48
14.96
13.76
12.11
10.33
8.73
7.61
7.11
7.28
8.06
9.32
10.91
12.72
14.63
16.48
18.06
19.11
19.39
18.77
17.27
15.07
12.46
9.74
7.15
4.84
2.87
1.23
-0.16
-1.42
-2.65
-3.89
-5.00
-5.62
-5.25
-3.36
0.34
5.80
12.57
19.90
26.98
33.06
37.63
40.50
41.73
41.56
40.27
38.11
35.26
31.82
27.92
23.71
19.43
15.36
11.71
8.58
5.92
3.56
1.31
-0.98
-3.41
-6.02
-8.80
-11.72
-14.68
-17.50
-19.87
-21.38
-21.65
-20.50
-18.11
-15.12
-12.40
-10.83
-10.96
-12.83
-15.99
-19.69
-23.19
-25.98
-27.87
-28.86
-29.04
-28.45
-27.06
-24.83
-21.81
-18.11
-13.97
-9.63
-5.30
-1.16
2.71
6.39
10.17
14.52
20.02
27.10
35.83
45.82
56.25
66.08
74.34
80.17
82.91
82.04
77.24
68.51
56.39
41.99
26.83
12.49
0.22
-9.35
-16.23
-20.98
-24.48
-27.70
-31.48
-36.24
-41.76
-47.26
-51.63
-53.99
-54.08
-52.37
-49.88
-47.57
-45.89
-44.60
-42.92
-40.09
-35.73
-30.07
-23.80
-17.74
-12.46
-8.17
-4.61
-1.31
2.23
6.25
10.60
14.57
16.94
16.23
11.02
0.49
-15.20
-34.71
-55.72
-75.55
-91.78
-102.86
-108.30
-108.64
-105.02
-98.90
-91.69
-84.61
-78.55
-73.94
-70.61
-67.81
-64.37
-59.10
-51.15
-40.43
-27.71
-14.39
-2.06
8.01
15.25
19.81
22.41
23.96
25.26
26.79
28.73
30.99
33.37
35.65
37.69
39.51
41.30
43.33
45.90
49.15
52.96
56.96
60.63
63.52
65.44
66.52
67.20
68.10
69.76
72.46
76.00
79.60
82.02
81.87
78.01
69.97
58.30
44.46
30.45
18.19
8.95
3.02
-0.22
-1.87
-2.96
-4.16
-5.68
-7.43
-9.33
-11.40
-13.73
-16.32
-18.93
-21.10
-22.32
-22.25
-20.92
-18.71
-16.24
-14.12
-12.80
-12.38
-12.75
-13.60
-14.66
-15.76
-16.91
-18.29
-20.16
-22.77
-26.20
-30.32
-34.79
-39.16
-43.03
-46.09
-48.25
-49.46
-49.73
-48.93
-46.86
-43.33
-38.26
-31.74
-23.97
-15.22
-5.75
4.12
14.01
23.39
31.64
38.25
42.91
45.68
46.93
47.15
46.82
46.18
45.17
43.43
40.36
35.29
27.77
17.80
6.04
-6.29
-17.66
-26.73
-32.74
-35.69
-36.21
-35.21
-33.57
-31.86
-30.39
-29.32
-28.70
-28.50
-28.58
-28.68
-28.50
-27.87
-26.93
-26.22
-26.49
-28.45
-32.39
-37.94
-44.02
-49.13
-51.80
-51.03
-46.58
-38.98
-29.25
-18.65
-8.25
1.15
9.11
15.49
20.34
23.86
26.34
28.16
29.71
31.33
33.23
35.35
37.42
39.04
39.86
39.68
38.49
36.39
33.43
29.59
24.81
19.14
12.87
6.51
0.68
-4.13
-7.71
-10.23
-12.19
-14.21
-16.90
-20.63
-25.43
-30.93
-36.41
-40.94
-43.61
-43.76
-41.20
-36.24
-29.59
-22.16
-14.73
-7.77
-1.30
4.98
11.50
18.50
25.91
33.25
39.80
44.83
47.84
48.54
46.85
42.79
36.48
28.20
18.54
8.27
-1.81
-11.19
-19.82
-28.07
-36.33
-44.73
-53.01
-60.59
-66.96
-72.00
-75.99
-79.38
-82.45
-85.04
-86.65
-86.77
-85.21
-82.25
-78.53
-74.68
-70.94
-67.02
-62.30
-56.07
-48.03
-38.38
-27.82
-17.29
-7.68
0.36
6.44
10.40
12.37
12.94
13.30
15.20
20.58
30.98
46.80
66.98
89.21
110.61
128.56
141.37
148.44
150.07
147.04
140.20
130.34
118.23
104.65
90.42
76.28
62.83
50.42
39.13
28.89
19.54
10.96
3.10
-4.06
-10.55
-16.47
-21.91
-26.89
-31.18
-34.26
-35.44
-34.10
-30.03
-23.70
-16.23
-9.15
-3.94
-1.61
-2.43
-6.07
-11.86
-19.19
-27.56
-36.38
-44.72
-51.07
-53.60
-50.68
-41.55
-26.75
-8.00
12.33
31.92
49.10
62.95
73.28
80.22
83.97
84.78
82.94
78.87
73.14
66.40
59.14
51.65
43.87
35.51
26.24
15.90
4.60
-7.21
-18.89
-29.71
-38.99
-46.06
-50.36
-51.42
-49.06
-43.52
-35.51
-26.16
-16.77
-8.51
-2.18
1.94
4.01
4.43
3.67
2.13
0.05
-2.42
-5.12
-7.87
-10.42
-12.47
-13.79
-14.24
-13.82
-12.71
-11.23
-9.80
-8.81
-8.57
-9.20
-10.64
-12.66
-14.93
-17.16
-19.13
-20.82
-22.29
-23.72
-25.20
-26.72
-28.12
-29.18
-29.68
-29.42
-28.35
-26.51
-24.13
-21.59
-19.33
-17.67
-16.61
-15.69
-14.01
-10.57
-4.71
3.54
13.40
23.56
32.70
39.93
44.94
47.88
49.15
49.15
48.30
47.12
46.24
46.35
47.89
50.83
54.58
58.17
60.63
61.37
60.34
58.01
55.07
52.15
49.60
47.44
45.50
43.49
41.09
38.00
33.83
28.18
20.68
11.22
0.07
-12.02
-23.96
-34.66
-43.31
-49.60
-53.63
-55.72
-56.22
-55.38
-53.44
-50.78
-48.03
-46.03
-45.65
-47.52
-51.85
-58.42
-66.67
-75.87
-85.20
-93.93
-101.37
-106.95
-110.29
-111.17
-109.59
-105.65
-99.47
-91.08
-80.42
-67.40
-52.14
-35.06
-16.95
1.12
18.00
32.68
44.47
53.12
58.80
61.99
63.33
63.43
62.78
61.61
59.95
57.74
54.89
51.42
47.47
43.36
39.54
36.55
34.93
35.08
37.09
40.68
45.21
49.79
53.58
55.90
56.42
55.11
52.21
48.07
43.07
37.56
31.91
26.44
21.46
17.24
13.96
11.67
10.31
9.71
9.74
10.26
11.22
12.54
14.06
15.52
16.55
16.80
16.06
14.40
12.16
9.87
8.11
7.29
7.50
8.45
9.50
9.84
8.70
5.60
0.53
-5.97
-12.90
-19.03
-23.19
-24.58
-22.93
-18.55
-12.24
-5.09
1.83
7.59
11.60
13.61
13.67
12.09
9.29
5.72
1.82
-2.10
-5.77
-8.97
-11.44
-12.92
-13.22
-12.28
-10.26
-7.53
-4.58
-1.90
0.06
1.04
0.92
-0.28
-2.45
-5.39
-8.82
-12.46
-16.04
-19.35
-22.35
-25.09
-27.71
-30.23
-32.52
-34.15
-34.47
-32.85
-28.90
-22.66
-14.70
-5.89
2.80
10.57
16.93
21.68
24.83
26.48
26.79
25.95
24.28
22.11
19.83
17.74
16.04
14.80
13.99
13.54
13.38
13.46
13.76
14.20
14.70
15.14
15.41
15.50
15.55
15.89
16.92
18.99
22.19
26.22
30.41
33.86
35.71
35.26
32.19
26.47
18.46
8.74
-1.83
-12.30
-21.69
-29.23
-34.46
-37.32
-37.98
-36.80
-34.14
-30.31
-25.61
-20.43
-15.20
-10.43
-6.52
-3.80
-2.35
-2.14
-3.01
-4.76
-7.20
-10.15
-13.40
-16.75
-20.01
-23.02
-25.67
-27.86
-29.52
-30.53
-30.80
-30.24
-28.84
-26.69
-24.05
-21.29
-18.87
-17.21
-16.54
-16.86
-17.83
-18.83
-19.12
-18.05
-15.29
-10.86
-5.24
0.82
6.46
10.95
13.88
15.20
15.19
14.28
12.91
11.35
9.76
8.22
6.81
5.66
4.93
4.73
5.06
5.78
6.73
7.70
8.52
9.02
9.07
8.51
7.31
5.54
3.43
1.24
-0.79
-2.56
-4.11
-5.59
-7.17
-8.98
-11.06
-13.37
-15.73
-17.81
-19.18
-19.37
-18.03
-15.09
-10.81
-5.76
-0.69
3.73
7.11
9.35
10.64
11.28
11.50
11.44
11.14
10.70
10.29
10.19
10.63
11.65
13.07
14.44
15.30
15.30
14.31
12.47
10.06
7.37
4.64
1.99
-0.55
-2.99
-5.36
-7.64
-9.82
-11.86
-13.74
-15.40
-16.69
-17.33
-17.01
-15.39
-12.30
-7.89
-2.61
2.84
7.76
11.58
14.09
15.32
15.54
15.04
14.04
12.69
11.09
9.32
7.51
5.84
4.50
3.63
3.27
3.31
3.50
3.57
3.29
2.52
1.29
-0.27
-1.98
-3.67
-5.25
-6.66
-7.94
-9.15
-10.37
-11.69
-13.22
-15.01
-17.00
-19.03
-20.70
-21.52
-20.99
-18.76
-14.84
-9.62
-3.79
1.88
6.75
10.45
12.91
14.30
14.86
14.85
14.46
13.82
13.03
12.14
11.22
10.30
9.44
8.68
8.12
7.79
7.67
7.65
7.55
7.17
6.39
5.19
3.68
2.00
0.28
-1.41
-3.04
-4.60
-6.03
-7.26
-8.29
-9.17
-10.02
-10.95
-11.96
-12.99
-13.92
-14.70
-15.41
-16.21
-17.27
-18.60
-19.99
-21.03
-21.26
-20.29
-17.94
-14.29
-9.66
-4.55
0.53
5.11
8.88
11.66
13.39
14.13
13.94
12.96
11.38
9.49
7.65
6.20
5.40
5.31
5.82
6.66
7.58
8.39
9.02
9.54
10.04
10.62
11.32
12.11
12.84
13.39
13.56
13.24
12.37
10.99
9.24
7.27
5.27
3.37
1.65
0.13
-1.23
-2.51
-3.78
-5.11
-6.51
-7.97
-9.45
-10.97
-12.55
-14.25
-16.08
-18.01
-19.94
-21.77
-23.46
-24.95
-26.21
-27.07
-27.22
-26.28
-23.97
-20.25
-15.41
-10.05
-4.82
-0.26
3.37
6.08
8.05
9.48
10.51
11.19
11.52
11.51
11.18
10.58
9.78
8.85
7.92
7.12
6.53
6.18
5.99
5.80
5.46
4.91
4.17
3.35
2.58
1.96
1.52
1.24
1.07
0.98
0.95
0.90
0.71
0.27
-0.55
-1.79
-3.40
-5.23
-7.12
-8.94
-10.62
-12.11
-13.37
-14.35
-14.97
-15.22
-15.20
-15.10
-15.12
-15.36
-15.71
-15.84
-15.35
-13.93
-11.49
-8.20
-4.47
-0.77
2.45
4.93
6.57
7.49
7.91
8.09
8.26
8.57
9.07
9.68
10.28
10.75
11.01
11.08
11.05
11.05
11.19
11.54
12.05
12.59
12.99
13.05
12.68
11.85
10.65
9.21
7.74
6.38
5.19
4.15
3.14
1.98
0.57
-1.11
-2.94
-4.71
-6.20
-7.27
-7.90
-8.24
-8.49
-8.83
-9.36
-10.06
-10.84
-11.62
-12.32
-12.96
-13.58
-14.23
-14.94
-15.71
-16.59
-17.59
-18.72
-19.87
-20.77
-21.05
-20.31
-18.26
-14.89
-10.48
-5.49
-0.53
3.87
7.35
9.78
11.25
11.99
12.31
12.46
12.56
12.62
12.56
12.30
11.84
11.23
10.54
9.88
9.25
8.67
8.13
7.65
7.24
6.83
6.35
