1564755225.00
64.000000
-0.00
-0.00
-0.00
-0.00
-0.00
-0.00
-0.00
-0.00
-0.00
-0.00
0.00
0.01
0.01
-0.00
-0.03
-0.05
-0.05
0.00
0.13
0.36
0.66
1.01
1.37
1.72
2.06
2.40
2.79
3.24
3.80
4.42
5.06
5.66
6.20
6.68
7.15
7.68
8.32
9.16
10.12
11.09
11.96
12.67
13.27
13.94
14.87
16.22
18.21
20.64
23.25
25.75
27.97
29.98
32.09
34.75
38.26
43.00
48.62
54.61
60.37
65.56
70.22
74.84
80.10
86.53
94.67
104.00
113.73
122.97
131.16
138.32
145.07
152.72
159.96
169.07
180.62
194.74
210.22
224.15
232.19
229.69
213.25
181.98
138.25
85.93
29.34
-28.25
-85.31
-141.57
-197.17
-251.83
-304.74
-354.41
-399.91
-440.53
-475.65
-504.44
-525.57
-537.41
-538.40
-527.68
-505.26
-472.52
-431.66
-385.24
-335.63
-284.68
-233.59
-183.05
-133.55
-85.54
-39.71
3.11
42.15
76.85
106.94
132.47
153.70
170.98
184.63
194.92
202.08
206.40
208.25
208.11
206.50
203.89
200.66
197.04
193.10
188.81
184.07
178.78
172.88
166.27
158.95
150.90
142.16
132.81
123.01
112.92
102.75
92.78
83.28
74.52
66.72
60.02
54.51
50.20
47.00
44.80
43.40
42.59
42.12
41.69
41.03
39.88
37.98
35.10
31.09
25.79
19.17
11.24
2.13
-7.95
-18.67
-29.65
-40.46
-50.67
-59.91
-67.89
-74.50
-79.81
-84.09
-87.69
-91.07
-94.62
-98.68
-103.36
-108.54
-113.82
-118.67
-122.35
-124.01
-122.88
-118.30
-109.91
-97.68
-81.95
-63.39
-43.05
-22.03
-1.43
17.78
34.82
49.12
60.29
68.14
73.43
76.63
78.15
78.37
77.61
76.15
74.20
71.90
69.40
66.81
64.08
61.21
58.24
55.21
52.18
49.16
46.23
43.42
40.75
38.17
35.64
33.14
30.65
28.15
25.66
23.15
20.64
18.16
15.69
13.23
10.81
8.46
6.19
4.03
1.99
0.07
-1.69
-3.35
-4.85
-6.24
-7.49
-8.59
-9.53
-10.29
-10.86
-11.24
-11.39
-11.35
-11.09
-10.63
-9.94
-9.04
-7.92
-6.59
-5.13
-3.63
-2.11
-0.54
1.13
3.05
5.28
7.79
10.54
13.42
16.30
19.18
22.10
25.16
28.55
32.32
36.38
40.65
44.80
48.58
51.87
54.68
57.09
59.37
61.46
63.12
64.05
63.43
60.63
55.37
47.84
38.57
28.58
18.18
7.11
-5.08
-19.89
-38.48
-61.14
-87.23
-115.35
-143.12
-169.77
-195.64
-221.51
-249.79
-282.18
-318.89
-358.59
-398.73
-435.21
-466.57
-493.17
-516.01
-538.03
-561.22
-585.35
-608.32
-626.58
-634.95
-632.13
-619.63
-585.75
-524.14
-434.22
-322.10
-199.36
-90.09
2.07
81.56
155.02
228.06
303.19
377.67
446.93
504.90
548.17
579.52
602.51
619.65
630.32
628.94
609.04
568.63
511.86
448.31
390.48
346.18
317.74
303.52
299.41
300.84
304.61
307.56
306.53
299.67
285.45
264.20
238.08
211.57
183.71
153.50
120.36
85.02
50.13
18.18
-9.86
-35.08
-59.42
-85.40
-112.69
-138.43
-158.73
-170.79
-174.68
-172.83
-168.08
-162.24
-155.97
-148.87
-141.40
-135.17
-131.84
-131.76
-133.58
-134.73
-133.14
-128.55
-122.11
-115.98
-112.01
-110.98
-112.47
-115.39
-118.36
-120.46
-121.00
-119.13
-114.31
-106.63
-96.78
-85.73
-75.22
-64.45
-52.48
-38.53
-22.49
-5.28
11.31
25.25
35.28
41.52
45.60
49.33
54.00
59.68
65.40
69.93
72.34
72.54
71.13
68.92
66.05
62.05
56.06
47.79
37.93
28.27
20.85
16.97
16.27
16.53
14.85
9.13
-0.76
-12.77
-23.70
-30.59
-32.02
-28.73
-23.37
-19.25
-19.04
-23.87
-32.54
-42.00
-48.65
-49.98
-46.06
-39.69
-35.36
-37.45
-48.29
-67.29
-91.46
-115.57
-133.68
-141.26
-136.77
-122.59
-103.67
-85.37
-70.80
-59.37
-47.60
-30.97
-7.24
22.42
54.31
84.61
110.62
130.38
141.45
140.85
127.18
102.11
70.98
41.20
19.49
8.57
6.43
8.94
13.98
24.90
48.35
89.35
146.43
211.93
274.78
325.93
363.06
383.56
390.53
388.85
381.58
368.07
345.95
312.92
268.77
216.13
159.83
106.67
63.70
38.98
31.72
37.74
50.39
62.20
66.63
59.65
38.35
5.87
-32.33
-71.75
-109.10
-142.63
-171.03
-192.76
-206.18
-210.03
-204.36
-191.69
-176.31
-161.96
-150.69
-142.60
-136.29
-129.92
-121.88
-111.31
-98.91
-86.63
-76.09
-68.15
-62.60
-58.52
-54.78
-50.42
-44.87
-38.43
-32.07
-26.69
-22.80
-20.42
-19.21
-18.68
-18.45
-18.23
-18.17
-18.64
-20.03
-22.55
-26.14
-30.65
-35.81
-41.45
-47.43
-53.77
-60.62
-68.17
-76.63
-86.04
-96.63
-108.59
-122.08
-137.21
-154.12
-172.77
-193.06
-215.34
-239.03
-263.50
-287.85
-311.31
-332.94
-351.91
-367.38
-378.63
-384.90
-385.26
-379.62
-367.20
-347.03
-318.10
-279.42
-230.43
-171.07
-102.11
-24.78
58.46
144.73
230.77
313.31
389.44
456.61
512.59
554.17
580.88
592.06
587.73
568.67
536.50
493.55
442.59
386.60
328.36
270.64
215.58
165.16
120.96
84.52
56.90
38.14
26.80
19.81
12.97
1.60
-17.98
-47.50
-86.04
-130.38
-176.18
-219.21
-256.48
-286.31
-308.47
-323.01
-329.55
-326.44
-310.98
-280.10
-231.20
-163.25
-78.10
18.51
117.06
204.07
266.96
297.33
294.01
264.02
220.32
178.13
150.13
144.46
160.11
189.24
219.87
239.62
239.28
214.87
168.59
107.58
40.90
-23.05
-77.55
-117.55
-139.40
-141.23
-124.31
-93.49
-56.87
-24.18
-3.03
4.47
0.90
-8.43
-18.04
-27.30
-39.74
-58.61
-83.47
-108.97
-126.32
-127.17
-107.18
-67.89
-16.74
34.97
74.40
89.79
74.26
28.63
-37.27
-106.91
-162.46
-191.33
-189.75
-162.40
-118.62
-67.64
-16.35
30.61
69.36
95.83
106.54
101.07
83.15
59.46
36.84
19.23
6.92
-1.56
-6.17
-4.08
9.22
36.21
73.52
110.98
134.36
131.13
96.20
34.77
-39.34
-109.17
-161.09
-189.31
-196.02
-187.67
-169.76
-143.57
-106.47
-55.45
8.45
77.91
141.08
186.31
206.96
203.87
183.46
153.51
119.43
83.10
44.62
5.10
-31.63
-60.28
-76.47
-79.26
-71.45
-57.58
-41.20
-23.10
-1.78
24.70
56.33
90.33
121.68
145.09
157.07
156.91
146.58
129.40
108.35
84.25
55.63
19.52
-26.14
-80.19
-137.30
-188.67
-224.57
-237.21
-223.11
-184.16
-127.25
-62.41
-0.57
48.83
79.82
90.63
83.06
60.85
28.00
-11.99
-55.41
-97.65
-132.83
-155.00
-160.45
-149.52
-126.21
-95.68
-61.44
-24.14
16.78
59.90
99.52
126.02
129.73
106.07
58.80
-0.47
-56.42
-95.64
-110.36
-99.70
-68.27
-23.46
26.11
71.05
101.84
110.19
91.12
45.31
-20.26
-93.94
-162.16
-212.81
-237.82
-233.82
-202.44
-150.42
-89.03
-32.06
8.01
24.62
20.04
4.03
-10.00
-11.12
4.69
32.98
64.30
88.29
97.26
90.50
70.34
41.09
8.18
-23.34
-47.17
-57.32
-49.77
-23.60
18.71
71.37
126.75
176.53
213.20
232.22
232.87
218.66
195.90
170.90
147.04
124.53
102.28
80.72
63.69
56.21
61.20
76.60
95.51
109.32
112.45
105.41
92.10
79.68
73.70
75.33
81.30
86.57
87.25
82.41
73.58
62.77
51.35
39.07
24.81
7.78
-11.55
-31.30
-48.99
-62.57
-71.19
-75.31
-76.59
-77.04
-78.23
-80.58
-83.46
-85.67
-86.14
-84.51
-81.05
-76.71
-72.55
-69.29
-67.08
-65.46
-63.77
-61.46
-58.36
-54.64
-50.78
-47.22
-44.27
-41.93
-39.98
-38.12
-36.12
-33.92
-31.58
-29.25
-27.09
-25.15
-23.44
-21.90
-20.49
-19.14
-17.85
-16.61
-15.45
-14.37
-13.37
-12.45
-11.60
-10.83
-10.14
-9.52
-8.85
-8.21
-7.62
-7.08
-6.59
-6.13
-5.71
-5.33
-4.97
-4.64
-4.35
-4.09
-3.86
-3.64
-3.43
-3.22
-3.01
-2.80
-2.62
-2.53
-2.51
-2.57
-2.68
-2.75
-2.77
-2.71
-2.59
-2.46
-2.39
-2.42
-2.54
-2.71
-2.84
-2.87
-2.80
-2.66
-2.57
-2.62
-2.87
-3.28
-3.71
-4.01
-4.05
-3.83
-3.49
-3.28
-3.46
-4.13
-5.24
-6.51
-7.56
-8.08
-7.98
-7.52
-7.21
-7.60
-8.96
-11.21
-13.77
-15.87
-16.91
-16.77
-15.93
-15.34
-15.88
-18.02
-21.45
-25.24
-28.22
-29.74
-29.72
-28.84
-28.09
-28.16
-29.38
-31.86
-35.83
-41.45
-48.07
-53.46
-53.91
-45.55
-26.39
2.14
34.98
65.31
87.25
98.13
99.16
94.12
87.45
82.11
79.12
77.76
76.85
75.87
75.18
76.07
79.46
84.27
87.24
83.73
70.95
50.18
26.77
7.26
-4.68
-10.60
-15.70
-24.96
-38.65
-51.58
-56.31
-48.38
-29.79
-8.35
6.52
9.38
1.12
-12.43
-24.69
-32.02
-34.60
-35.06
-35.91
-38.14
-40.84
-42.33
-41.56
-38.64
-34.62
-31.11
-29.28
-29.45
-31.14
-33.16
-34.47
-34.51
-33.43
-31.81
-30.35
-29.51
-29.33
-29.62
-30.03
-30.32
-30.27
-29.62
-27.98
-24.86
-20.02
-13.65
-6.62
-0.18
4.43
6.68
7.15
7.40
9.35
14.15
21.56
29.81
36.27
38.70
36.58
31.43
26.23
24.38
27.84
36.48
48.41
60.95
71.51
77.40
76.23
66.30
48.38
25.88
5.30
-6.00
-3.46
11.73
31.76
45.33
42.85
21.65
-12.72
-48.93
-75.23
-84.50
-76.47
-56.86
-33.26
-13.33
-0.54
5.29
6.18
3.78
-1.39
-8.93
-18.05
-26.70
-32.46
-33.53
-29.84
-23.15
-16.30
-11.63
-9.03
-7.21
-3.50
4.75
19.16
39.28
62.20
82.83
94.42
92.95
77.40
51.13
20.57
-7.17
-27.46
-39.70
-47.55
-55.58
-66.50
-79.87
-91.74
-96.85
-91.37
-74.96
-51.03
-25.48
-3.38
12.92
24.45
35.06
48.82
67.52
87.99
104.84
110.94
101.71
77.73
44.80
11.73
-13.63
-27.68
-32.24
-32.91
-36.46
-46.15
-61.39
-78.37
-91.81
-97.20
-92.34
-78.22
-57.26
-35.17
-16.54
-3.71
4.09
9.66
16.44
25.58
35.52
43.86
48.57
50.23
51.49
55.64
64.82
79.06
96.69
114.53
129.25
137.54
136.72
124.86
101.81
69.99
32.83
-0.75
-24.05
-34.60
-34.44
-27.91
-19.27
-10.73
-2.40
6.32
15.40
22.66
25.73
23.05
14.91
3.27
-9.33
-20.66
-30.07
-36.79
-42.72
-49.64
-58.06
-67.18
-75.28
-80.47
-81.31
-77.80
-73.19
-68.03
-62.87
-57.59
-51.30
-42.95
-31.58
-16.74
0.29
16.72
29.95
38.13
40.49
37.37
29.84
19.30
7.34
-5.81
-21.45
-40.25
-62.04
-85.99
-110.68
-134.92
-158.70
-175.35
-173.30
-149.55
-109.22
-62.71
-20.26
12.86
36.17
52.17
64.13
73.70
80.11
82.26
79.58
71.30
57.53
38.63
15.25
-11.04
-37.96
-62.51
-80.34
-81.93
-66.10
-38.25
-7.64
16.98
31.04
34.59
30.86
23.97
17.10
10.33
2.98
-5.31
-13.72
-20.43
-24.11
-24.84
-24.04
-22.99
-23.50
-26.00
-29.80
-33.52
-35.53
-35.12
-32.71
-29.98
-27.80
-27.49
-29.90
-35.33
-43.46
-52.95
-63.66
-73.33
-81.99
-88.12
-91.12
-91.37
-89.91
-87.75
-84.64
-80.08
-73.49
-64.82
-51.10
-30.50
-2.78
31.76
67.90
103.40
137.25
169.09
198.46
228.54
260.94
294.25
324.86
349.03
365.15
372.92
372.91
343.16
276.55
182.49
80.33
-13.47
-91.58
-153.35
-201.34
-238.87
-268.94
-290.27
-302.07
-306.17
-306.33
-305.69
-306.24
-308.48
-312.07
-316.47
-318.49
-315.67
-308.24
-298.29
-288.09
-278.60
-269.28
-258.42
-243.04
-223.31
-198.46
-169.28
-137.98
-107.06
-78.46
-53.07
-30.94
-11.48
6.96
26.10
46.22
66.19
84.27
98.95
109.78
117.49
123.85
131.24
141.87
156.20
172.81
189.23
203.15
213.54
221.16
228.25
237.26
250.23
267.64
288.57
311.34
334.02
354.39
369.74
376.78
372.61
356.39
330.25
299.03
268.32
241.63
218.34
193.84
162.24
119.81
67.41
10.14
-45.52
-95.03
-137.62
-175.40
-210.32
-241.13
-262.28
-266.11
-247.27
-206.83
-153.61
-101.86
-65.94
-54.52
-67.44
-96.15
-127.76
-150.30
-156.79
-146.50
-123.37
-92.76
-58.75
-23.09
14.10
52.72
91.59
128.56
161.83
191.48
220.09
252.06
291.11
337.72
387.42
431.54
459.90
464.57
443.01
399.17
341.96
281.70
226.59
180.21
141.24
105.13
66.55
21.41
-32.28
-94.31
-162.39
-231.96
-296.22
-346.95
-376.87
-382.85
-368.29
-343.11
-320.29
-310.50
-317.40
-336.24
-356.52
-367.23
-361.85
-340.22
-306.90
-267.34
-224.68
-178.58
-126.75
-67.51
-1.91
65.48
127.96
179.03
214.55
233.62
238.07
230.98
214.98
191.78
162.25
127.74
91.16
57.16
30.93
16.71
16.13
27.54
47.07
69.13
88.50
102.03
109.62
113.52
117.38
124.48
136.23
152.64
170.99
187.53
199.73
207.53
212.80
219.21
230.48
249.01
276.62
311.33
348.66
383.86
413.32
433.99
444.23
442.93
429.23
404.67
369.19
322.14
263.70
196.47
125.22
58.52
7.02
-32.70
-55.54
-59.67
-52.92
-49.96
-56.71
-76.40
-104.26
-132.31
-155.09
-168.14
-171.83
-169.82
-166.04
-161.47
-155.30
-145.39
-131.14
-114.47
-97.31
-83.01
-74.07
-72.71
-77.65
-85.65
-92.31
-95.13
-94.72
-92.93
-93.12
-98.35
-114.30
-142.71
-180.49
-220.75
-257.31
-287.61
-311.87
-332.47
-352.01
-379.07
-417.71
-464.48
-510.22
-546.46
-569.96
-582.40
-588.53
-593.83
-612.63
-654.55
-719.57
-798.76
-880.37
-954.29
-1012.35
-1048.08
-997.93
-835.77
-587.99
-318.23
-82.65
95.22
218.16
299.46
351.98
384.07
391.22
372.10
334.01
291.65
259.06
243.00
242.78
253.34
269.05
279.77
277.76
266.19
255.78
257.75
277.95
315.32
362.66
408.33
433.96
423.77
371.13
280.28
164.05
39.69
-75.22
-166.75
-227.62
-260.33
-272.39
-271.46
-262.68
-248.57
-230.15
-208.13
-183.73
-158.66
-135.35
-115.17
-97.17
-79.23
-59.61
-38.31
-17.09
1.49
15.29
23.77
28.22
31.49
36.80
46.74
62.61
84.38
111.05
141.35
174.57
210.85
251.02
295.65
343.87
392.62
436.85
470.76
489.71
491.78
478.28
453.09
420.99
386.20
351.51
318.38
287.46
259.16
233.74
211.05
190.41
170.67
150.76
130.14
109.04
88.47
69.67
53.54
40.44
30.15
22.02
15.10
8.30
0.57
-8.59
-19.11
-30.40
-41.55
-51.56
-59.75
-65.95
-70.38
-73.29
-74.10
-71.83
-65.63
-55.28
-41.41
-25.42
-9.08
6.01
18.93
30.80
42.92
55.81
68.81
80.81
91.06
99.36
105.93
111.20
117.89
127.63
139.78
151.62
160.18
163.92
162.76
157.70
150.14
145.33
146.73
153.95
162.95
169.11
169.95
165.53
157.71
149.17
147.52
157.94
180.55
210.52
241.50
268.72
288.84
299.59
268.18
179.85
45.91
-100.91
-229.21
-324.06
-385.06
-419.16
-434.61
-438.39
-430.80
-412.86
-389.12
-366.88
-352.76
-345.73
-339.98
-328.48
-306.87
-271.81
-226.27
-179.15
-141.56
-120.69
-115.87
-120.63
-126.68
-127.96
-119.41
-100.19
-73.96
-47.32
-26.53
-15.10
-14.16
-23.11
-39.65
-58.21
-70.58
-67.29
-45.03
-10.86
22.09
42.03
43.93
30.57
10.41
-7.32
-17.04
-18.60
-15.49
-11.25
-7.68
-4.66
-0.99
3.84
8.77
11.39
9.24
1.99
-8.01
-16.57
-19.75
-15.41
-4.89
7.18
14.06
9.43
-9.14
-38.04
-68.34
-89.04
-89.63
-65.81
-22.68
26.01
63.22
76.56
63.66
32.58
-3.05
-30.51
-43.45
-41.40
-28.42
-11.07
5.65
20.18
32.56
41.53
44.19
37.95
23.02
2.97
-16.46
-29.39
-33.05
-28.01
-17.93
-7.41
0.16
4.02
5.57
6.99
9.31
10.95
7.49
-8.17
-40.42
-88.29
-144.11
-195.56
-229.83
-237.84
-216.85
-170.63
-107.46
-36.97
31.90
91.72
136.45
161.88
166.76
154.06
131.19
107.68
91.61
86.09
88.03
90.23
85.56
70.84
48.20
23.45
2.62
-10.81
-17.01
-18.78
-19.64
-22.36
-28.33
-38.23
-52.48
-71.17
-93.45
-116.89
-137.39
-149.96
-150.39
-136.90
-111.13
-77.69
-42.67
-11.57
12.34
28.45
38.31
44.53
49.47
54.64
60.54
67.01
73.54
79.68
85.20
90.23
95.11
100.14
105.46
110.79
115.56
119.05
120.99
121.86
122.96
125.98
132.17
141.71
153.43
165.23
174.77
180.26
180.85
176.48
167.47
154.17
137.16
117.38
96.30
75.11
54.04
32.16
8.06
-18.87
-47.55
-75.13
-98.04
-113.61
-121.45
-123.28
-121.70
-118.81
-115.49
-112.13
-109.31
-107.90
-106.29
-101.61
-90.71
-72.83
-50.81
-29.63
-14.13
-6.65
-6.10
-8.92
-11.24
-10.75
-7.28
-2.22
3.26
8.78
14.89
22.31
30.59
38.25
43.40
44.72
41.57
35.86
29.85
25.37
23.15
21.93
19.95
15.79
9.26
1.59
-4.95
-8.31
-7.45
-2.92
2.18
4.47
1.46
-7.55
-21.59
-38.97
-58.65
-81.62
-104.34
-128.35
-156.64
-192.17
-236.34
-287.50
-341.06
-388.63
-419.40
-423.62
-397.64
-343.92
-270.37
-187.62
-105.26
-30.40
35.23
94.80
152.62
208.98
259.84
297.50
313.11
300.23
255.50
182.69
92.87
0.94
-79.96
-140.19
-175.24
-185.49
-163.53
-113.18
-49.76
9.87
57.10
90.76
112.87
126.78
134.16
137.86
140.92
148.72
167.71
202.41
248.16
296.73
337.61
361.60
364.35
346.11
312.86
274.01
237.86
207.81
182.60
157.84
128.81
92.90
49.23
-0.15
-50.59
-95.97
-130.23
-148.07
-146.09
-124.12
-85.65
-38.23
8.27
43.62
59.27
49.95
15.05
-41.67
-113.27
-191.06
-266.01
-329.16
-372.42
-389.98
-380.66
-349.61
-308.40
-271.99
-254.07
-262.46
-296.82
-349.39
-408.20
-460.72
-496.72
-509.79
-497.54
-461.36
-405.87
-338.04
-265.36
-194.19
-128.85
-71.35
-22.11
19.43
54.55
85.26
114.39
145.27
180.91
222.85
270.31
319.99
366.25
402.73
424.14
427.97
415.34
390.32
358.32
324.22
291.27
260.97
233.83
210.13
190.16
173.89
160.52
148.43
135.71
120.93
103.66
84.45
64.43
44.81
26.49
10.03
-4.32
-16.50
-26.72
-35.38
-42.95
-49.80
-55.94
-61.04
-64.53
-65.87
-64.87
-61.81
-57.42
-52.66
-48.42
-45.38
-43.90
-44.07
-45.77
-48.73
-52.54
-56.61
-60.25
-62.71
-63.42
-62.07
-58.69
-53.61
-47.35
-40.45
-33.38
-26.46
-19.87
-13.78
-8.31
-3.65
0.04
2.66
4.20
4.80
4.67
4.10
3.40
2.92
3.01
3.87
5.46
7.45
9.28
10.42
10.62
10.13
9.63
9.96
11.83
15.59
21.16
28.12
35.91
43.87
51.37
57.82
62.73
65.82
67.09
66.74
65.17
62.77
59.86
56.64
53.24
49.83
46.61
43.84
41.67
40.12
38.94
37.70
35.81
32.77
28.27
22.30
15.21
7.55
-0.07
-7.20
-13.61
-19.36
-24.62
-29.55
-34.16
-38.18
-41.19
-42.75
-42.54
-40.50
-36.81
-31.87
-26.15
-20.14
-14.29
-8.98
-4.51
-1.10
1.15
2.29
2.51
2.10
1.35
0.55
-0.10
-0.48
-0.52
-0.18
0.51
1.47
2.49
3.27
3.47
2.81
1.19
-1.29
-4.29
-7.33
-9.91
-11.61
-12.20
-11.70
-10.36
-8.67
-7.27
-6.70
-7.29
-8.92
-11.02
-12.72
-13.15
-11.79
-8.61
-4.12
0.88
5.65
9.70
12.88
15.25
16.92
17.91
18.23
17.88
17.03
15.97
15.04
14.53
14.58
15.19
16.26
17.69
19.34
21.12
22.81
24.13
24.71
24.24
22.64
20.17
17.50
15.40
14.52
14.99
16.39
17.87
18.47
17.45
14.47
9.54
2.98
-4.73
-12.90
-20.61
-26.84
-30.73
-31.96
-30.94
-28.78
-26.81
-26.13
-27.19
-29.77
-33.20
-36.68
-39.55
-41.42
-42.12
-41.62
-39.98
-37.42
-34.27
-31.03
-28.21
-26.29
-25.48
-25.82
-27.09
-28.91
-30.85
-32.46
-33.39
-33.41
-32.47
-30.71
-28.39
-25.88
-23.52
-21.64
-20.43
-20.03
-20.44
-21.55
-23.03
-24.38
-25.00
-24.34
-22.08
-18.32
-13.50
-8.30
-3.40
0.76
4.04
6.58
8.62
10.39
11.97
13.34
14.46
15.29
15.85
16.17
16.25
16.09
15.73
15.31
15.07
15.30
16.29
18.18
20.94
24.33
27.99
31.46
34.34
36.34
37.35
37.43
36.76
35.47
33.61
31.08
27.73
23.56
18.73
13.69
9.00
5.26
2.92
2.28
3.41
6.20
10.34
15.38
20.72
25.74
29.85
32.65
33.91
33.62
31.92
29.02
25.22
20.85
16.27
11.85
7.86
4.45
1.61
-0.81
-2.97
-4.97
-6.70
-7.92
-8.26
-7.43
-5.32
-2.13
1.63
5.25
7.97
9.25
8.88
7.05
4.22
1.00
-2.14
-4.96
-7.46
-9.85
-12.30
-14.84
-17.24
-19.10
-19.94
-19.39
-17.33
-13.94
-9.67
-5.05
-0.60
3.27
6.36
8.57
9.92
10.42
10.18
9.30
8.00
6.50
5.06
3.88
3.05
2.56
2.30
2.18
2.13
2.12
2.15
2.14
1.92
1.29
0.07
-1.75
-4.04
-6.59
-9.21
-11.82
-14.48
-17.29
-20.31
-23.54
-26.87
-30.11
-33.04
-35.34
-36.64
-36.57
-34.86
-31.52
-26.89
-21.57
-16.21
-11.36
-7.28
-3.95
-1.16
1.27
3.41
5.17
6.39
6.99
7.06
6.87
6.76
6.95
7.48
8.14
8.68
8.86
8.62
8.01
7.13
6.07
4.86
3.50
1.99
0.38
-1.30
-3.01
-4.78
-6.68
-8.76
-11.06
-13.50
-15.90
-17.96
-19.27
-19.40
-18.05
-15.19
-11.09
-6.23
-1.17
3.66
8.01
11.81
15.06
17.73
19.77
21.11
21.78
21.88
21.55
20.86
19.77
18.22
16.17
13.75
11.21
8.85
6.90
5.46
4.46
3.74
3.11
2.37
1.40
0.12
-1.48
-3.27
-5.07
-6.68
-7.96
-8.88
-9.53
-10.07
-10.68
-11.52
-12.65
-14.06
-15.61
-17.04
-18.01
-18.16
-17.19
-15.00
-11.69
-7.55
-3.04
1.39
5.34
8.55
10.97
12.67
13.84
14.67
15.28
15.77
16.17
16.53
16.91
17.30
17.67
17.92
17.94
17.75
17.44
17.13
16.96
16.90
16.87
16.71
16.32
15.73
15.04
14.41
13.90
13.46
12.94
12.14
10.95
9.36
7.52
5.64
3.93
2.52
1.42
0.54
-0.35
-1.49
-3.16
-5.54
-8.67
-12.34
-16.07
-19.21
-21.09
-21.26
-19.65
-16.56
-12.56
-8.32
-4.36
-1.05
1.47
3.22
4.31
4.90
5.15
5.21
5.17
5.12
5.14
5.35
5.86
6.74
7.92
9.19
10.34
11.24
11.92
12.57
13.33
14.21
14.97
15.27
14.84
13.67
12.03
10.33
8.87
7.73
6.72
5.62
4.29
2.79
1.32
0.04
-1.06
-2.16
-3.54
-5.47
-8.00
-11.00
-14.12
-16.92
-18.93
-19.73
-19.07
-16.93
-13.56
-9.42
-5.06
-0.91
2.75
5.82
8.35
10.41
12.04
13.24
14.05
14.50
14.68
14.69
14.60
14.48
14.39
14.37
14.46
14.66
14.93
15.18
15.31
15.20
14.81
14.11
13.13
11.90
10.47
8.87
7.15
5.37
3.56
1.76
-0.01
-1.73
-3.35
-4.82
-6.14
-7.36
-8.63
-10.17
-12.11
-14.42
-16.85
-18.92
-20.14
-20.18
-18.95
-16.64
-13.62
-10.29
-7.01
-4.04
-1.58
0.23
1.33
1.72
1.53
0.96
0.29
-0.29
-0.62
-0.65
-0.39
0.09
0.75
1.51
2.30
3.06
3.71
4.19
4.42
4.33
3.82
2.86
1.45
-0.34
-2.42
-4.68
-7.07
-9.55
-12.09
-14.60
-17.00
-19.23
-21.21
-22.82
-23.89
-24.13
-23.29
-21.24
-18.09
-14.25
-10.24
-6.57
-3.55
-1.27
0.38
1.54
2.35
2.87
3.15
3.26
3.28
3.33
3.51
3.89
4.49
5.23
5.92
6.31
6.15
5.33
3.93
2.21
0.51
-0.89
-1.90
-2.63
-3.26
-4.02
-5.00
-6.23
-7.68
-9.38
-11.32
-13.50
-15.76
-17.76
-19.05
-19.20
-18.01
-15.54
-12.16
-8.33
-4.47
-0.84
2.45
5.36
7.80
9.62
10.72
11.05
10.71
9.87
8.70
7.28
5.58
3.46
0.86
-2.13
-5.19
-7.80
-9.33
-9.31
-7.60
-4.47
-0.59
3.18
5.99
7.26
6.83
4.99
2.32
-0.49
-2.91
-4.65
-5.73
-6.30
-6.54
-6.47
-6.05
-5.19
-3.94
-2.49
-1.10
0.04
0.93
1.72
2.63
3.75
5.00
6.13
6.84
6.95
6.56
5.95
5.54
5.66
6.42
7.68
9.09
10.27
10.93
11.02
10.66
10.05
9.40
8.80
8.25
7.73
7.20
6.67
6.14
5.60
5.00
4.27
3.38
2.33
1.21
0.08
-1.05
-2.26
-3.67
-5.39
-7.37
-9.36
-10.98
-11.83
-11.66
-10.43
-8.34
-5.69
-2.80
0.06
2.74
5.12
7.13
8.72
9.86
10.59
10.97
11.10
11.10
11.11
11.26
11.67
12.34
13.24
14.20
15.05
15.60
15.76
15.53
14.92
14.03
12.93
11.69
10.29
8.71
6.91
4.87
2.63
0.30
-1.98
-4.09
-5.97
-7.59
-8.99
-10.21
-11.33
-12.43
-13.59
-14.88
-16.23
-17.49
-18.39
-18.64
-18.05
-16.62
-14.49
-11.92
-9.16
-6.44
-3.95
-1.81
-0.15
0.92
1.37
1.27
0.80
0.23
-0.25
-0.51
-0.60
-0.65
-0.80
-1.13
-1.66
-2.31
-3.03
-3.76
-4.49
-5.20
-5.89
-6.57
-7.31
-8.21
-9.40
-10.94
-12.76
-14.65
-16.35
-17.66
-18.52
-19.02
-19.28
-19.38
-19.21
-18.51
-16.95
-14.33
-10.69
-6.35
-1.79
2.52
6.35
9.68
12.71
15.65
18.55
21.29
23.61
25.25
26.09
26.24
25.89
25.28
24.61
23.99
23.44
22.95
22.49
21.95
21.26
20.30
19.04
17.50
15.73
13.85
11.91
9.94
7.98
6.03
4.16
2.44
0.97
-0.20
-1.02
-1.48
-1.66
-1.70
-1.86
-2.36
-3.35
-4.75
-6.20
-7.08
-6.70
-4.46
-0.03
6.45
14.36
22.61
29.90
34.90
36.71
35.01
30.15
23.03
14.68
6.03
-2.35
-10.23
-17.54
-24.22
-30.15
-35.14
-39.09
-42.01
-44.04
-45.36
-46.00
-45.80
-44.49
-41.90
-38.12
-33.56
-28.90
-24.85
-21.90
-20.18
-19.50
-19.42
-19.50
-19.41
-19.00
-18.26
-17.30
-16.30
-15.46
-14.95
-14.87
-15.18
-15.66
-15.99
-15.78
-14.76
-12.87
-10.29
-7.37
-4.48
-1.90
0.32
2.24
3.97
5.59
7.04
8.20
8.95
9.25
9.17
8.88
8.55
8.31
8.18
8.11
8.06
8.00
8.01
8.17
8.51
8.93
9.20
9.12
8.55
7.61
6.49
5.45
4.61
3.94
3.31
2.62
1.83
1.01
0.21
-0.62
-1.60
-2.87
-4.47
-6.30
-8.05
-9.41
-10.08
-9.96
-9.04
-7.49
-5.51
-3.32
-1.11
0.94
2.74
4.26
5.49
6.45
7.12
7.45
7.44
7.13
6.68
6.27
6.06
6.10
6.34
6.63
6.87
6.99
6.97
6.82
6.49
5.94
5.11
4.05
2.88
1.76
0.79
-0.04
-0.85
-1.84
-3.20
-5.06
-7.41
-10.14
-13.02
-15.79
-18.14
-19.73
-20.28
-19.54
-17.43
-14.09
-9.86
-5.21
-0.63
3.50
6.92
9.55
11.38
12.47
12.97
13.10
13.10
13.17
13.40
13.77
14.16
14.51
14.87
15.38
16.13
17.13
18.32
19.58
20.90
22.36
24.11
26.20
28.51
30.79
32.73
34.13
35.01
35.55
36.04
36.77
37.94
39.68
42.06
45.05
48.55
52.36
56.16
59.51
61.90
62.76
61.56
57.91
51.67
42.98
32.28
20.27
7.76
-4.48
-15.85
-25.98
-34.80
-42.47
-49.25
-55.36
-60.88
-65.59
-69.04
-70.66
-69.93
-66.63
-61.03
-53.84
-46.16
-39.10
-33.49
-29.64
-27.31
-25.98
-25.15
-24.65
-24.68
-25.62
-27.73
-30.81
-34.24
-37.21
-39.00
-39.31
-38.25
-36.12
-33.18
-29.50
-25.08
-20.01
-14.64
-9.51
-5.17
-1.88
0.51
2.43
4.44
6.88
9.83
13.11
16.42
19.53
22.33
24.86
27.27
29.72
32.36
35.26
38.40
41.64
44.73
47.40
49.34
50.40
50.59
50.16
49.54
49.24
49.72
51.25
53.85
57.38
61.59
66.18
70.86
75.30
79.12
81.92
83.39
83.40
82.05
79.67
76.78
73.98
71.90
70.99
71.37
72.69
74.15
74.71
73.45
69.99
64.64
58.17
51.39
44.67
37.72
29.80
20.20
8.69
-4.39
-18.27
-32.16
-45.53
-58.01
-69.28
-78.82
-85.91
-89.77
-89.77
-85.73
-78.15
-68.36
-58.22
-49.74
-44.35
-42.35
-42.94
-44.56
-45.84
-46.22
-46.09
-46.32
-47.54
-49.59
-51.64
-52.75
-52.43
-50.98
-49.19
-47.94
-47.68
-48.25
-49.01
-49.08
-47.74
-44.71
-40.27
-35.20
-30.57
-27.22
-25.47
-24.99
-24.97
-24.52
-23.12
-20.89
-18.38
-16.31
-15.15
-14.86
-15.00
-14.97
-14.41
-13.34
-12.19
-11.45
-11.40
-11.93
-12.53
-12.54
-11.43
-9.06
-5.69
-1.90
1.71
4.71
6.92
8.38
9.16
9.29
8.68
7.23
4.93
1.88
-1.78
-5.99
-10.83
-16.49
-23.03
-30.13
-37.04
-42.73
-46.24
-47.07
-45.38
-41.90
-37.56
-33.15
-29.07
-25.26
-21.45
-17.26
-12.43
-6.70
0.21
8.60
18.74
30.63
43.80
57.32
69.98
80.75
89.08
95.11
99.48
103.00
106.23
109.20
111.31
111.48
108.45
101.13
89.03
72.43
52.48
30.87
9.50
-10.01
-26.71
-40.42
-51.66
-61.16
-69.38
-76.10
-80.41
-80.94
-76.50
-66.68
-52.15
-34.56
-15.89
2.32
19.50
36.02
52.50
68.93
84.14
95.96
102.28
102.17
96.69
88.53
80.78
75.61
73.34
72.65
71.55
68.21
61.23
49.45
31.90
8.53
-18.76
-45.82
-67.31
-78.98
-80.11
-74.21
-67.52
-65.88
-71.76
-83.35
-96.08
-105.58
-110.07
-111.03
-111.70
-114.81
-120.95
-128.42
-134.43
-136.67
-134.25
-127.76
-118.62
-107.99
-96.24
-83.08
-68.12
-51.52
-34.40
-18.50
-5.66
2.94
7.16
7.82
6.38
4.50
3.55
4.44
7.48
12.40
18.40
24.38
29.18
32.01
32.64
31.52
29.44
27.19
25.09
22.78
19.48
14.33
6.94
-2.37
-12.53
-22.16
-30.04
-35.56
-38.88
-40.69
-41.78
-42.62
-43.12
-42.78
-41.05
-37.74
-33.29
-28.58
-24.61
-21.99
-20.65
-19.90
-18.73
-16.28
-12.21
-6.69
-0.21
6.67
13.42
19.60
24.74
28.45
30.60
31.51
31.97
32.86
34.75
37.53
40.53
42.89
44.19
44.73
45.51
47.69
52.11
58.95
67.84
78.19
89.52
101.70
114.96
129.93
147.46
168.38
192.96
220.34
248.10
272.35
288.50
292.49
282.18
258.04
223.09
181.87
139.09
98.48
62.30
31.40
5.76
-15.02
-31.52
-44.45
-54.75
-63.53
-71.85
-80.37
-89.10
-97.44
-104.42
-109.16
-111.10
-110.16
-106.60
-100.87
-93.52
-85.06
-76.04
-67.05
-58.62
-51.07
-44.39
-38.19
-31.84
-24.81
-17.00
-8.91
-1.58
3.61
5.40
2.99
-3.64
-13.77
-26.09
-39.13
-51.61
-62.77
-72.37
-80.55
-87.56
-93.48
-98.20
-101.43
-102.97
-102.81
-101.24
-98.84
-96.33
-94.44
-93.71
-94.46
-96.66
-100.02
-104.03
-108.19
-112.12
-115.63
-118.72
-121.49
-124.03
-126.35
-128.37
-129.88
-130.57
-129.98
-127.60
-123.01
-116.00
-106.76
-95.79
-83.78
-71.40
-59.10
-47.03
-35.03
-22.82
-10.06
3.38
17.44
31.74
45.71
58.74
70.32
80.11
87.92
93.52
96.60
96.79
93.88
88.10
80.23
71.42
62.86
55.33
48.96
43.29
37.61
31.32
24.25
16.66
9.16
2.34
-3.39
-8.00
-11.79
-15.15
-18.44
-21.80
-25.17
-28.36
-31.25
-33.86
-36.38
-39.06
-42.10
-45.55
-49.32
-53.26
-57.09
-60.46
-62.86
-63.65
-62.22
-58.24
-51.87
-43.78
-34.98
-26.37
-18.47
-11.39
-5.09
0.29
4.21
5.95
4.92
1.23
-4.16
-9.62
-13.34
-13.90
-10.78
-4.40
4.16
13.66
23.08
31.90
39.94
47.25
53.91
60.01
65.64
70.88
75.62
79.29
80.83
78.98
72.86
62.58
49.36
35.13
21.78
10.52
1.70
-4.95
-9.76
-12.75
-13.65
-12.19
-8.44
-2.94
3.45
9.95
16.09
21.77
27.10
32.06
36.40
39.66
41.39
41.45
40.16
38.17
36.18
34.52
33.08
31.35
28.87
25.43
21.27
16.84
12.46
8.03
3.11
-2.84
-10.09
-18.36
-26.97
-35.14
-42.26
-48.10
-52.75
-56.38
-59.20
-61.34
-62.92
-64.03
-64.51
-63.75
-60.71
-54.11
-43.10
-27.73
-9.25
10.19
28.22
43.02
53.81
60.99
65.68
69.31
73.09
77.86
83.94
91.04
98.20
103.81
105.85
102.38
92.33
75.96
55.12
32.66
11.54
-6.16
-19.83
-30.20
-38.65
-46.43
-54.07
-61.37
-67.73
-72.71
-76.32
-79.06
-81.65
-84.70
-88.45
-92.71
-96.71
-99.12
-98.12
-91.68
-78.20
-57.14
-29.50
2.26
34.88
65.19
90.94
111.10
125.67
135.04
139.53
139.27
134.39
125.47
113.65
100.53
87.59
75.85
65.61
56.62
48.49
41.04
34.45
29.19
25.68
24.07
24.04
24.92
25.93
26.43
26.11
25.13
23.94
23.22
23.59
25.50
29.03
33.89
39.32
44.23
47.33
47.44
43.86
36.60
26.49
14.94
3.53
-6.47
-14.37
-20.14
-24.22
-27.20
-29.60
-31.77
-33.86
-35.92
-37.96
-39.97
-41.96
-43.98
-46.11
-48.51
-51.31
-54.62
-58.49
-62.92
-67.76
-72.75
-77.43
-81.21
-83.57
-84.31
-83.73
-82.69
-82.26
-83.23
-85.66
-88.68
-90.83
-90.63
-87.44
-81.77
-75.15
-69.56
-66.70
-67.47
-71.75
-78.55
-86.09
-92.11
-94.20
-90.28
-79.39
-62.02
-40.13
-16.46
6.48
27.20
45.41
61.54
75.90
88.18
97.51
103.04
104.47
102.33
97.61
91.24
83.67
74.80
64.33
52.23
38.94
25.37
12.47
0.87
-9.37
-18.68
-27.60
-36.48
-45.07
-52.69
-58.47
-61.81
-62.74
-62.03
-60.90
-60.66
-62.32
-66.30
-72.50
-80.24
-88.29
-95.02
-98.53
-97.16
-89.95
-77.11
-60.06
-41.08
-22.57
-6.48
6.12
15.05
20.68
23.64
24.61
24.28
23.42
22.83
23.13
24.55
26.72
28.77
29.60
28.24
24.27
17.92
10.07
1.90
-5.43
-11.12
-14.92
-17.08
-18.25
-19.19
-20.61
-22.86
-25.82
-28.95
-31.48
-32.75
-32.45
-30.77
-28.30
-25.90
-24.46
-24.73
-27.09
-31.37
-36.66
-41.44
-43.83
-42.18
-35.70
-24.81
-11.03
3.42
16.40
26.40
32.83
35.92
36.37
34.96
32.43
29.34
26.24
23.71
22.27
22.28
23.69
26.03
28.52
30.43
31.39
31.49
31.02
30.02
27.92
23.58
15.92
4.63
-9.23
-23.53
-35.93
-44.96
-50.68
-54.42
-57.69
-60.99
-63.22
-62.20
-55.82
-43.38
-26.25
-7.50
9.12
20.58
25.56
24.75
20.45
15.67
13.12
14.53
20.39
30.07
42.16
54.81
65.94
73.54
75.97
72.42
63.37
50.71
37.26
25.93
18.66
15.86
16.50
18.92
21.65
24.10
26.45
29.23
32.69
36.52
39.96
42.19
42.82
41.96
40.04
37.48
34.35
30.45
25.53
19.58
12.94
6.26
0.23
-4.62
-8.04
-10.16
-11.45
-12.66
-14.63
-18.06
-23.07
-28.98
-34.35
-37.36
-36.47
-31.02
-21.47
-9.11
4.55
18.35
31.82
45.03
58.19
71.22
83.66
94.72
103.77
110.64
115.74
119.88
123.90
128.34
133.31
138.56
143.73
148.56
152.91
156.66
159.59
161.28
161.23
159.09
154.92
149.38
143.42
137.98
133.40
129.10
123.61
115.15
102.50
85.60
65.81
45.47
27.27
13.41
5.32
3.56
7.95
17.66
31.14
46.11
59.97
70.55
76.89
79.67
80.67
81.87
84.34
87.82
91.10
92.92
92.82
91.39
89.94
89.78
91.69
95.61
100.91
106.73
112.21
116.59
119.15
119.16
115.92
108.93
98.12
83.93
67.38
49.89
32.89
17.46
4.06
-7.56
-18.14
-28.49
-39.15
-50.19
-61.32
-72.14
-82.30
-91.62
-99.79
-106.26
-110.12
-110.27
-105.91
-96.98
-84.44
-70.09
-56.12
-44.37
-35.86
-30.51
-27.46
-25.42
-23.24
-20.21
-16.23
-11.75
-7.47
-4.12
-2.19
-1.79
-2.70
-4.54
-7.06
-10.27
-14.48
-20.19
-27.84
-37.59
-49.19
-61.98
-75.06
-87.54
-98.88
-109.08
-118.72
-128.68
-139.73
-151.95
-164.55
-176.01
-184.60
-189.06
-189.08
-185.32
-178.99
-171.14
-162.14
-151.42
-137.91
-120.56
-99.11
-74.30
-47.72
-21.26
3.52
25.80
45.52
63.12
79.16
93.99
107.71
120.19
131.20
140.52
147.86
152.78
154.58
152.23
144.56
130.53
109.79
83.18
52.89
21.94
-6.82
-31.66
-52.68
-71.53
-90.50
-111.21
-133.73
-156.33
-176.06
-189.75
-194.97
-190.70
-177.49
-157.18
-132.46
-106.33
-81.59
-60.35
-43.73
-31.69
-23.16
-16.31
-9.08
0.30
12.88
28.76
47.23
67.13
87.15
106.21
123.51
138.52
150.70
159.33
163.44
161.89
153.68
138.44
116.67
89.78
59.73
28.34
-3.20
-34.61
-66.08
-97.58
-128.20
-155.80
-177.61
-191.13
-195.26
-190.79
-180.20
-166.72
-153.26
-141.60
-132.22
-124.79
-118.85
-114.27
-111.15
-109.43
-108.31
-106.17
-101.00
-91.22
-76.48
-57.89
-37.48
-17.32
1.46
19.00
36.38
54.74
74.44
94.62
113.42
128.65
138.55
142.26
140.00
132.85
122.50
110.96
100.46
93.09
90.47
93.10
99.87
108.10
114.23
115.09
109.15
97.14
81.61
65.66
51.55
39.92
30.04
20.75
11.43
2.41
-5.29
-10.74
-13.76
-15.12
-16.24
-18.59
-23.12
-30.08
-39.02
-49.17
-59.64
-69.63
-78.40
-85.24
-89.41
-90.25
-87.37
-80.94
-71.68
-60.64
-48.91
-37.20
-25.80
-14.63
-3.56
7.46
18.32
28.76
38.38
46.65
52.98
56.88
58.12
56.87
53.60
48.86
43.00
36.16
28.39
19.88
11.07
2.48
-5.50
-12.80
-19.43
-25.11
-28.88
-29.25
-24.70
-14.46
0.90
19.45
38.20
53.88
63.53
65.19
58.35
44.18
25.51
6.22
-9.82
-20.02
-23.98
-23.50
-22.00
-23.19
-29.88
-43.16
-61.98
-83.20
-102.26
-114.14
-114.73
-102.15
-77.40
-44.08
-7.30
27.96
58.22
81.90
98.85
109.33
113.47
111.48
104.54
95.45
88.32
87.17
94.12
108.26
126.11
143.32
156.85
166.06
172.25
177.05
180.83
182.09
178.30
167.31
148.41
122.33
90.57
54.53
15.24
-26.46
-69.56
-112.76
-154.90
-195.35
-234.26
-272.23
-309.70
-346.26
-380.16
-408.37
-427.19
-433.45
-425.76
-405.30
-375.64
-341.32
-306.14
-271.75
-237.49
-201.43
-162.19
-120.34
-78.50
-40.09
-7.48
19.29
42.40
64.84
88.77
114.52
140.82
165.65
187.36
205.14
218.80
228.40
233.92
235.38
233.32
228.93
223.97
220.25
218.99
220.60
224.79
230.82
237.70
244.23
248.82
249.53
244.17
230.67
207.64
174.82
133.47
86.25
36.94
-10.24
-51.30
-83.29
-104.89
-116.80
-121.58
-123.02
-124.90
-129.72
-137.80
-147.21
-154.67
-156.97
-152.11
-139.99
-122.12
-100.87
-78.60
-57.10
-37.26
-19.13
-2.14
14.62
32.05
50.72
70.66
91.35
111.91
131.50
149.68
166.67
183.25
200.19
217.51
233.75
245.95
250.38
243.92
225.40
196.39
160.96
124.42
91.64
65.77
47.55
35.59
27.07
18.68
7.25
-9.78
-33.98
-65.56
-103.10
-143.69
-183.62
-219.41
-248.73
-270.74
-285.82
-294.75
-298.05
-295.77
-287.78
-274.34
-256.45
-235.69
-213.80
-192.05
-171.02
-150.79
-131.36
-113.00
-96.27
-81.72
-69.52
-59.17
-49.66
-39.88
-29.15
-17.61
-6.22
3.68
10.96
15.23
16.88
16.85
16.05
14.99
13.72
11.98
9.51
6.41
3.13
0.44
-0.70
0.65
5.20
13.07
23.65
35.38
46.15
53.77
56.78
55.01
49.55
42.30
35.16
29.36
25.27
22.67
21.24
20.85
21.64
23.69
26.77
30.24
33.25
35.14
35.68
35.17
34.30
33.94
34.81
37.40
41.79
47.64
54.11
60.09
64.34
65.91
64.38
59.92
53.10
44.62
35.02
24.62
13.62
2.29
-8.96
-19.63
-29.33
-37.85
-45.09
-50.97
-55.20
-57.43
-57.43
-55.46
-52.28
-49.01
-46.62
-45.65
-46.01
-47.14
-48.32
-49.08
-49.27
-49.12
-48.96
-49.06
-49.56
-50.51
-51.85
-53.47
-55.06
-56.11
-55.97
-54.17
-50.67
-46.06
-41.47
-38.19
-37.13
-38.35
-40.89
-43.03
-42.93
-39.27
-31.87
-21.70
-10.47
-0.03
8.31
14.15
17.84
20.09
21.54
22.44
22.71
22.14
20.69
18.53
16.08
13.76
11.93
10.83
10.66
11.49
13.28
15.80
18.56
20.85
21.92
21.16
18.30
13.44
6.96
-0.64
-8.91
-17.53
-26.27
-34.96
-43.40
-51.38
-58.62
-64.72
-69.13
-71.17
-70.15
-65.63
-57.59
-46.63
-33.73
-19.97
-6.20
7.14
19.87
31.86
42.86
52.56
60.71
67.45
73.27
78.85
84.62
90.31
94.82
96.49
93.78
86.00
73.72
58.71
43.33
29.69
18.98
11.22
5.67
1.31
-2.62
-6.54
-10.72
-15.51
-21.48
-29.21
-38.95
-50.34
-62.45
-74.03
-83.81
-90.92
-94.96
-95.98
-94.38
-90.73
-85.64
-79.62
-73.14
-66.49
-59.82
-53.19
-46.63
-40.15
-33.74
-27.38
-20.89
-13.96
-6.18
2.77
12.93
23.84
34.57
43.92
50.75
54.42
55.00
53.19
50.04
46.56
43.42
40.85
38.79
37.08
35.60
34.35
33.35
32.57
31.90
31.16
30.21
28.99
27.67
26.61
26.43
27.83
31.49
37.74
46.42
56.86
68.10
79.17
89.37
98.35
105.90
111.66
114.97
115.12
111.85
105.85
98.79
92.86
89.95
91.00
95.73
103.07
111.65
120.25
127.81
133.17
134.96
131.77
122.73
107.85
88.16
65.23
40.54
14.92
-11.43
-38.37
-65.16
-89.99
-110.14
-122.91
-126.74
-122.28
-112.63
-102.45
-96.59
-98.23
-107.72
-122.60
-139.08
-153.99
-166.03
-175.95
-185.56
-196.49
-209.39
-223.75
-238.04
-249.85
-256.02
-253.08
-238.11
-209.97
-170.23
-123.03
-73.80
-27.51
12.68
45.63
71.44
90.44
102.76
108.77
109.71
107.63
104.83
102.84
101.78
100.42
96.98
90.17
79.91
67.48
54.97
44.52
37.49
33.94
32.79
32.31
30.96
28.05
23.86
19.27
15.24
12.31
10.51
9.47
8.75
8.01
7.04
5.75
4.31
3.29
3.69
6.78
13.62
24.48
38.64
54.39
69.64
82.57
92.10
97.95
100.42
99.85
96.34
89.68
79.68
66.58
51.33
35.56
21.11
9.45
1.16
-4.14
-7.48
-9.98
-12.39
-14.93
-17.26
-18.65
-18.08
-14.54
-7.37
3.37
16.73
31.09
44.61
55.93
64.53
70.68
75.10
78.46
81.01
82.42
81.80
77.71
68.46
52.93
31.75
8.01
-13.15
-26.33
-28.19
-18.95
-2.24
16.74
33.60
46.36
55.34
61.75
66.06
67.33
63.88
54.71
40.58
23.90
7.56
-6.56
-18.45
-29.59
-41.89
-56.45
-72.92
-89.68
-104.71
-116.57
-125.01
-130.86
-135.55
-140.55
-146.81
-154.62
-163.60
-172.70
-180.68
-186.46
-189.65
-190.83
-191.45
-192.95
-196.11
-200.60
-205.31
-208.76
-209.62
-206.89
-200.08
-189.40
-175.79
-160.91
-146.66
-134.37
-124.06
-114.17
-102.02
-84.98
-61.79
-33.22
-1.96
28.28
54.11
73.32
85.34
90.97
91.93
90.21
87.57
85.19
83.65
83.12
83.53
84.67
86.31
88.18
89.93
91.15
91.33
89.95
86.65
81.35
74.43
66.65
58.90
51.95
46.21
41.73
38.41
36.19
34.94
34.26
33.24
30.70
25.73
18.20
9.06
-0.27
-8.51
-15.21
-20.60
-24.98
-28.03
-28.63
-25.37
-17.42
-5.33
9.02
22.99
34.25
41.56
45.06
46.02
46.18
47.06
49.13
51.52
52.40
50.00
43.99
36.26
30.44
30.26
37.52
50.90
66.35
78.74
83.94
80.20
68.39
51.20
32.01
13.99
-0.48
-9.90
-13.73
-12.39
-7.14
0.24
7.85
14.20
18.48
20.65
21.28
21.39
22.14
24.50
28.88
34.97
41.83
48.25
53.17
56.00
56.66
55.35
52.49
48.59
44.33
40.60
38.39
38.48
41.03
45.35
49.99
53.30
54.11
52.31
48.83
45.32
43.41
44.11
47.47
52.45
56.96
58.20
53.27
40.10
18.45
-9.54
-39.63
-66.68
-86.34
-96.45
-97.53
-92.14
-83.49
-74.15
-65.35
-57.08
-48.74
-39.76
-29.93
-19.39
-8.39
2.85
14.12
25.10
35.31
44.04
50.56
54.29
55.03
53.05
49.12
44.38
40.07
37.15
36.01
36.34
37.29
37.82
37.26
35.51
33.12
30.88
29.46
29.03
29.21
29.29
28.65
27.00
24.53
21.78
19.29
17.41
16.15
15.25
14.39
13.32
11.99
10.55
9.17
7.96
7.01
6.37
6.28
7.16
9.52
13.69
19.60
26.61
33.69
39.81
44.32
47.06
48.21
47.96
46.19
42.52
36.54
28.16
17.84
6.51
-4.62
-14.32
-21.51
-25.43
-25.72
-22.62
-16.99
-10.14
-3.53
1.63
4.63
5.35
4.19
1.84
-0.75
-2.58
-2.76
-0.70
3.57
9.24
14.79
18.52
19.08
15.99
9.66
1.15
-8.39
-18.08
-27.41
-35.94
-42.93
-47.13
-46.90
-40.83
-28.40
-10.52
10.59
32.16
51.88
68.73
83.24
96.94
111.49
127.81
145.61
163.50
179.51
191.75
199.13
201.79
201.12
199.29
198.22
198.51
198.74
195.78
186.08
167.34
139.63
105.21
67.38
29.06
-8.11
-43.62
-77.46
-109.55
-139.69
-167.89
-194.67
-220.83
-246.86
-272.41
-296.30
-317.02
-333.39
-344.90
-351.42
-352.51
-347.09
-333.60
-311.03
-279.90
-242.78
-203.72
-166.80
-134.52
-106.80
-81.44
-55.41
-26.64
4.81
36.83
66.32
90.68
108.93
121.99
132.08
141.80
153.07
166.68
182.24
198.44
213.70
226.60
236.29
242.59
245.83
246.59
245.31
241.98
236.04
226.73
213.55
196.73
177.29
156.55
135.45
114.06
91.53
66.61
38.38
6.50
-28.84
-67.46
-109.44
-154.82
-203.09
-252.75
-301.36
-346.10
-384.37
-413.95
-432.91
-439.45
-432.30
-411.33
-378.15
-336.08
-289.47
-242.53
-198.51
-159.31
-125.81
-98.47
-77.56
-63.15
-54.63
-50.52
-48.51
-46.09
-41.27
-33.28
-22.63
-10.72
0.78
10.65
18.35
24.05
28.08
30.65
31.80
31.51
29.99
27.70
25.22
22.91
20.96
19.39
18.35
18.11
18.98
21.05
24.13
27.84
31.84
36.00
40.38
45.04
49.79
54.12
57.31
58.69
58.01
55.56
52.10
48.61
45.93
44.59
44.76
46.36
49.28
53.41
58.53
64.17
69.61
73.94
76.48
76.98
75.82
73.73
71.45
69.34
67.25
64.63
60.77
55.09
47.38
37.87
27.16
16.12
5.70
-3.23
-10.03
-14.24
-15.62
-14.10
-9.84
-3.31
4.68
13.02
20.55
26.36
30.02
31.77
32.43
33.22
35.38
39.85
46.98
56.41
67.26
78.41
88.93
98.35
106.75
114.57
122.48
131.26
141.64
154.01
168.11
182.80
196.35
206.91
213.12
214.51
211.25
203.64
191.52
173.97
149.62
117.32
76.98
30.23
-19.69
-68.45
-111.85
-146.95
-172.75
-190.15
-200.97
-206.80
-208.18
-204.80
-196.47
-184.26
-170.76
-159.15
-151.66
-148.30
-146.89
-144.30
-138.34
-128.91
-117.92
-108.12
-101.50
-98.36
-97.37
-96.52
-94.28
-90.29
-85.25
-80.40
-76.76
-74.67
-73.82
-73.49
-72.99
-71.92
-70.27
-68.37
-66.65
-65.43
-64.86
-64.86
-65.25
-65.84
-66.46
-66.90
-66.76
-65.43
-62.19
-56.48
-48.14
-37.62
-25.81
-13.83
-2.64
7.18
15.51
22.48
28.35
33.26
37.21
40.17
42.13
43.25
43.80
44.11
44.42
44.83
45.25
45.53
45.48
45.01
44.07
42.72
41.04
39.12
37.06
34.92
32.74
30.50
28.13
25.56
22.75
19.75
16.70
13.76
11.02
8.51
6.14
3.72
1.05
-2.07
-5.78
-10.08
-14.77
-19.44
-23.43
-25.97
-26.35
-24.14
-19.36
-12.51
-4.50
3.66
11.12
17.37
22.31
26.17
29.29
31.90
34.07
35.72
36.72
36.99
36.63
35.86
35.01
34.37
34.08
34.15
34.42
34.67
34.68
34.31
33.56
32.48
31.12
29.55
27.86
26.14
24.49
23.02
21.71
20.47
19.11
17.49
15.57
13.45
11.34
9.44
7.88
6.61
5.47
4.14
2.33
-0.23
-3.50
-7.12
-10.42
-12.59
-13.06
-11.67
-8.79
-5.11
-1.39
1.89
4.56
6.71
8.46
9.80
10.59
10.69
10.05
8.84
7.35
5.95
4.93
4.44
4.52
5.08
5.99
7.07
8.15
9.07
9.70
9.96
9.83
9.28
8.35
7.13
5.75
4.38
3.22
2.37
1.86
1.55
1.25
0.69
-0.30
-1.82
-3.87
-6.41
-9.34
-12.55
-15.93
-19.32
-22.52
-25.30
-27.36
-28.33
-27.84
-25.62
-21.59
-16.02
-9.46
-2.65
3.66
8.93
12.91
15.62
17.24
18.02
18.14
17.80
17.17
16.46
15.91
15.68
15.87
16.39
17.07
17.67
18.04
18.09
17.86
17.48
17.03
16.60
16.20
15.76
15.17
14.28
12.98
11.22
9.05
6.64
4.22
1.97
0.00
-1.77
-3.51
-5.44
-7.68
-10.24
-12.95
-15.48
-17.43
-18.35
-17.84
-15.62
-11.64
-6.11
0.47
7.45
14.16
20.12
25.10
29.20
32.60
35.43
37.65
39.15
39.96
40.42
41.15
42.82
45.80
49.88
54.39
58.48
61.55
63.42
64.33
64.64
64.56
64.04
62.87
60.93
58.36
55.61
53.30
52.02
52.15
53.69
56.23
59.05
61.27
62.10
61.03
57.95
53.16
47.21
40.80
34.68
29.57
26.11
24.75
25.55
28.20
32.04
36.28
40.26
43.61
46.21
48.05
48.96
48.52
46.20
41.47
34.19
24.68
13.73
2.34
-8.60
-18.58
-27.77
-36.94
-47.19
-59.30
-73.19
-87.58
-100.30
-109.01
-112.18
-109.70
-102.89
-93.88
-84.75
-76.96
-71.13
-67.34
-65.39
-64.97
-65.66
-66.95
-68.36
-69.71
-71.13
-72.93
-75.10
-77.00
-77.42
-75.13
-69.50
-60.97
-50.91
-41.15
-33.23
-28.03
-25.61
-25.45
-26.64
-28.18
-29.15
-28.91
-27.24
-24.40
-20.90
-17.34
-14.08
-11.21
-8.72
-6.70
-5.40
-5.10
-5.86
-7.38
-9.10
-10.55
-11.68
-12.93
-15.04
-18.56
-23.55
-29.43
-35.18
-39.79
-42.60
-43.53
-43.04
-41.86
-40.73
-40.20
-40.51
-41.65
-43.42
-45.38
-46.95
-47.39
-46.06
-42.57
-37.07
-30.21
-22.94
-16.15
-10.30
-5.31
-0.73
3.94
8.94
14.09
18.94
23.08
26.30
28.87
31.43
34.93
40.27
48.14
58.79
71.85
86.35
100.78
113.39
122.48
126.88
126.16
120.77
111.82
100.72
88.75
76.68
64.81
53.05
41.28
29.50
17.96
6.98
-3.32
-13.04
-22.59
-32.36
-42.47
-52.51
-61.54
-68.27
-71.50
-70.52
-65.31
-56.56
-45.29
-32.49
-18.88
-4.90
9.16
22.90
35.81
47.42
57.52
66.33
74.39
82.28
90.37
98.56
106.34
113.11
118.48
122.55
125.89
129.21
132.95
136.88
140.00
140.81
137.82
130.11
117.61
101.06
81.62
60.27
37.41
12.71
-14.68
-45.69
-80.78
-119.50
-160.31
-200.53
-236.56
-264.48
-280.83
-283.63
-273.16
-252.12
-225.05
-197.04
-172.23
-152.77
-138.59
-127.97
-118.74
-109.20
-98.64
-87.20
-75.40
-63.78
-52.68
-42.32
-32.91
-24.71
-17.95
-12.64
-8.50
-4.96
-1.36
2.75
7.44
12.42
17.09
20.86
23.33
24.37
24.16
23.04
21.51
20.05
19.02
18.54
18.47
18.46
18.11
17.18
15.72
14.04
12.51
11.41
10.81
10.69
11.11
12.37
15.02
19.62
26.52
35.53
45.91
56.38
65.50
71.96
74.87
73.95
69.52
62.38
53.67
44.66
36.61
30.54
27.01
26.00
26.86
28.40
29.29
28.44
25.39
20.43
14.41
8.27
2.57
-2.78
-8.44
-15.07
-22.83
-31.01
-38.17
-42.68
-43.43
-40.26
-34.07
-26.31
-18.39
-11.11
-4.51
1.88
8.59
15.76
22.99
29.50
34.47
37.38
38.16
37.14
34.87
32.03
29.24
27.09
26.15
26.77
29.04
32.59
36.63
40.15
42.27
42.54
41.06
38.44
35.52
33.12
31.81
31.76
32.69
33.91
34.33
32.82
28.55
21.29
11.59
0.66
-10.01
-19.13
-25.99
-30.51
-33.09
-34.32
-34.82
-35.12
-35.55
-36.17
-36.61
-36.05
-33.40
-27.65
-18.33
-5.80
8.80
23.83
37.58
48.71
56.41
60.45
61.00
58.53
53.64
46.93
38.95
30.06
20.40
9.99
-1.12
-12.62
-23.90
-34.25
-43.16
-50.75
-57.89
-65.94
-76.13
-89.01
-104.14
-120.27
-135.69
-148.50
-156.90
-159.60
-156.56
-149.65
-142.70
-140.22
-145.33
-157.86
-173.78
-186.70
-190.64
-182.69
-163.99
-138.62
-111.29
-85.20
-61.40
-39.60
-19.61
-2.08
11.62
20.42
24.38
24.87
24.03
23.80
25.21
28.16
31.75
34.89
36.91
37.78
38.03
38.43
39.50
41.23
43.07
44.18
43.81
41.59
37.68
32.65
27.30
22.34
18.21
14.99
12.52
10.50
8.65
6.80
4.90
2.92
0.85
-1.41
-4.02
-7.07
-10.42
-13.64
-16.04
-16.91
-15.75
-12.50
-7.54
-1.58
4.61
10.39
15.39
19.51
22.80
25.40
27.44
29.08
30.48
31.84
33.31
34.98
36.77
38.54
40.03
41.03
41.45
41.34
40.88
40.31
39.85
39.59
39.50
39.41
39.12
38.49
37.49
36.29
35.17
34.41
34.11
34.16
34.24
34.00
33.19
31.79
30.04
28.35
27.29
27.40
29.18
32.92
38.56
45.63
53.34
60.78
67.16
72.09
75.56
77.83
79.21
79.87
79.79
78.84
76.95
74.17
70.68
66.67
62.29
57.62
52.77
47.92
43.43
39.78
37.35
36.34
36.62
37.72
38.96
39.52
38.57
35.40
29.61
21.26
10.95
-0.29
-11.45
-21.94
-31.81
-41.65
-51.97
-62.69
-72.84
-80.86
-85.23
-85.28
-81.41
-74.94
-67.43
-60.08
-53.41
-47.39
-41.79
-36.50
-31.65
-27.43
-23.86
-20.66
-17.34
-13.46
-8.82
-3.60
1.70
6.61
10.84
14.46
17.79
21.12
24.57
28.04
31.29
34.00
35.83
36.30
34.86
31.02
24.60
15.96
5.86
-4.86
-15.73
-26.85
-38.58
-50.98
-63.36
-74.26
-82.14
-86.18
-86.81
-85.56
-84.18
-83.78
-84.25
-84.50
-83.20
-79.59
-73.90
-67.13
-60.42
-54.43
-49.08
-43.72
-37.67
-30.66
-23.05
-15.65
-9.28
-4.40
-0.90
1.75
4.16
6.64
9.03
10.83
11.51
10.81
8.92
6.33
3.60
1.05
-1.33
-3.80
-6.75
-10.46
-15.01
-20.23
-25.71
-30.90
-35.18
-38.02
-39.01
-38.09
-35.44
-31.49
-26.80
-21.89
-17.21
-12.99
-9.29
-6.03
-3.07
-0.32
2.16
4.24
5.78
6.74
7.26
7.59
7.98
8.52
9.12
9.56
9.63
9.30
8.69
8.02
7.42
6.81
5.96
4.62
2.66
0.26
-2.23
-4.40
-6.02
-7.15
-8.12
-9.38
-11.30
-14.02
-17.45
-21.15
-24.54
-26.88
-27.46
-25.78
-21.73
-15.58
-8.04
-0.00
7.65
14.25
19.46
23.19
25.54
26.69
26.84
26.18
24.97
23.52
22.13
21.08
20.45
20.18
20.03
19.76
19.23
18.47
17.63
16.90
16.36
15.93
15.36
14.35
12.65
10.19
7.13
3.83
0.74
-1.77
-3.58
-4.88
-6.09
-7.74
-10.20
-13.51
-17.39
-21.21
-24.20
-25.61
-24.89
-21.86
-16.74
-10.17
-2.97
4.03
10.23
15.32
19.26
22.14
24.04
25.00
25.06
24.35
23.16
21.89
20.93
20.54
20.75
21.35
21.97
22.26
22.02
21.25
20.16
19.02
18.02
17.18
16.25
14.92
12.94
10.27
7.13
3.97
1.24
-0.81
-2.18
-3.13
-4.06
-5.36
-7.29
-9.99
-13.42
-17.36
-21.33
-24.64
-26.48
-26.16
-23.42
-18.52
-12.21
-5.49
0.76
6.03
10.21
13.47
16.02
17.95
19.23
19.83
19.81
19.38
18.87
18.53
18.49
18.67
18.85
18.79
18.32
17.45
16.35
15.29
14.46
13.86
13.29
12.43
10.96
8.77
6.04
3.16
0.59
-1.41
-2.83
-3.95
-5.17
-6.89
-9.38
-12.70
-16.70
-20.93
-24.73
-27.29
-27.87
-26.05
-21.85
-15.85
-8.92
-2.04
4.06
9.01
12.78
15.56
17.52
18.81
19.48
19.59
19.29
18.80
18.39
18.30
18.68
19.55
20.74
21.99
23.03
23.64
23.74
23.41
22.80
22.05
21.21
20.14
18.67
16.63
13.97
10.84
7.45
4.09
0.94
-1.89
-4.43
-6.79
-9.24
-12.08
-15.62
-20.01
-25.03
-30.09
-34.28
-36.61
-36.36
-33.33
-27.88
-20.84
-13.21
-5.95
0.31
5.28
9.02
11.83
14.03
15.84
17.27
18.17
18.40
17.92
16.95
15.82
14.88
14.25
13.84
13.43
12.83
12.05
11.23
10.56
10.05
9.50
8.55
6.88
4.38
1.26
-2.07
-5.14
-7.63
-9.51
-11.02
-12.53
-14.41
-16.92
-20.09
-23.79
-27.71
-31.40
-34.32
-35.89
-35.64
-33.41
-29.39
-24.17
-18.54
-13.25
-8.85
-5.57
-3.37
-2.06
-1.43
-1.31
-1.59
-2.16
-2.87
-3.54
-3.92
-3.84
-3.18
-1.97
-0.41
1.26
2.82
4.13
5.24
6.28
7.36
8.52
9.65
10.56
11.06
11.05
10.58
9.76
8.72
7.48
6.00
4.17
1.94
-0.65
-3.46
-6.33
-9.22
-12.14
-15.12
-17.98
-20.34
-21.58
-21.11
-18.58
-14.06
-8.06
-1.29
5.52
11.83
17.32
21.87
25.45
28.08
29.83
30.82
31.23
31.23
30.95
30.52
30.04
29.63
29.36
29.23
29.12
28.86
28.28
27.35
26.16
24.89
23.73
22.69
21.66
20.37
18.56
16.15
13.28
10.25
7.45
5.13
3.37
1.97
0.61
-1.08
-3.32
-6.14
-9.37
-12.62
-15.40
-17.20
-17.61
-16.44
-13.77
-9.94
-5.46
-0.85
3.50
7.40
10.79
13.67
15.98
17.59
18.34
18.17
17.18
15.65
13.96
12.45
11.32
10.61
10.19
9.86
9.44
8.81
7.98
7.00
5.98
4.99
4.00
2.85
1.31
-0.79
-3.47
-6.55
-9.62
-12.27
-14.15
-15.23
-15.76
-16.19
-17.03
-18.63
-20.98
-23.74
-26.26
-27.82
-27.81
-25.93
-22.25
-17.20
-11.40
-5.50
-0.06
4.48
7.89
10.14
11.34
11.74
11.63
11.26
10.77
10.22
9.56
8.80
7.99
7.20
6.53
6.02
5.64
5.39
5.27
5.32
5.53
5.85
6.15
6.26
6.05
5.41
4.34
2.88
1.15
-0.68
-2.43
-3.92
-5.13
-6.12
-7.16
-8.53
-10.48
-13.09
-16.23
-19.48
-22.31
-24.10
-24.38
-22.93
-19.85
-15.56
-10.68
-5.79
-1.34
2.48
5.65
8.29
10.50
12.36
13.86
14.96
15.68
16.06
16.23
16.37
16.61
17.00
17.46
17.85
17.99
17.77
17.21
16.35
15.33
14.21
12.99
11.64
10.10
8.36
6.49
4.59
2.75
1.00
-0.69
-2.44
-4.35
-6.42
-8.55
-10.58
-12.33
-13.76
-15.00
-16.28
-17.87
-19.94
-22.38
-24.81
-26.64
-27.21
-26.07
-23.09
-18.61
-13.28
-7.86
-2.99
0.96
4.01
6.38
8.35
10.16
11.88
13.48
14.88
16.03
16.96
17.72
18.37
18.91
19.28
19.40
19.26
18.88
18.35
17.76
17.18
16.59
15.90
15.00
13.79
12.29
10.59
8.82
7.09
5.45
3.83
2.16
0.37
-1.51
-3.42
-5.25
-6.97
-8.57
-10.15
-11.79
-13.62
-15.67
-17.88
-20.02
-21.70
-22.45
-21.86
-19.74
-16.25
-11.90
-7.34
-3.14
0.35
3.10
5.27
7.07
8.61
9.88
10.80
11.34
11.64
11.93
12.51
13.50
14.84
16.22
17.26
17.65
17.28
16.20
14.52
12.35
9.63
6.28
2.25
-2.31
-7.01
-11.26
-14.44
-16.04
-15.87
-14.15
-11.44
-8.53
-6.14
-4.80
-4.72
-5.91
-8.22
-11.48
-15.43
-19.66
-23.55
-26.37
-27.53
-26.78
-24.30
-20.63
-16.39
-12.05
-7.81
-3.65
0.51
4.58
8.27
11.14
12.82
13.18
12.43
11.08
9.70
8.72
8.27
8.18
8.12
7.78
7.08
6.10
5.09
4.22
3.55
2.99
2.36
1.52
0.41
-0.93
-2.38
-3.85
-5.22
-6.44
-7.54
-8.65
-10.01
-11.87
-14.40
-17.57
-21.06
-24.34
-26.76
-27.78
-27.07
-24.65
-20.88
-16.34
-11.66
-7.32
-3.57
-0.38
2.45
5.13
7.77
10.26
12.36
13.83
14.56
14.60
14.17
13.53
12.85
12.21
11.54
10.75
9.81
8.77
7.77
6.95
6.41
6.14
5.99
5.81
5.45
4.89
4.18
3.42
2.69
2.02
1.36
0.60
-0.38
-1.71
-3.48
-5.71
-8.27
-10.85
-13.09
-14.58
-15.07
-14.51
-13.07
-11.03
-8.68
-6.24
-3.82
-1.46
0.78
2.83
4.58
5.94
6.85
7.32
7.43
7.28
6.97
6.53
5.92
5.13
4.15
3.07
1.95
0.86
-0.23
-1.40
-2.69
-4.05
-5.25
-5.99
-6.02
-5.32
-4.12
-2.84
-1.93
-1.67
-2.14
-3.21
-4.71
-6.54
-8.69
-11.24
-14.30
-17.92
-21.98
-26.18
-29.99
-32.77
-33.85
-32.75
-29.28
-23.65
-16.46
-8.59
-1.00
5.48
10.31
13.31
14.70
14.90
14.47
13.95
13.76
14.09
14.90
15.98
16.98
17.54
17.41
16.52
15.01
13.15
11.25
9.47
7.83
6.22
4.49
2.53
0.35
-1.96
-4.25
-6.37
-8.16
-9.52
-10.36
-10.68
-10.61
-10.41
-10.42
-10.92
-11.98
-13.36
-14.51
-14.76
-13.56
-10.71
-6.45
-1.36
3.85
8.59
12.54
15.69
18.21
20.32
22.16
23.76
25.07
26.07
26.78
27.31
27.80
28.37
29.09
29.91
30.72
31.35
31.67
31.59
31.09
30.25
29.15
27.89
26.52
25.11
23.73
22.45
21.26
20.08
18.74
17.10
15.07
12.70
10.08
7.29
4.41
1.51
-1.20
-3.38
-4.56
-4.43
-2.92
-0.32
2.82
5.90
8.47
10.30
11.36
11.77
11.66
11.14
10.34
9.40
8.52
7.89
7.66
7.85
8.43
9.21
10.01
10.64
11.00
11.04
10.77
10.25
9.51
8.55
7.35
5.86
4.09
2.09
-0.00
-2.09
-4.09
-6.06
-8.18
-10.65
-13.62
-17.05
-20.73
-24.26
-27.14
-28.91
-29.25
-28.08
-25.59
-22.24
-18.59
-15.15
-12.28
-10.10
-8.60
-7.70
-7.31
-7.43
-8.03
-9.03
-10.25
-11.46
-12.43
-13.05
-13.32
-13.36
-13.33
-13.35
-13.54
-13.95
-14.62
-15.56
-16.72
-17.96
-19.14
-20.09
-20.75
-21.22
-21.78
-22.74
-24.31
-26.44
-28.76
-30.68
-31.60
-31.09
-29.06
-25.73
-21.56
-17.07
-12.73
-8.83
-5.57
-3.04
-1.26
-0.22
0.16
0.02
-0.44
-1.00
-1.49
-1.79
-1.85
-1.65
-1.18
-0.43
0.56
1.69
2.77
3.60
4.02
3.97
3.49
2.64
1.50
0.11
-1.51
-3.33
-5.33
-7.46
-9.73
-12.17
-14.75
-17.25
-19.32
-20.42
-20.07
-18.00
-14.29
-9.35
-3.74
1.96
7.32
12.08
16.04
19.01
20.79
21.27
20.54
18.97
17.09
15.45
14.35
13.76
13.36
12.75
11.67
10.17
8.57
7.31
6.68
6.71
7.09
7.31
6.88
5.56
3.50
1.15
-0.88
-2.10
-2.40
-2.04
-1.59
-1.62
-2.49
-4.29
-6.84
-9.83
-12.90
-15.70
-17.82
-18.81
-18.27
-15.99
-12.10
-7.06
-1.55
3.77
8.48
12.47
15.87
18.86
21.56
23.87
25.62
26.60
26.73
26.15
25.12
23.99
23.02
22.33
21.90
21.61
21.30
20.89
20.36
19.70
18.87
17.79
16.36
14.54
12.40
10.08
7.78
5.57
3.40
1.13
-1.38
-4.16
-7.05
-9.80
-12.20
-14.17
-15.79
-17.24
-18.75
-20.48
-22.53
-24.88
-27.40
-29.81
-31.70
-32.63
-32.28
-30.63
-27.91
-24.57
-21.11
-17.89
-15.07
-12.64
-10.48
-8.50
-6.62
-4.82
-3.08
-1.41
0.21
1.77
3.28
4.74
6.18
7.60
8.99
10.31
11.46
12.32
12.79
12.76
12.21
11.19
9.83
8.30
6.79
5.44
4.32
3.42
2.64
1.88
1.03
0.02
-1.13
-2.36
-3.61
-4.82
-6.02
-7.29
-8.78
-10.61
-12.75
-15.03
-17.06
-18.43
-18.71
-17.73
-15.58
-12.57
-9.19
-5.84
-2.79
-0.13
2.20
4.30
6.23
7.99
9.53
10.79
11.72
12.35
12.76
13.06
13.29
13.48
13.54
13.41
13.04
12.49
11.90
11.37
10.94
10.52
9.97
9.13
7.97
6.53
4.90
3.17
1.36
-0.47
-2.27
-3.89
-5.18
-6.02
-6.44
-6.58
-6.64
-6.84
-7.31
-8.21
-9.66
-11.75
-14.47
-17.49
-20.28
-22.15
-22.53
-21.21
-18.38
-14.58
-10.44
-6.47
-2.89
0.27
3.07
5.48
7.43
8.84
9.73
10.30
10.86
11.69
12.99
14.74
16.80
18.97
21.05
22.92
24.51
25.73
26.50
26.76
26.54
26.01
25.41
24.98
24.83
24.92
25.03
24.92
24.39
23.32
21.71
19.62
17.12
14.31
11.27
8.15
5.11
2.29
-0.22
-2.45
-4.54
-6.73
-9.25
-12.23
-15.66
-19.25
-22.54
-25.00
-26.17
-25.86
-24.18
-21.48
-18.25
-14.93
-11.84
-9.13
-6.83
-4.96
-3.54
-2.60
-2.17
-2.15
-2.42
-2.78
-3.05
-3.14
-3.04
-2.85
-2.70
-2.73
-3.00
-3.54
-4.31
-5.27
-6.35
-7.49
-8.64
-9.68
-10.57
-11.26
-11.77
-12.16
-12.49
-12.80
-13.09
-13.33
-13.57
-13.93
-14.62
-15.86
-17.72
-20.05
-22.48
-24.49
-25.54
-25.32
-23.78
-21.13
-17.80
-14.27
-10.95
-8.11
-5.87
-4.20
-3.01
-2.16
-1.55
-1.06
-0.59
-0.05
0.68
1.65
2.90
4.41
6.11
7.88
9.60
11.13
12.34
13.15
13.47
13.22
12.35
10.82
8.63
5.85
2.60
-0.89
-4.37
-7.60
-10.43
-12.85
-14.96
-16.98
-19.14
-21.54
-24.10
-26.53
-28.37
-29.07
-28.21
-25.63
-21.49
-16.24
-10.51
-4.91
0.11
4.29
7.61
10.16
12.09
13.51
14.49
15.02
15.15
14.95
14.58
14.21
13.95
13.84
13.81
13.77
13.70
13.59
13.45
13.24
12.85
12.12
10.99
9.54
7.95
6.48
5.31
4.46
3.84
3.26
2.59
1.82
0.99
0.14
-0.69
-1.55
-2.53
-3.74
-5.24
-7.06
-9.15
-11.30
-13.26
-14.65
-15.10
-14.35
-12.33
-9.15
-5.15
-0.70
3.81
8.06
11.86
15.06
17.60
19.46
20.71
21.49
21.92
22.10
22.04
21.68
20.98
20.00
18.89
17.90
17.23
16.93
16.91
16.97
16.89
16.54
15.87
14.91
13.73
12.41
10.99
9.54
8.08
6.56
4.91
3.04
0.92
-1.36
-3.56
-5.45
-6.80
-7.56
-7.85
-7.94
-8.15
-8.77
-9.94
-11.51
-13.09
-14.14
-14.10
-12.61
-9.66
-5.56
-0.88
3.72
7.71
10.77
12.87
14.16
14.86
15.18
15.28
15.24
15.13
15.00
14.88
14.83
14.87
15.04
15.37
15.87
16.54
17.28
17.92
18.25
18.10
17.44
16.42
15.28
14.25
13.40
12.60
11.62
10.18
8.23
5.91
3.62
1.81
0.82
0.66
1.04
1.43
1.30
0.38
-1.22
-2.96
-4.06
-3.59
-0.80
4.79
13.05
22.97
32.56
39.19
40.41
34.97
23.47
8.40
-6.66
-18.26
-24.16
-23.80
-18.15
-9.03
1.56
11.86
20.49
26.41
29.02
28.14
24.14
17.82
10.21
2.26
-5.39
-12.64
-19.85
-27.66
-36.61
-46.79
-57.62
-68.06
-76.93
-83.38
-87.15
-88.59
-88.43
-87.40
-86.00
-84.45
-82.68
-80.48
-77.60
-73.77
-68.81
-62.66
-55.42
-47.42
-39.14
-31.08
-23.68
-17.18
-11.60
-6.79
-2.58
1.14
4.39
7.11
9.27
10.94
12.21
13.21
13.98
14.48
14.60
14.26
13.51
12.47
11.36
10.38
9.63
9.09
8.63
8.05
7.19
5.94
4.38
2.66
1.06
-0.21
-1.06
-1.54
-1.88
-2.31
-3.04
-4.13
-5.44
-6.67
-7.43
-7.39
-6.35
-4.31
-1.45
1.91
5.43
8.84
11.95
14.64
16.82
18.40
19.27
19.35
18.64
17.26
15.41
13.37
11.38
9.66
8.32
7.42
6.91
6.76
6.84
7.01
7.10
6.95
6.44
5.55
4.32
2.81
1.09
-0.85
-3.02
-5.40
-7.90
-10.34
-12.50
-14.16
-15.22
-15.71
-15.73
-15.45
-15.04
-14.68
-14.45
-14.38
-14.35
-14.09
-13.23
-11.45
-8.60
-4.79
-0.42
4.01
8.01
11.28
13.74
15.43
16.49
17.04
17.19
17.03
16.67
16.27
16.00
15.98
16.26
16.83
17.60
18.42
19.14
19.64
19.86
19.78
19.47
18.98
18.39
17.73
17.02
16.25
15.37
14.31
12.97
11.28
9.29
7.11
4.96
3.06
1.56
0.48
-0.28
-0.87
-1.41
-1.90
-2.27
-2.41
-2.18
-1.44
-0.07
1.98
4.71
8.03
11.69
15.37
18.64
21.15
22.72
23.36
23.29
22.84
22.27
21.73
21.21
20.63
19.93
19.12
18.28
17.46
16.61
15.60
14.25
12.45
10.23
7.76
5.27
2.97
0.92
-0.93
-2.74
-4.66
-6.77
-9.05
-11.39
-13.66
-15.74
-17.55
-19.02
-20.15
-20.95
-21.56
-22.19
-23.14
-24.61
-26.59
-28.76
-30.52
-31.23
-30.35
-27.74
-23.61
-18.57
-13.31
-8.46
-4.41
-1.32
0.88
2.33
3.19
3.57
3.60
3.48
3.43
3.71
4.43
5.53
6.76
7.78
8.33
8.31
7.86
7.21
6.61
6.18
5.86
5.55
5.06
4.32
3.28
2.02
0.62
-0.82
-2.24
-3.63
-5.07
-6.63
-8.41
-10.46
-12.71
-14.97
-16.90
-18.09
-18.13
-16.76
-13.96
-9.95
-5.20
-0.25
4.43
8.54
12.00
14.89
17.34
19.41
21.03
22.14
22.67
22.64
22.18
21.46
20.61
19.71
18.71
17.54
16.12
14.44
12.54
10.55
8.56
6.60
4.64
2.55
0.24
-2.31
-5.02
-7.76
-10.42
-13.00
-15.61
-18.39
-21.42
-24.60
-27.67
-30.27
-32.08
-32.91
-32.79
-31.91
-30.52
-28.90
-27.17
-25.26
-22.96
-19.98
-16.12
-11.45
-6.31
-1.22
3.31
6.96
9.67
11.59
12.88
13.63
13.85
13.51
12.68
11.54
10.36
9.38
8.71
8.29
7.97
7.59
7.06
6.46
5.94
5.66
5.70
6.04
6.49
6.82
6.87
6.55
5.89
4.98
3.89
2.68
1.33
-0.17
-1.83
-3.62
-5.47
-7.33
-9.18
-11.02
-12.90
-14.87
-16.93
-18.94
-20.57
-21.40
-20.97
-19.02
-15.61
-11.11
-6.09
-1.16
3.25
6.98
10.08
12.77
15.24
17.57
19.72
21.52
22.74
23.24
22.96
21.98
20.49
18.69
16.71
14.71
12.78
11.08
9.70
8.65
7.80
6.88
5.62
3.93
1.92
-0.06
-1.63
-2.57
-2.92
-2.97
-3.10
-3.56
-4.43
-5.57
-6.81
-8.00
-9.08
-10.06
-10.96
-11.85
-12.82
-13.99
-15.46
-17.19
-18.94
-20.30
-20.78
-20.06
-18.09
-15.15
-11.65
-8.04
-4.61
-1.43
1.53
4.34
7.02
9.48
11.58
13.20
14.30
14.96
15.32
15.58
15.87
16.24
16.62
16.91
16.99
16.83
16.46
15.96
15.39
14.75
13.99
13.06
11.98
10.84
9.83
9.12
8.81
8.90
9.24
9.65
9.90
9.86
9.51
8.91
8.17
7.39
6.64
5.90
5.11
4.15
2.91
1.26
-0.81
-3.24
-5.82
-8.18
-9.90
-10.57
-9.91
-7.85
-4.59
-0.51
3.88
8.05
11.59
14.23
15.87
16.58
16.50
15.80
14.62
13.07
11.23
9.18
7.00
4.82
2.73
0.84
-0.82
-2.25
-3.51
-4.70
-5.92
-7.22
-8.63
-10.10
-11.51
-12.74
-13.69
-14.33
-14.77
-15.13
-15.53
-16.02
-16.54
-16.99
-17.35
-17.66
-18.02
-18.56
-19.29
-20.17
-21.08
-21.88
-22.37
-22.36
-21.63
-19.99
-17.39
-13.93
-9.95
-5.89
-2.16
0.95
3.33
5.06
6.29
7.19
7.89
8.49
9.08
9.75
10.63
11.79
13.28
15.02
16.82
18.45
19.67
20.33
20.35
19.75
18.60
16.95
14.85
12.29
9.31
6.02
2.65
-0.49
-3.08
-4.88
-5.90
-6.41
-6.79
-7.41
-8.42
-9.68
-10.82
-11.38
-11.02
-9.66
-7.40
-4.51
-1.32
1.86
4.79
7.28
9.23
10.62
11.56
12.22
12.81
13.50
14.40
15.51
16.75
17.99
19.08
19.89
20.29
20.30
19.98
19.48
18.90
18.27
17.43
16.20
14.40
11.98
9.07
5.92
2.81
-0.09
-2.70
-5.10
-7.43
-9.80
-12.32
-15.02
-17.88
-20.87
-23.82
-26.46
-28.36
-28.95
-27.73
-24.40
-19.04
-12.22
-4.81
2.17
7.87
11.67
13.30
12.67
9.91
5.30
-0.68
-7.33
-13.79
-19.25
-23.14
-25.26
-25.87
-25.49
-24.75
-24.07
-23.59
-23.13
-22.41
-21.18
-19.46
-17.49
-15.68
-14.33
-13.55
-13.22
-13.09
-13.00
-12.94
-13.10
-13.68
-14.78
-16.20
-17.54
-18.34
-18.22
-17.04
-14.92
-12.12
-8.99
-5.79
-2.68
0.23
2.87
5.15
6.93
8.12
8.73
8.89
8.86
8.87
9.10
9.51
9.95
10.21
10.15
9.78
9.23
8.68
8.26
8.03
7.97
7.98
8.00
7.91
7.62
7.09
6.37
5.58
4.90
4.43
4.09
3.67
2.92
1.68
-0.03
-1.95
-3.69
-4.88
-5.22
-4.62
-3.13
-1.01
1.43
3.85
5.98
7.73
9.12
10.27
11.29
12.24
13.08
13.79
14.41
15.01
15.67
16.43
17.22
17.87
18.15
17.88
16.98
15.53
13.73
11.86
10.15
8.70
7.43
6.14
4.61
2.73
0.60
-1.54
-3.39
-4.74
-5.57
-6.03
-6.36
-6.82
-7.59
-8.72
-10.15
-11.69
-13.08
-13.98
-14.04
-13.03
-10.87
-7.70
-3.83
0.29
4.25
7.65
10.26
11.99
12.90
13.22
13.27
13.34
13.62
14.16
14.85
15.53
16.07
16.42
16.62
16.74
16.81
16.84
16.78
16.59
16.26
15.78
15.14
14.26
13.05
11.37
9.10
6.22
2.78
-1.07
-5.09
-9.06
-12.78
-16.09
-18.89
-21.07
-22.54
-23.20
-22.95
-21.77
-19.76
-17.11
-14.09
-10.96
-7.92
-5.00
-2.15
0.78
3.87
7.07
10.14
12.75
14.53
15.26
14.90
13.57
11.54
9.14
6.76
4.74
3.36
2.70
2.52
2.39
1.80
0.42
-1.78
-4.47
-7.16
-9.41
-10.97
-11.80
-12.00
-11.71
-11.06
-10.28
-9.68
-9.65
-10.53
-12.47
-15.27
-18.42
-21.21
-23.00
-23.42
-22.40
-20.24
-17.45
-14.56
-12.03
-10.12
-8.92
-8.44
-8.57
-9.24
-10.33
-11.72
-13.22
-14.63
-15.70
-16.17
-15.76
-14.23
-11.45
-7.47
-2.63
2.54
7.37
11.33
14.13
15.84
16.75
17.31
17.86
18.58
19.41
20.06
20.11
19.13
16.85
13.23
8.51
3.16
-2.30
-7.37
-11.70
-15.03
-17.12
-17.74
-16.74
-14.16
-10.35
-5.98
-1.85
1.37
3.30
3.95
3.61
2.67
1.46
0.19
-0.99
-1.89
-2.26
-1.86
-0.56
1.52
4.07
6.66
8.97
10.87
12.46
13.90
15.34
16.74
17.94
18.70
18.90
18.63
18.09
17.55
17.15
16.88
16.64
16.30
15.77
15.03
14.10
12.99
11.70
10.34
9.11
8.34
8.40
9.50
11.62
14.49
17.67
20.76
23.38
25.30
26.33
26.34
25.28
23.22
20.37
17.02
13.52
10.10
6.90
3.95
1.27
-1.13
-3.19
-4.94
-6.45
-7.85
-9.30
-10.87
-12.59
-14.35
-16.05
-17.62
-19.06
-20.40
-21.68
-22.90
-23.99
-24.86
-25.49
-26.00
-26.58
-27.51
-28.91
-30.62
-32.23
-33.14
-32.82
-31.01
-27.88
-23.88
-19.64
-15.66
-12.18
-9.23
-6.67
-4.45
-2.61
-1.35
-0.78
-0.89
-1.45
-2.07
-2.38
-2.17
-1.47
-0.50
0.50
1.33
1.91
2.22
2.23
1.84
0.93
-0.53
-2.47
-4.67
-6.87
-8.88
-10.62
-12.14
-13.60
-15.16
-16.99
-19.11
-21.41
-23.54
-24.97
-25.18
-23.79
-20.77
-16.45
-11.46
-6.45
-1.93
1.84
4.87
7.23
9.01
10.22
10.87
11.01
10.76
10.36
10.00
9.85
9.94
10.19
10.46
10.63
10.64
10.51
10.32
10.12
9.92
9.58
8.94
7.85
6.28
4.33
2.22
0.19
-1.61
-3.14
-4.47
-5.72
-7.01
-8.44
-10.06
-11.85
-13.61
-14.99
-15.53
-14.77
-12.52
-8.90
-4.42
0.31
4.79
8.79
12.43
15.97
19.63
23.36
26.85
29.63
31.41
32.19
32.43
32.87
34.28
37.14
41.35
46.29
51.00
54.62
56.80
57.91
59.01
61.32
65.70
72.19
79.94
87.58
93.83
98.14
100.87
103.20
106.55
112.17
120.84
132.78
147.47
163.24
177.13
185.11
183.45
170.43
147.80
120.70
95.94
79.18
72.68
74.62
80.50
85.51
86.64
83.37
76.82
68.27
58.17
46.18
31.91
15.72
-1.10
-16.92
-30.56
-41.85
-51.61
-61.08
-71.27
-82.51
-94.36
-105.78
-115.61
-122.87
-127.11
-128.45
-127.62
-125.81
-124.24
-123.74
-124.41
-125.59
-126.21
-125.35
-122.67
-118.54
-113.73
-108.97
-104.65
-100.83
-97.35
-94.11
-91.04
-88.00
-84.65
-80.53
-75.23
-68.69
-61.33
-53.96
-47.47
-42.51
-39.28
-37.54
-36.73
-36.17
-35.27
-33.72
-31.50
-28.88
-26.24
-23.85
-21.77
-19.80
-17.64
-15.05
-11.98
-8.60
-5.17
-1.89
1.17
4.01
6.64
8.97
10.87
12.37
13.79
15.71
18.62
22.49
26.49
29.12
28.82
24.69
16.96
6.91
-3.85
-14.13
-23.60
-32.57
-41.33
-49.56
-56.24
-60.11
-60.46
-57.64
-52.95
-48.06
-44.28
-42.00
-40.83
-39.96
-38.78
-37.19
-35.53
-34.32
-33.79
-33.77
-33.70
-32.90
-30.94
-27.84
-24.07
-20.34
-17.33
-15.42
-14.60
-14.57
-14.93
-15.36
-15.74
-16.10
-16.50
-17.01
-17.61
-18.26
-18.89
-19.47
-19.97
-20.36
-20.57
-20.47
-19.99
-19.11
-17.98
-16.92
-16.33
-16.59
-17.82
-19.71
-21.51
-22.14
-20.47
-15.74
-7.86
2.49
13.98
25.07
34.50
41.64
46.65
50.23
53.32
56.63
60.48
64.81
69.32
73.52
76.75
78.06
76.43
71.17
62.46
51.62
40.86
32.46
27.90
27.33
29.60
33.08
36.39
38.92
40.56
41.11
39.82
35.44
26.95
14.30
-1.17
-17.17
-31.33
-42.22
-49.80
-55.16
-59.78
-64.68
-70.03
-75.14
-78.97
-80.57
-79.40
-75.37
-68.80
-60.29
-50.67
-40.93
-32.15
-25.43
-21.68
-21.48
-24.81
-30.97
-38.59
-45.97
-51.59
-54.58
-55.08
-54.06
-52.97
-53.12
-55.14
-58.57
-61.78
-62.41
-57.98
-46.81
-28.78
-5.76
18.59
39.66
53.26
56.95
51.03
38.36
23.43
10.66
2.95
0.85
2.94
6.84
10.45
12.80
13.92
14.30
14.06
12.71
9.58
4.51
-1.55
-6.64
-8.51
-5.61
2.07
12.97
24.58
34.62
41.98
47.09
51.42
56.54
63.16
70.73
77.82
82.91
85.33
85.50
84.75
84.53
85.83
88.77
92.62
96.09
97.60
95.70
89.53
79.25
66.33
53.28
42.77
36.40
33.55
31.16
24.53
9.23
-16.88
-52.28
-91.95
-128.87
-156.59
-171.47
-173.81
-167.32
-157.30
-148.47
-143.37
-141.87
-141.86
-140.53
-135.51
-125.51
-110.58
-91.96
-71.84
-52.82
-37.19
-26.21
-19.64
-15.97
-13.13
-9.51
-4.48
1.64
8.13
14.46
20.53
26.45
32.09
36.93
40.18
41.33
40.54
38.72
37.07
36.51
37.13
38.21
38.62
37.36
34.12
29.37
24.10
19.38
15.87
13.61
12.07
10.50
8.32
5.37
1.90
-1.60
-4.70
-7.28
-9.57
-12.05
-15.21
-19.26
-23.93
-28.42
-31.59
-32.29
-29.74
-23.89
-15.43
-5.56
4.35
13.27
20.69
26.59
31.22
34.77
37.29
38.67
38.86
37.94
36.23
34.20
32.27
30.77
29.85
29.56
29.87
30.68
31.83
33.13
34.35
35.26
35.77
35.85
35.55
34.90
33.83
32.22
29.91
26.81
22.98
18.60
13.97
9.34
4.85
0.53
-3.70
-7.93
-12.22
-16.54
-20.76
-24.60
-27.69
-29.46
-29.35
-26.86
-21.86
-14.66
-6.07
2.86
11.05
17.78
22.73
26.01
27.89
28.65
28.54
27.74
26.52
25.24
24.25
23.81
23.97
24.51
25.12
25.45
25.26
24.50
23.23
21.58
19.69
17.61
15.29
12.62
9.41
5.59
1.23
-3.38
-7.79
-11.51
-14.24
-15.98
-17.06
-18.05
-19.54
-21.85
-24.92
-28.26
-31.05
-32.32
-31.27
-27.43
-20.88
-12.24
-2.58
6.86
15.04
21.40
25.90
28.95
31.03
32.47
33.25
33.22
32.28
30.68
29.00
27.90
27.83
28.78
30.23
31.49
31.94
31.34
29.80
27.68
25.34
22.96
20.52
17.84
14.74
11.18
7.31
3.41
-0.23
-3.40
-6.06
-8.30
-10.27
-12.15
-14.08
-16.32
-19.10
-22.61
-26.72
-30.89
-34.13
-35.29
-33.53
-28.69
-21.43
-13.01
-4.79
2.30
7.98
12.52
16.38
19.86
22.94
25.34
26.83
27.42
27.41
27.22
27.15
27.27
27.41
27.40
27.17
26.91
26.89
27.34
28.26
29.40
30.36
30.77
30.43
29.40
27.92
26.30
24.84
23.69
22.90
22.39
22.01
21.61
21.06
20.31
19.39
18.37
17.33
16.23
14.92
13.12
10.51
6.88
2.17
-3.36
-9.19
-14.60
-18.75
-20.93
-20.72
-18.13
-13.63
-8.03
-2.23
3.01
7.27
10.49
12.83
14.53
15.76
16.54
16.82
16.54
15.69
14.36
12.72
10.91
9.07
7.25
5.48
3.78
2.17
0.62
-0.89
-2.46
-4.21
-6.27
-8.73
-11.58
-14.70
-17.84
-20.69
-23.04
-24.82
-26.18
-27.41
-28.85
-30.68
-32.94
-35.54
-38.40
-41.52
-45.04
-49.14
-53.88
-59.17
-64.66
-69.86
-74.03
-76.28
-75.62
-71.29
-63.05
-51.41
-37.58
-23.16
-9.62
2.06
11.46
18.61
23.71
27.01
28.75
29.26
29.03
28.62
28.49
28.92
29.91
31.28
32.82
34.34
35.72
36.85
37.61
37.90
37.64
36.84
35.58
34.00
32.29
30.60
29.06
27.77
26.73
25.92
25.29
24.72
24.04
23.06
21.61
19.63
17.17
14.44
11.65
8.96
6.36
3.63
0.52
-3.13
-7.16
-11.04
-14.05
-15.49
-14.99
-12.64
-8.94
-4.54
-0.07
4.09
7.74
10.85
13.38
15.33
16.71
17.56
17.97
17.97
17.53
16.52
14.80
12.31
9.18
5.71
2.33
-0.50
-2.49
-3.53
-3.76
-3.50
-3.09
-2.81
-2.82
-3.17
-3.81
-4.70
-5.83
-7.13
-8.55
-9.95
-11.24
-12.33
-13.28
-14.17
-15.08
-16.00
-16.78
-17.26
-17.30
-16.94
-16.37
-15.82
-15.43
-15.18
-14.88
-14.29
-13.25
-11.76
-9.96
-8.03
-6.13
-4.32
-2.58
-0.84
1.04
3.17
5.61
8.34
11.17
13.84
16.04
17.54
18.20
18.00
16.97
15.22
12.89
10.22
7.55
5.30
3.82
3.28
3.64
4.63
5.83
6.79
7.24
7.11
6.55
5.88
5.41
5.34
5.72
6.40
7.21
7.98
8.61
9.06
9.26
9.12
8.45
7.11
5.00
2.18
-1.13
-4.52
-7.44
-9.29
-9.59
-8.14
-5.18
-1.33
2.61
5.93
8.31
9.87
11.03
12.25
13.74
15.40
16.85
17.71
17.77
17.05
15.80
14.31
12.78
11.27
9.75
8.12
6.34
4.42
2.39
0.31
-1.79
-3.89
-5.97
-8.00
-9.95
-11.77
-13.43
-14.90
-16.18
-17.29
-18.27
-19.17
-20.08
-21.08
-22.22
-23.51
-24.94
-26.41
-27.80
-28.94
-29.61
-29.55
-28.55
-26.46
-23.29
-19.24
-14.65
-9.94
-5.48
-1.53
1.84
4.67
7.07
9.10
10.72
11.81
12.17
11.70
10.46
8.73
6.93
5.54
4.89
5.09
6.02
7.36
8.76
9.92
10.66
10.98
10.95
10.72
10.43
10.18
9.99
9.82
9.60
9.21
8.57
7.62
6.30
4.62
2.60
0.31
-2.18
-4.82
-7.59
-10.47
-13.37
-16.08
-18.22
-19.39
-19.29
-17.88
-15.39
-12.23
-8.83
-5.46
-2.24
0.82
3.71
6.32
8.51
10.11
11.04
11.35
11.16
10.69
10.14
9.70
9.49
9.59
10.01
10.68
11.44
12.14
12.62
12.77
12.53
11.87
10.80
9.31
7.41
5.12
2.52
-0.27
-3.08
-5.74
-8.15
-10.25
-12.09
-13.74
-15.31
-16.90
-18.57
-20.33
-22.20
-24.13
-26.02
-27.67
-28.76
-28.92
-27.84
-25.42
-21.83
-17.51
-13.01
-8.83
-5.28
-2.45
-0.32
1.24
2.34
3.05
3.48
3.76
3.99
4.27
4.59
4.87
5.01
4.96
4.73
4.45
4.23
4.13
4.10
4.02
3.73
3.14
2.28
1.26
0.22
-0.75
-1.66
-2.62
-3.72
-5.05
-6.54
-8.11
-9.67
-11.17
-12.66
-14.18
-15.75
-17.33
-18.88
-20.40
-21.92
-23.42
-24.74
-25.52
-25.28
-23.65
-20.49
-16.03
-10.80
-5.45
-0.48
3.79
7.32
10.20
12.52
14.37
15.76
16.72
17.33
17.75
18.11
18.52
18.99
19.46
19.81
19.95
19.89
19.68
19.41
19.10
18.73
18.17
17.30
16.09
14.55
12.79
10.95
9.11
7.32
5.57
3.86
2.15
0.45
-1.21
-2.86
-4.51
-6.19
-7.96
-9.84
-11.88
-14.10
-16.40
-18.56
-20.23
-21.02
-20.62
-18.92
-16.10
-12.57
-8.84
-5.32
-2.25
0.39
2.71
4.78
6.59
7.97
8.75
8.87
8.42
7.67
6.90
6.31
5.97
5.80
5.75
5.79
5.96
6.26
6.64
6.97
7.09
6.88
6.33
5.48
4.43
3.26
1.99
0.63
-0.80
-2.32
-3.91
-5.59
-7.42
-9.50
-11.89
-14.58
-17.40
-19.98
-21.87
-22.66
-22.12
-20.33
-17.59
-14.34
-10.96
-7.69
-4.61
-1.72
0.94
3.19
4.83
5.69
5.77
5.24
4.44
3.66
3.09
2.74
2.52
2.34
2.14
1.95
1.81
1.67
1.43
0.96
0.18
-0.86
-2.04
-3.18
-4.22
-5.16
-6.08
-7.10
-8.32
-9.86
-11.77
-14.02
-16.46
-18.75
-20.42
-20.99
-20.17
-18.02
-14.89
-11.31
-7.78
-4.56
-1.69
0.90
3.24
5.23
6.69
7.48
7.62
7.28
6.71
6.11
5.53
4.92
4.14
3.13
1.89
0.52
-0.92
-2.38
-3.89
-5.54
-7.41
-9.49
-11.66
-13.65
-15.16
-15.95
-15.99
-15.46
-14.70
-14.10
-13.93
-14.35
-15.32
-16.67
-18.13
-19.36
-19.96
-19.59
-17.98
-15.11
-11.19
-6.62
-1.93
2.45
6.21
9.25
11.62
13.40
14.66
15.36
15.46
14.92
13.82
12.35
10.85
9.59
8.77
8.38
8.27
8.20
8.01
7.65
7.17
6.67
6.23
5.86
5.53
5.22
4.89
4.52
4.07
3.46
2.67
1.68
0.58
-0.54
-1.59
-2.53
-3.43
-4.35
-5.42
-6.75
-8.42
-10.40
-12.47
-14.26
-15.26
-15.02
-13.32
-10.26
-6.24
-1.81
2.52
6.39
9.64
12.23
14.19
15.58
16.49
16.99
17.16
17.09
16.88
16.64
16.46
16.41
16.47
16.59
16.66
16.60
16.41
16.09
15.63
14.99
14.12
13.00
11.69
10.36
9.21
8.34
7.72
7.22
6.59
5.68
4.42
2.88
1.22
-0.37
-1.77
-2.94
-3.92
-4.86
-5.97
-7.40
-9.24
-11.42
-13.64
-15.50
-16.52
-16.32
-14.72
-11.79
-7.87
-3.42
1.08
5.26
8.94
12.08
14.76
17.02
18.85
20.22
21.10
21.54
21.68
21.73
21.85
22.11
22.46
22.77
22.89
22.66
22.03
21.01
19.63
17.98
16.11
14.09
11.98
9.82
7.71
5.74
3.98
2.45
1.03
-0.46
-2.20
-4.23
-6.40
-8.41
-9.96
-10.88
-11.25
-11.34
-11.48
-11.94
-12.85
-14.13
-15.64
-17.15
-18.41
-19.18
-19.21
-18.32
-16.51
-13.93
-10.94
-7.94
-5.26
-3.04
-1.23
0.37
1.95
3.60
5.20
6.54
7.36
7.55
7.19
6.51
5.81
5.34
5.17
5.25
5.42
5.52
5.43
5.13
4.59
3.79
2.71
1.31
-0.38
-2.32
-4.40
-6.47
-8.44
-10.22
-11.81
-13.25
-14.62
-16.01
-17.50
-19.16
-21.01
-23.02
-25.07
-26.98
-28.48
-29.27
-29.11
-27.87
-25.61
-22.55
-19.00
-15.32
-11.75
-8.44
-5.47
-2.85
-0.58
1.31
2.83
4.01
4.91
5.61
6.17
6.59
6.90
7.09
7.18
7.21
7.21
7.21
7.25
7.33
7.46
7.62
7.72
7.64
7.25
6.48
5.40
4.18
3.03
2.05
1.15
0.11
-1.29
-3.15
-5.43
-7.96
-10.62
-13.40
-16.40
-19.66
-23.02
-26.03
-28.11
-28.76
-27.77
-25.37
-22.07
-18.45
-14.92
-11.64
-8.58
-5.64
-2.82
-0.24
1.88
3.43
4.42
5.06
5.57
6.13
6.77
7.40
7.87
8.08
8.08
7.98
7.89
7.82
7.69
7.36
6.72
5.77
4.61
3.37
2.18
1.11
0.19
-0.62
-1.41
-2.25
-3.20
-4.28
-5.39
-6.38
-7.10
-7.50
-7.67
-7.86
-8.38
-9.43
-11.01
-12.89
-14.64
-15.75
-15.85
-14.75
-12.53
-9.47
-5.95
-2.35
1.08
4.22
7.07
9.67
12.03
14.09
15.77
16.96
17.65
17.91
17.90
17.82
17.81
17.98
18.30
18.70
19.08
19.34
19.41
19.26
18.91
18.36
17.67
16.85
15.98
15.10
14.25
13.45
12.66
11.83
10.87
9.72
8.38
6.88
5.31
3.80
2.41
1.17
0.04
-1.10
-2.41
-4.06
-6.18
-8.81
-11.80
-14.81
-17.36
-18.90
-19.04
-17.61
-14.76
-10.90
-6.55
-2.23
1.73
5.14
7.96
10.21
11.95
13.26
14.21
14.86
15.28
15.50
15.52
15.34
14.97
14.46
13.86
13.26
12.75
12.37
12.08
11.79
11.32
10.54
9.38
7.93
6.40
4.99
3.84
2.92
2.07
1.11
-0.09
-1.54
-3.12
-4.69
-6.09
-7.25
-8.17
-8.91
-9.55
-10.24
-11.11
-12.32
-13.98
-16.06
-18.40
-20.63
-22.29
-22.90
-22.19
-20.15
-17.02
-13.24
-9.21
-5.23
-1.45
2.07
5.28
8.05
10.25
11.82
12.82
13.44
13.89
14.35
14.84
15.30
15.66
15.88
16.04
16.25
16.59
17.03
17.41
17.50
17.03
15.92
14.21
12.11
9.93
7.97
6.42
5.32
4.58
3.97
3.27
2.31
1.05
-0.42
-1.97
-3.46
-4.88
-6.27
-7.70
-9.22
-10.83
-12.52
-14.29
-16.15
-18.06
-19.86
-21.23
-21.78
-21.17
-19.28
-16.29
-12.57
-8.60
-4.82
-1.56
1.03
2.90
4.11
4.76
4.98
4.95
4.82
4.70
4.71
4.91
5.29
5.76
6.16
6.30
6.03
5.32
4.27
3.06
1.85
0.73
-0.35
-1.47
-2.69
-3.99
-5.25
-6.35
-7.26
-8.08
-8.99
-10.15
-11.58
-13.18
-14.78
-16.24
-17.56
-18.88
-20.39
-22.15
-24.02
-25.61
-26.39
-25.91
-23.97
-20.73
-16.67
-12.38
-8.37
-4.95
-2.19
0.02
1.85
3.45
4.89
6.21
7.38
8.39
9.20
9.85
10.37
10.81
11.21
11.54
11.71
11.62
11.21
10.47
9.51
8.44
7.31
6.12
4.82
3.39
1.88
0.39
-0.96
-2.09
-3.00
-3.78
-4.56
-5.41
-6.42
-7.58
-8.91
-10.40
-12.06
-13.86
-15.69
-17.32
-18.42
-18.67
-17.82
-15.81
-12.86
-9.35
-5.73
-2.37
0.56
3.07
5.23
7.14
8.80
10.13
11.04
11.51
11.63
11.48
11.15
10.64
9.93
9.02
7.97
6.88
5.81
4.80
3.79
2.75
1.73
0.83
0.18
-0.12
-0.05
0.26
0.69
1.06
1.26
1.20
0.82
0.07
-1.04
-2.47
-4.16
-5.97
-7.81
-9.58
-11.23
-12.77
-14.23
-15.67
-17.07
-18.36
-19.31
-19.67
-19.19
-17.73
-15.37
-12.31
-8.89
-5.42
-2.13
0.85
3.40
5.43
6.83
7.52
7.55
7.05
6.24
5.34
4.53
3.95
3.69
3.80
4.29
5.06
5.96
6.77
7.30
7.48
7.37
7.18
7.10
7.28
7.70
8.22
8.63
8.77
8.54
7.97
7.13
6.06
4.75
3.11
1.05
-1.43
-4.30
-7.50
-10.94
-14.56
-18.21
-21.57
-24.19
-25.52
-25.13
-22.86
-18.91
-13.75
-7.95
-2.03
3.64
8.84
13.38
17.09
19.76
21.24
21.49
20.69
19.17
17.35
15.62
14.20
13.13
12.36
11.74
11.23
10.80
10.51
10.35
10.25
10.04
9.50
8.50
7.00
5.13
3.07
1.01
-0.92
-2.65
-4.18
-5.51
-6.67
-7.66
-8.47
-9.08
-9.48
-9.62
-9.50
-9.17
-8.79
-8.58
-8.77
-9.42
-10.38
-11.24
-11.49
-10.70
-8.67
-5.52
-1.55
2.83
7.24
11.34
14.83
17.47
19.09
19.66
19.28
18.23
16.84
15.45
14.29
13.46
12.93
12.57
12.24
11.82
11.34
10.91
10.71
10.88
11.39
12.09
12.68
12.91
12.63
11.82
10.61
9.19
7.76
6.46
5.33
4.34
3.35
2.21
0.79
-0.96
-3.00
-5.18
-7.37
-9.42
-11.29
-13.01
-14.64
-16.29
-18.13
-20.26
-22.76
-25.53
-28.29
-30.57
-31.84
-31.64
-29.75
-26.31
-21.71
-16.53
-11.31
-6.46
-2.16
1.52
4.55
6.90
8.53
9.48
9.96
10.25
10.69
11.48
12.64
13.99
15.28
16.31
17.04
17.53
17.88
18.19
18.41
18.44
18.11
17.29
15.92
14.05
11.81
9.40
7.00
4.68
2.42
0.13
-2.27
-4.78
-7.30
-9.67
-11.77
-13.51
-14.86
-15.81
-16.31
-16.28
-15.76
-14.81
-13.60
-12.28
-10.86
-9.26
-7.27
-4.74
-1.70
1.56
4.61
7.00
8.49
9.17
9.42
9.72
10.41
11.59
13.11
14.76
16.39
17.98
19.54
20.99
22.12
22.63
22.33
21.25
19.63
17.80
16.00
14.28
12.52
10.59
8.37
5.83
2.99
-0.16
-3.62
-7.40
-11.41
-15.48
-19.35
-22.78
-25.61
-27.78
-29.38
-30.57
-31.55
-32.48
-33.44
-34.33
-34.95
-34.91
-33.80
-31.30
-27.32
-22.03
-15.90
-9.46
-3.22
2.50
7.50
11.64
14.72
16.52
16.90
15.89
13.79
11.10
8.41
6.17
4.70
4.06
4.14
4.70
5.42
6.02
6.27
6.07
5.45
4.55
3.48
2.31
1.02
-0.41
-2.00
-3.66
-5.27
-6.68
-7.86
-8.89
-9.89
-11.00
-12.33
-13.93
-15.78
-17.79
-19.74
-21.26
-21.85
-21.00
-18.39
-14.07
-8.51
-2.50
3.12
7.70
10.96
12.98
14.07
14.61
14.93
15.19
15.49
15.82
16.21
16.64
17.17
17.78
18.44
19.14
19.87
20.64
21.48
22.36
23.14
23.59
23.46
22.56
20.90
18.61
15.97
13.21
10.52
7.96
5.57
3.37
1.36
-0.46
-2.16
-3.91
-5.90
-8.35
-11.34
-14.79
-18.38
-21.60
-23.86
-24.69
-23.86
-21.50
-18.01
-13.92
-9.69
-5.59
-1.71
1.91
5.19
7.96
10.00
11.19
11.56
11.33
10.83
10.35
10.06
9.94
9.84
9.52
8.83
7.75
6.43
5.09
3.96
3.16
2.69
2.40
2.14
1.78
1.27
0.62
-0.14
-0.99
-1.94
-3.02
-4.20
-5.40
-6.51
-7.50
-8.41
-9.39
-10.59
-12.14
-13.98
-15.91
-17.56
-18.50
-18.37
-16.99
-14.39
-10.82
-6.70
-2.44
1.61
5.30
8.57
11.44
13.94
15.97
17.48
18.41
18.84
18.96
19.00
19.13
19.37
19.64
19.73
19.49
18.82
17.77
16.46
15.03
13.59
12.18
10.80
9.40
7.90
6.24
4.40
2.40
0.37
-1.55
-3.24
-4.67
-5.90
-7.04
-8.23
-9.58
-11.16
-12.95
-14.86
-16.66
-18.05
-18.66
-18.23
-16.66
-14.11
-10.91
-7.48
-4.27
-1.59
0.37
1.53
1.90
1.56
0.70
-0.48
-1.73
-2.90
-3.87
-4.64
-5.21
-5.62
-5.85
-5.89
-5.75
-5.51
-5.27
-5.18
-5.34
-5.82
-6.67
-7.93
-9.65
-11.85
-14.46
-17.35
-20.29
-23.01
-25.23
-26.71
-27.31
-27.03
-26.00
-24.37
-22.27
-19.71
-16.64
-13.03
-9.00
-4.84
-0.90
2.53
5.38
7.79
9.99
12.15
14.21
15.90
16.91
17.02
16.26
14.90
13.30
11.75
10.30
8.84
7.18
5.21
3.03
0.89
-0.93
-2.29
-3.24
-4.00
-4.82
-5.83
-6.96
-8.02
-8.78
-9.11
-9.02
-8.66
-8.32
-8.31
-8.93
-10.40
-12.82
-16.05
-19.74
-23.37
-26.32
-28.10
-28.41
-27.23
-24.75
-21.33
-17.30
-12.96
-8.51
-4.05
0.42
4.84
9.09
12.89
15.87
17.72
18.31
17.86
16.91
16.10
15.97
16.73
18.18
19.85
21.18
21.74
21.35
20.07
18.10
15.75
13.31
11.09
9.33
8.14
7.49
7.16
6.87
6.34
5.46
4.27
3.00
1.93
1.24
0.97
0.95
0.90
0.54
-0.33
-1.73
-3.42
-4.99
-5.92
-5.73
-4.17
-1.27
2.63
7.01
11.33
15.18
18.38
20.94
23.02
24.79
26.39
27.87
29.28
30.59
31.80
32.88
33.77
34.42
34.79
34.82
34.52
33.91
33.03
31.87
30.45
28.76
26.81
24.64
22.34
20.01
17.76
15.66
13.68
11.73
9.63
7.21
4.38
1.18
-2.18
-5.43
-8.30
-10.70
-12.72
-14.57
-16.52
-18.72
-21.23
-23.99
-26.84
-29.57
-31.89
-33.45
-33.89
-32.99
-30.76
-27.44
-23.47
-19.33
-15.39
-11.84
-8.73
-6.05
-3.80
-2.08
-1.03
-0.70
-1.04
-1.83
-2.74
-3.45
-3.73
-3.54
-2.94
-2.10
-1.16
-0.26
0.51
1.01
1.13
0.77
-0.06
-1.28
-2.73
-4.29
-5.84
-7.36
-8.82
-10.23
-11.55
-12.80
-14.02
-15.33
-16.89
-18.84
-21.20
-23.81
-26.33
-28.28
-29.25
-28.95
-27.35
-24.70
-21.37
-17.84
-14.48
-11.58
-9.20
-7.28
-5.69
-4.26
-2.90
-1.60
-0.43
0.56
1.32
1.89
2.29
2.57
2.71
2.69
2.49
2.18
1.89
1.73
1.81
2.06
2.34
2.43
2.15
1.44
0.34
-1.00
-2.41
-3.74
-4.96
-6.08
-7.20
-8.45
-9.96
-11.75
-13.74
-15.70
-17.24
-17.97
-17.58
-15.97
-13.31
-9.95
-6.29
-2.64
0.85
4.10
7.05
9.59
11.55
12.84
13.53
13.82
13.97
14.19
14.51
14.86
15.12
15.25
15.26
15.25
15.24
15.18
15.00
14.61
14.01
13.29
12.54
11.82
11.13
10.41
9.62
8.79
7.99
7.27
6.61
5.89
4.94
3.61
1.84
-0.34
-2.82
-5.46
-8.06
-10.39
-12.16
-13.08
-12.91
-11.54
-9.05
-5.72
-1.93
1.91
5.47
8.53
10.95
12.69
13.76
14.21
14.08
13.43
12.32
10.87
9.24
7.65
6.29
5.28
4.61
4.18
3.84
3.41
2.78
1.87
0.65
-0.88
-2.63
-4.45
-6.20
-7.75
-9.08
-10.22
-11.26
-12.26
-13.18
-14.02
-14.78
-15.52
-16.37
-17.40
-18.59
-19.86
-21.05
-22.01
-22.54
-22.42
-21.43
-19.41
-16.40
-12.62
-8.53
-4.59
-1.16
1.63
3.86
5.71
7.27
8.53
9.40
9.83
9.85
9.58
9.23
8.97
8.85
8.87
8.92
8.91
8.76
8.47
8.11
7.76
7.52
7.44
7.51
7.65
7.75
7.75
7.61
7.35
7.01
6.59
6.05
5.30
4.34
3.23
2.10
1.10
0.35
-0.09
-0.16
0.18
0.96
2.20
3.87
5.91
8.27
10.86
13.65
16.53
19.33
21.76
23.50
24.28
23.95
22.61
20.45
17.80
14.91
12.06
9.46
7.31
5.73
4.76
4.31
4.20
4.20
4.13
3.91
3.52
2.97
2.22
1.18
-0.25
-2.11
-4.35
-6.84
-9.35
-11.71
-13.74
-15.35
-16.55
-17.43
-18.20
-19.07
-20.24
-21.79
-23.65
-25.56
-27.17
-28.06
-27.93
-26.61
-24.13
-20.74
-16.77
-12.64
-8.66
-5.07
-2.00
0.55
2.62
4.31
5.69
6.78
7.54
7.91
7.83
7.35
6.63
5.88
5.30
4.96
4.81
4.68
4.45
4.06
3.56
3.02
2.43
1.74
0.85
-0.31
-1.70
-3.16
-4.52
-5.63
-6.49
-7.19
-7.89
-8.72
-9.77
-11.05
-12.56
-14.30
-16.22
-18.16
-19.83
-20.78
-20.63
-19.11
-16.27
-12.42
-8.03
-3.58
0.62
4.37
7.60
10.29
12.42
14.00
15.04
15.62
15.84
15.81
15.60
15.32
15.05
14.85
14.74
14.72
14.73
14.71
14.59
14.32
13.91
13.41
12.87
12.29
11.63
10.76
9.57
8.04
6.23
4.30
2.46
0.82
-0.56
-1.71
-2.74
-3.73
-4.82
-6.15
-7.84
-9.86
-12.01
-13.90
-15.02
-14.93
-13.46
-10.76
-7.23
-3.37
0.41
3.87
6.92
9.55
11.70
13.28
14.18
14.37
13.99
13.32
12.62
12.13
11.90
11.83
11.78
11.62
11.27
10.72
9.97
9.04
7.97
6.81
5.63
4.45
3.23
1.93
0.45
-1.21
-3.00
-4.83
-6.60
-8.28
-9.90
-11.52
-13.22
-15.03
-16.92
-18.80
-20.43
-21.54
-21.87
-21.22
-19.54
-16.98
-13.82
-10.41
-7.10
-4.11
-1.59
0.45
2.03
3.18
3.92
4.26
4.26
4.02
3.70
3.50
3.54
3.81
4.15
4.35
4.23
3.79
3.11
2.36
1.63
0.91
0.11
-0.87
-2.04
-3.36
-4.75
-6.13
-7.47
-8.77
-10.06
-11.39
-12.84
-14.52
-16.50
-18.72
-20.94
-22.73
-23.65
-23.40
-21.90
-19.32
-15.96
-12.18
-8.28
-4.49
-1.00
2.03
4.47
6.18
7.09
7.25
6.80
6.05
5.29
4.79
4.65
4.80
5.07
5.28
5.34
5.28
5.25
5.33
5.53
5.74
5.76
5.42
4.58
3.22
1.39
-0.75
-2.99
-5.11
-6.93
-8.39
-9.58
-10.71
-12.07
-13.86
-16.12
-18.64
-20.98
-22.64
-23.20
-22.47
-20.48
-17.50
-13.84
-9.81
-5.66
-1.58
2.23
5.57
8.29
10.32
11.68
12.48
12.88
13.05
13.14
13.21
13.30
13.42
13.57
13.77
14.03
14.35
14.66
14.85
14.85
14.55
13.94
13.03
11.84
10.40
8.75
6.94
5.05
3.17
1.38
-0.30
-1.88
-3.39
-4.84
-6.23
-7.64
-9.16
-10.98
-13.22
-15.83
-18.57
-20.97
-22.52
-22.81
-21.66
-19.20
-15.76
-11.78
-7.68
-3.75
-0.11
3.18
6.14
8.76
10.99
12.81
14.18
15.17
15.86
16.34
16.68
16.90
16.96
16.82
16.50
16.08
15.67
15.39
15.24
15.10
14.79
14.09
12.93
11.38
9.67
8.06
6.72
5.67
4.75
3.73
2.42
0.75
-1.26
-3.47
-5.72
-7.92
-9.97
-11.86
-13.61
-15.26
-16.90
-18.65
-20.62
-22.85
-25.20
-27.36
-28.88
-29.28
-28.26
-25.77
-22.09
-17.70
-13.14
-8.87
-5.21
-2.31
-0.20
1.14
1.80
1.95
1.87
1.90
2.36
3.47
5.28
7.60
10.13
12.52
14.48
15.90
16.83
17.42
17.79
17.96
17.83
17.20
15.96
14.14
11.96
9.75
7.82
6.34
5.24
4.33
3.34
2.10
0.56
-1.24
-3.15
-5.06
-6.87
-8.57
-10.15
-11.60
-12.96
-14.22
-15.42
-16.59
-17.70
-18.62
-19.12
-18.89
-17.65
-15.22
-11.67
-7.30
-2.58
2.01
6.10
9.47
12.10
14.06
15.46
16.39
16.94
17.17
17.22
17.19
17.19
17.28
17.42
17.57
17.70
17.77
17.83
17.91
18.04
18.21
18.36
18.36
18.05
17.25
15.90
14.02
11.82
9.64
7.83
6.60
5.92
5.60
5.30
4.75
3.88
2.78
1.63
0.59
-0.34
-1.29
-2.46
-4.00
-6.00
-8.38
-10.97
-13.54
-15.81
-17.44
-18.14
-17.67
-15.95
-13.08
-9.36
-5.19
-0.99
2.88
6.21
8.87
10.80
12.00
12.47
12.32
11.72
10.90
10.11
9.53
9.25
9.26
9.49
9.86
10.33
10.85
11.47
12.18
12.95
13.73
14.42
14.93
15.16
15.03
14.52
13.69
12.61
11.44
10.25
9.10
7.97
6.83
5.66
4.47
3.36
2.43
1.74
1.28
0.93
0.48
-0.28
-1.47
-3.10
-5.00
-6.85
-8.22
-8.76
-8.25
-6.75
-4.48
-1.76
1.15
4.12
7.15
10.23
13.27
16.06
18.36
20.05
21.17
21.97
22.78
23.93
25.58
27.64
29.82
31.79
33.26
34.22
34.93
35.87
37.52
40.10
43.48
47.16
50.55
53.20
54.97
56.09
57.04
58.43
60.79
64.48
69.45
74.99
79.69
81.64
78.99
70.61
56.69
38.65
18.72
-0.86
-18.54
-33.71
-46.49
-57.25
-66.30
-73.76
-79.70
-84.30
-87.94
-90.98
-93.57
-95.55
-96.45
-95.80
-93.35
-89.30
-84.24
-78.98
-74.24
-70.37
-67.32
-64.70
-61.95
-58.65
-54.63
-50.04
-45.28
-40.84
-37.14
-34.41
-32.67
-31.71
-31.24
-30.95
-30.64
-30.19
-29.64
-29.10
-28.74
-28.80
-29.46
-30.77
-32.61
-34.58
-36.11
-36.60
-35.61
-32.99
-28.93
-23.88
-18.37
-12.89
-7.77
-3.24
0.59
3.65
5.90
7.37
8.13
8.35
8.21
7.93
7.62
7.34
7.06
6.71
6.24
5.61
4.88
4.10
3.31
2.50
1.61
0.55
-0.72
-2.15
-3.64
-5.04
-6.24
-7.22
-8.02
-8.82
-9.79
-11.12
-12.92
-15.19
-17.77
-20.30
-22.28
-23.18
-22.57
-20.27
-16.43
-11.48
-5.98
-0.51
4.51
8.83
12.36
15.17
17.35
18.99
20.11
20.75
20.93
20.75
20.35
19.96
19.76
19.82
20.10
20.48
20.85
21.11
21.22
21.16
20.89
20.34
19.48
18.34
17.03
15.66
14.30
12.88
11.31
9.49
7.44
5.24
3.05
1.01
-0.84
-2.54
-4.24
-6.06
-8.18
-10.68
-13.51
-16.44
-19.03
-20.70
-20.91
-19.37
-16.15
-11.72
-6.76
-1.97
2.16
5.50
8.12
10.27
12.10
13.65
14.87
15.70
16.22
16.58
17.01
17.65
18.53
19.54
20.53
21.38
22.04
22.53
22.90
23.22
23.46
23.57
23.45
23.00
22.16
20.99
19.68
18.44
17.45
16.75
16.13
15.28
13.87
11.76
9.02
5.90
2.71
-0.39
-3.35
-6.30
-9.37
-12.60
-15.97
-19.36
-22.62
-25.53
-27.79
-29.01
-28.77
-26.73
-22.85
-17.46
-11.14
-4.61
1.54
6.96
11.57
15.41
18.52
20.87
22.38
23.04
22.96
22.36
21.53
20.72
20.10
19.74
19.64
19.69
19.74
19.54
18.88
17.58
15.61
13.12
10.34
7.54
4.86
2.39
0.14
-1.85
-3.52
-4.76
-5.53
-5.91
-6.11
-6.40
-7.02
-8.09
-9.58
-11.33
-13.13
-14.74
-15.92
-16.51
-16.35
-15.38
-13.60
-11.11
-8.14
-5.06
-2.23
-0.04
1.25
1.53
0.91
-0.36
-1.91
-3.40
-4.54
-5.19
-5.31
-4.94
-4.16
-3.04
-1.69
-0.18
1.37
2.89
4.32
5.59
6.63
7.34
7.57
7.15
6.02
4.25
2.00
-0.46
-2.87
-5.09
-7.07
-8.87
-10.61
-12.47
-14.55
-16.91
-19.40
-21.70
-23.35
-23.86
-22.91
-20.43
-16.65
-11.97
-6.89
-1.81
2.94
7.15
10.66
13.38
15.29
16.44
16.98
17.05
16.80
16.28
15.57
14.74
13.95
13.37
13.12
13.20
13.42
13.55
13.34
12.67
11.58
10.22
8.75
7.31
5.97
4.73
3.52
2.30
1.01
-0.40
-1.96
-3.66
-5.48
-7.41
-9.42
-11.50
-13.65
-15.83
-18.00
-20.07
-21.94
-23.42
-24.31
-24.39
-23.49
-21.57
-18.76
-15.30
-11.53
-7.74
-4.13
-0.83
2.11
4.63
6.69
8.24
9.32
10.00
10.39
10.51
10.33
9.78
8.85
7.67
6.47
5.55
5.10
5.14
5.47
5.82
5.91
5.59
4.87
3.89
2.82
1.81
0.95
0.30
-0.13
-0.32
-0.29
-0.12
0.03
-0.02
-0.45
-1.32
-2.53
-3.90
-5.26
-6.52
-7.78
-9.22
-10.97
-12.94
-14.79
-15.98
-16.00
-14.55
-11.71
-7.85
-3.55
0.69
4.60
8.14
11.33
14.17
16.52
18.14
18.92
18.97
18.63
18.36
18.52
19.21
20.26
21.38
22.35
23.09
23.70
24.31
24.98
25.61
26.05
26.14
25.86
25.31
24.63
23.96
23.34
22.72
22.01
21.16
20.10
18.82
17.35
15.73
13.99
12.18
10.33
8.43
6.42
4.24
1.82
-0.88
-3.86
-7.04
-10.26
-13.32
-15.91
-17.73
-18.56
-18.34
-17.24
-15.64
-13.98
-12.66
-11.85
-11.53
-11.53
-11.66
-11.83
-12.10
-12.56
-13.31
-14.25
-15.21
-15.95
-16.30
-16.27
-15.98
-15.56
-15.11
-14.66
-14.18
-13.67
-13.17
-12.77
-12.45
-12.14
-11.74
-11.16
-10.45
-9.74
-9.24
-9.10
-9.38
-10.07
-11.07
-12.28
-13.61
-14.97
-16.27
-17.41
-18.32
-19.04
-19.68
-20.40
-21.33
-22.41
-23.37
-23.78
-23.18
-21.33
-18.24
-14.23
-9.78
-5.36
-1.31
2.18
5.08
7.35
8.97
9.96
10.44
10.61
10.72
10.99
11.47
12.07
12.63
12.99
13.09
13.00
12.81
12.58
12.27
11.78
11.04
10.01
8.80
7.52
6.30
5.18
4.10
2.96
1.66
0.16
-1.49
-3.18
-4.80
-6.25
-7.49
-8.55
-9.48
-10.37
-11.34
-12.49
-13.92
-15.60
-17.37
-18.88
-19.72
-19.52
-18.14
-15.67
-12.45
-8.93
-5.57
-2.66
-0.37
1.33
2.52
3.33
3.89
4.33
4.80
5.43
6.34
7.59
9.11
10.78
12.38
13.74
14.75
15.41
15.77
15.89
15.79
15.43
14.78
13.82
12.58
11.13
9.59
8.05
6.61
5.34
4.31
3.58
3.14
2.93
2.79
2.54
2.04
1.22
0.09
-1.21
-2.49
-3.51
-4.00
-3.71
-2.45
-0.16
3.03
6.91
11.15
15.49
19.73
23.76
27.49
30.82
33.64
35.89
37.68
39.28
41.04
43.31
46.32
50.09
54.51
59.36
64.42
69.54
74.68
79.90
85.35
91.20
97.61
104.61
112.09
119.86
127.60
135.12
142.43
149.87
158.09
167.77
179.12
191.38
202.60
210.08
211.16
204.21
189.14
167.30
140.90
112.38
84.09
58.23
36.71
20.75
10.33
3.81
-1.60
-8.94
-20.16
-35.43
-53.28
-71.50
-88.24
-102.62
-114.62
-124.62
-132.99
-139.89
-145.47
-150.14
-154.55
-159.45
-165.36
-172.33
-179.89
-187.22
-193.40
-197.75
-200.05
-200.63
-200.28
-199.99
-200.65
-202.75
-206.23
-210.47
-214.40
-216.74
-216.32
-212.38
-204.78
-194.01
-180.93
-166.50
-151.46
-136.30
-121.25
-106.51
-92.38
-79.20
-67.26
-56.64
-47.10
-38.24
-29.63
-21.00
-12.31
-3.61
4.99
13.41
21.61
29.47
36.81
43.38
48.88
53.09
55.89
57.31
57.51
56.74
55.33
53.62
51.93
50.45
49.28
48.36
47.51
46.46
44.92
42.64
39.49
35.47
30.75
25.60
20.34
15.25
10.56
6.40
2.79
-0.31
-3.00
-5.36
-7.44
-9.10
-10.10
-10.06
-8.67
-5.78
-1.56
3.52
8.78
13.58
17.45
20.18
21.79
22.46
22.37
21.70
20.56
19.12
17.58
16.22
15.30
15.01
15.37
16.28
17.47
18.66
19.65
20.33
20.77
21.10
21.42
21.73
21.87
21.61
20.78
19.38
17.62
15.84
14.42
13.56
13.24
13.15
12.85
11.92
10.15
7.63
4.76
2.25
0.87
1.27
3.79
8.33
14.33
20.92
27.06
31.80
34.42
34.67
32.77
29.36
25.22
21.09
17.38
14.18
11.35
8.74
6.36
4.41
3.22
2.98
3.66
4.98
6.49
7.79
8.64
9.03
9.12
9.15
9.35
9.88
10.74
11.85
13.04
14.20
15.41
16.88
19.00
22.09
26.23
31.09
36.03
40.29
43.37
45.36
47.00
49.48
54.07
61.69
72.65
86.49
101.98
117.06
129.18
135.77
135.04
126.67
112.18
94.45
76.79
61.74
50.37
42.23
36.00
30.37
24.65
18.83
13.22
7.99
2.92
-2.47
-8.59
-15.41
-22.48
-29.05
-34.55
-38.94
-42.85
-47.30
-53.28
-61.17
-70.55
-80.26
-88.92
-95.49
-99.68
-102.01
-103.49
-105.21
-107.88
-111.65
-116.02
-120.02
-122.43
-122.00
-117.88
-109.92
-98.74
-85.65
-72.31
-60.18
-50.27
-43.05
-38.58
-36.80
-37.59
-40.72
-45.73
-51.87
-58.17
-63.79
-68.14
-71.01
-72.43
-72.42
-70.89
-67.65
-62.57
-55.66
-47.22
-37.73
-27.79
-17.99
-8.82
-0.65
6.35
12.12
16.76
20.47
23.46
25.96
28.11
29.96
31.41
32.34
32.53
31.87
30.35
28.02
25.07
21.71
18.24
15.01
12.48
11.11
11.28
13.09
16.36
20.59
25.16
29.48
33.14
35.95
37.89
39.05
39.55
39.56
39.25
38.81
38.38
38.07
37.93
37.91
37.96
37.98
37.83
37.39
36.56
35.27
33.54
31.42
28.96
26.22
23.23
20.04
16.71
13.35
10.06
6.91
3.93
1.13
-1.55
-4.12
-6.66
-9.20
-11.78
-14.32
-16.62
-18.31
-18.98
-18.34
-16.28
-12.99
-8.88
-4.41
0.04
4.23
8.03
11.32
13.96
15.74
16.53
16.38
15.52
14.36
13.31
12.64
12.43
12.56
12.77
12.88
12.74
12.29
11.50
10.32
8.72
6.71
4.45
2.18
0.17
-1.40
-2.46
-3.11
-3.54
-3.90
-4.30
-4.83
-5.54
-6.52
-7.80
-9.31
-10.75
-11.72
-11.78
-10.75
-8.70
-6.03
-3.18
-0.55
1.70
3.60
5.23
6.63
7.75
8.52
8.96
9.24
9.60
10.25
11.24
12.42
13.54
14.36
14.75
14.72
14.37
13.83
13.17
12.44
11.66
10.82
9.85
8.70
7.32
5.75
4.13
2.65
1.48
0.66
0.10
-0.40
-1.04
-1.98
-3.23
-4.77
-6.46
-8.12
-9.49
-10.26
-10.15
-9.03
-6.91
-4.00
-0.64
2.84
6.13
8.99
11.30
13.02
14.19
14.89
15.19
15.14
14.76
14.06
13.09
11.94
10.79
9.81
9.15
8.86
8.87
9.08
9.36
9.64
9.87
10.01
10.01
9.79
9.32
8.59
7.71
6.83
6.05
5.38
4.68
3.80
2.62
1.19
-0.30
-1.61
-2.60
-3.30
-3.91
-4.69
-5.82
-7.35
-9.20
-11.23
-13.23
-14.98
-16.20
-16.60
-15.96
-14.24
-11.62
-8.53
-5.43
-2.67
-0.40
1.46
3.04
4.45
5.67
6.59
7.11
7.25
7.15
7.02
7.05
7.28
7.66
8.07
8.42
8.71
9.03
9.52
10.22
11.08
11.92
12.53
12.75
12.55
12.04
11.39
10.80
10.34
10.01
9.76
9.54
9.33
9.17
9.09
9.08
9.07
9.02
8.92
8.82
8.82
8.99
9.29
9.58
9.69
9.50
9.01
8.39
7.93
7.91
8.52
9.75
11.40
13.14
14.60
15.56
15.94
15.86
15.47
14.87
14.03
12.83
11.18
9.14
6.97
5.03
3.63
2.92
2.76
2.88
2.98
2.83
2.33
1.48
0.35
-0.96
-2.35
-3.69
-4.84
-5.70
-6.22
-6.51
-6.73
-7.09
-7.77
-8.81
-10.16
-11.69
-13.27
-14.78
-16.20
-17.56
-18.87
-20.06
-20.97
-21.36
-21.02
-19.82
-17.82
-15.21
-12.24
-9.17
-6.23
-3.57
-1.31
0.44
1.64
2.29
2.46
2.27
1.83
1.26
0.66
0.10
-0.41
-0.91
-1.51
-2.29
-3.25
-4.26
-5.11
-5.62
-5.79
-5.78
-5.88
-6.35
-7.28
-8.55
-9.93
-11.17
-12.15
-12.86
-13.39
-13.91
-14.53
-15.38
-16.49
-17.79
-19.10
-20.14
-20.55
-20.10
-18.72
-16.60
-14.07
-11.48
-9.08
-6.91
-4.90
-2.95
-1.05
0.71
2.19
3.24
3.83
4.06
4.11
4.21
4.52
5.15
6.05
7.08
8.03
8.70
9.02
9.03
8.90
8.77
8.70
8.68
8.62
8.43
8.08
7.53
6.78
5.80
4.60
3.20
1.66
0.02
-1.76
-3.84
-6.47
-9.79
-13.79
-18.14
-22.34
-25.82
-28.15
-29.15
-28.86
-27.44
-25.12
-22.09
-18.61
-14.96
-11.41
-8.20
-5.42
-3.00
-0.81
1.27
3.26
5.05
6.51
7.57
8.22
8.50
8.43
7.93
6.90
5.31
3.19
0.77
-1.73
-4.08
-6.19
-8.12
-9.97
-11.85
-13.75
-15.52
-16.95
-17.84
-18.07
-17.67
-16.79
-15.68
-14.57
-13.72
-13.29
-13.34
-13.79
-14.36
-14.69
-14.36
-13.15
-11.07
-8.38
-5.49
-2.85
-0.75
0.69
1.56
2.07
2.45
2.89
3.47
4.20
5.01
5.86
6.78
7.81
9.03
10.40
11.77
12.87
13.46
13.41
12.78
11.76
10.65
9.66
8.90
8.32
7.80
7.24
6.58
5.86
5.12
4.37
3.59
2.72
1.71
0.61
-0.57
-1.77
-3.08
-4.64
-6.67
-9.24
-12.22
-15.23
-17.64
-18.83
-18.38
-16.25
-12.80
-8.65
-4.49
-0.83
2.13
4.40
6.15
7.53
8.59
9.36
9.86
10.22
10.62
11.27
12.27
13.59
15.02
16.33
17.36
18.08
18.60
19.06
19.54
19.96
20.18
20.07
19.57
18.76
17.73
16.55
15.22
13.69
11.92
9.96
7.90
5.88
3.98
2.25
0.68
-0.77
-2.21
-3.76
-5.56
-7.66
-9.92
-12.01
-13.48
-13.92
-13.05
-10.88
-7.63
-3.70
0.47
4.47
7.97
10.72
12.62
13.66
13.96
13.74
13.22
12.64
12.16
11.91
11.91
12.09
12.32
12.44
12.35
12.03
11.57
11.06
10.55
9.99
9.25
8.15
6.60
4.58
2.18
-0.42
-2.96
-5.16
-6.77
-7.69
-8.01
-8.09
-8.44
-9.54
-11.56
-14.29
-17.14
-19.37
-20.38
-19.91
-18.09
-15.29
-12.00
-8.64
-5.48
-2.67
-0.30
1.56
2.83
3.49
3.49
2.90
1.82
0.41
-1.07
-2.38
-3.35
-3.91
-4.16
-4.29
-4.46
-4.72
-4.98
-5.00
-4.53
-3.48
-1.94
-0.17
1.49
2.82
3.73
4.23
4.38
4.12
3.34
1.92
-0.13
-2.54
-4.81
-6.30
-6.49
-5.12
-2.32
1.46
5.60
9.50
12.70
15.01
16.45
17.14
17.24
16.87
16.07
14.86
13.34
11.70
10.21
9.13
8.60
8.53
8.65
8.62
8.21
7.39
6.31
5.18
4.14
3.16
2.09
0.82
-0.68
-2.32
-3.97
-5.62
-7.34
-9.25
-11.39
-13.57
-15.44
-16.54
-16.53
-15.26
-12.85
-9.57
-5.80
-1.90
1.80
5.09
7.83
9.95
11.42
12.30
12.68
12.66
12.42
12.07
11.72
11.42
11.13
10.80
10.38
9.88
9.36
8.86
8.34
7.69
6.68
5.12
2.85
-0.08
-3.47
-6.93
-10.04
-12.43
-13.96
-14.79
-15.28
-15.91
-17.05
-18.75
-20.72
-22.32
-22.85
-21.75
-18.81
-14.24
-8.58
-2.57
3.09
7.82
11.32
13.51
14.52
14.57
13.87
12.53
10.57
7.99
4.85
1.36
-2.11
-5.15
-7.43
-8.80
-9.32
-9.13
-8.43
-7.32
-5.93
-4.44
-3.09
-2.18
-1.93
-2.38
-3.37
-4.59
-5.73
-6.57
-7.07
-7.35
-7.64
-8.19
-9.22
-10.88
-13.18
-16.01
-19.07
-21.93
-24.10
-25.15
-24.84
-23.26
-20.73
-17.77
-14.84
-12.23
-10.00
-8.03
-6.20
-4.49
-3.04
-2.04
-1.60
-1.64
-1.95
-2.23
-2.27
-2.00
-1.49
-0.85
-0.15
0.60
1.41
2.28
3.11
3.79
4.17
4.14
3.64
2.69
1.31
-0.42
-2.33
-4.20
-5.75
-6.73
-6.95
-6.44
-5.40
-4.18
-3.19
-2.79
-3.17
-4.36
-6.14
-8.17
-10.00
-11.19
-11.34
-10.23
-7.82
-4.34
-0.25
3.92
7.65
10.69
13.02
14.83
16.36
17.80
19.19
20.48
21.54
22.23
22.38
21.91
20.72
18.85
16.46
13.85
11.37
9.32
7.87
7.02
6.68
6.75
7.19
7.99
9.17
10.68
12.41
14.17
15.73
16.85
17.32
16.95
15.58
13.15
9.76
5.66
1.31
-2.77
-6.12
-8.47
-9.80
-10.34
-10.39
-10.21
-9.91
-9.42
-8.58
-7.22
-5.27
-2.82
-0.09
2.62
4.97
6.70
7.60
7.63
6.90
5.66
4.21
2.88
1.86
1.26
1.05
1.15
1.49
2.07
2.89
4.00
5.39
7.00
8.69
10.33
11.77
12.96
13.86
14.48
14.80
14.77
14.39
13.65
12.62
11.38
9.98
8.42
6.68
4.79
2.86
1.08
-0.35
-1.33
-1.96
-2.47
-3.12
-4.07
-5.33
-6.75
-8.16
-9.41
-10.43
-11.14
-11.44
-11.18
-10.19
-8.42
-6.00
-3.23
-0.51
1.84
3.68
5.06
6.12
7.00
7.76
8.36
8.74
8.84
8.69
8.30
7.71
6.93
6.00
4.97
3.91
2.92
2.06
1.35
0.74
0.25
-0.08
-0.18
0.01
0.45
1.00
1.44
1.62
1.45
1.00
0.39
-0.29
-1.00
-1.78
-2.66
-3.64
-4.66
-5.65
-6.55
-7.35
-8.12
-8.96
-9.92
-10.96
-11.90
-12.51
-12.52
-11.81
-10.40
-8.49
-6.35
-4.26
-2.41
-0.89
0.28
1.11
1.62
1.83
1.79
1.61
1.39
1.20
1.12
1.13
1.20
1.27
1.27
1.15
0.90
0.49
-0.04
-0.63
-1.23
-1.82
-2.39
-3.01
-3.69
-4.43
-5.15
-5.78
-6.27
-6.61
-6.88
-7.22
-7.72
-8.45
-9.41
-10.55
-11.80
-13.05
-14.13
-14.81
-14.83
-14.03
-12.37
-10.05
-7.38
-4.77
-2.55
-0.90
0.17
0.80
1.19
1.49
1.74
1.94
2.01
1.91
1.66
1.37
1.13
1.01
1.02
1.09
1.13
1.08
0.93
0.69
0.38
0.01
-0.46
-1.06
-1.79
-2.61
-3.48
-4.33
-5.14
-5.91
-6.67
-7.46
-8.30
-9.24
-10.30
-11.46
-12.67
-13.77
-14.57
-14.83
-14.41
-13.27
-11.58
-9.61
-7.68
-6.08
-4.92
-4.18
-3.71
-3.34
-2.93
-2.43
-1.88
-1.35
-0.89
-0.53
-0.25
-0.02
0.18
0.30
0.31
0.16
-0.15
-0.58
-1.07
-1.55
-1.93
-2.18
-2.32
-2.43
-2.66
-3.13
-3.90
-4.86
-5.83
-6.62
-7.12
-7.38
-7.62
-8.10
-9.02
-10.47
-12.36
-14.52
-16.72
-18.68
-20.11
-20.75
-20.41
-19.03
-16.75
-13.87
-10.75
-7.74
-5.05
-2.78
-0.93
0.50
1.53
2.14
2.35
2.28
2.14
2.13
2.45
3.12
4.09
5.16
6.15
6.96
7.56
8.02
8.42
8.79
9.10
9.28
9.23
8.91
8.32
7.51
6.55
5.45
4.23
2.89
1.47
0.03
-1.38
-2.74
-4.10
-5.52
-7.07
-8.76
-10.61
-12.58
-14.58
-16.34
-17.48
-17.51
-16.02
-12.91
-8.47
-3.31
1.83
6.36
9.95
12.56
14.36
15.56
16.32
16.77
16.95
16.98
16.94
16.92
16.96
17.04
17.06
16.87
16.34
15.43
14.15
12.60
10.87
9.01
6.98
4.68
2.02
-1.03
-4.35
-7.71
-10.82
-13.42
-15.34
-16.63
-17.50
-18.31
-19.45
-21.23
-23.79
-27.04
-30.61
-33.93
-36.28
-36.99
-35.57
-31.88
-26.18
-19.12
-11.49
-4.07
2.58
8.13
12.48
15.62
17.62
18.53
18.51
17.75
16.56
15.26
14.17
13.52
13.45
13.92
14.76
15.72
16.48
16.82
16.59
15.79
14.50
12.85
10.97
8.95
6.89
4.91
3.13
1.63
0.46
-0.43
-1.19
-2.03
-3.16
-4.81
-7.07
-9.88
-12.95
-15.80
-17.84
-18.52
-17.46
-14.60
-10.18
-4.75
1.04
6.52
11.19
14.74
17.08
18.31
18.63
18.26
17.47
16.50
15.57
14.89
14.62
14.83
15.49
16.45
17.46
18.24
18.56
18.27
17.38
16.01
14.36
12.66
11.02
9.46
7.92
6.25
4.40
2.37
0.27
-1.72
-3.48
-4.94
-6.13
-7.16
-8.14
-9.21
-10.48
-11.99
-13.71
-15.45
-16.91
-17.66
-17.29
-15.53
-12.39
-8.15
-3.31
1.56
5.95
9.51
12.10
13.76
14.64
14.93
14.82
14.50
14.17
13.97
14.07
14.55
15.41
16.58
17.92
19.27
20.45
21.33
21.78
21.73
21.12
19.94
18.23
16.08
13.65
11.12
8.68
6.47
4.49
2.64
0.74
-1.37
-3.75
-6.34
-8.95
-11.38
-13.55
-15.46
-17.19
-18.75
-19.97
-20.50
-19.91
-17.91
-14.49
-9.93
-4.76
0.49
5.38
9.69
13.38
16.50
19.11
21.23
22.82
23.82
24.17
23.89
23.11
22.02
20.85
19.75
18.77
17.82
16.72
15.34
13.63
11.62
9.39
6.96
4.37
1.63
-1.15
-3.74
-5.91
-7.48
-8.47
-9.09
-9.61
-10.27
-11.17
-12.26
-13.46
-14.74
-16.16
-17.80
-19.63
-21.44
-22.87
-23.57
-23.32
-22.20
-20.52
-18.66
-16.95
-15.51
-14.26
-13.08
-11.95
-10.96
-10.33
-10.22
-10.60
-11.25
-11.80
-11.89
-11.34
-10.15
-8.47
-6.54
-4.59
-2.77
-1.18
0.12
1.15
1.89
2.37
2.54
2.40
1.94
1.21
0.28
-0.77
-2.01
-3.59
-5.75
-8.69
-12.40
-16.60
-20.72
-24.05
-25.92
-25.85
-23.69
-19.60
-14.08
-7.78
-1.40
4.46
9.36
13.14
15.82
17.61
18.75
19.44
19.76
19.74
19.37
18.74
17.97
17.17
16.39
15.56
14.54
13.29
11.84
10.34
8.96
7.80
6.84
5.99
5.11
4.18
3.20
2.22
1.28
0.35
-0.60
-1.58
-2.64
-3.77
-4.99
-6.28
-7.47
-8.30
-8.40
-7.47
-5.37
-2.25
1.52
5.46
9.15
12.37
15.07
17.32
19.19
20.63
21.54
21.87
21.67
21.12
20.48
19.92
19.48
19.05
18.46
17.61
16.52
15.27
13.98
12.69
11.37
9.94
8.32
6.48
4.44
2.26
0.05
-2.11
-4.12
-5.96
-7.65
-9.28
-10.94
-12.69
-14.53
-16.33
-17.89
-19.00
-19.43
-19.02
-17.69
-15.46
-12.46
-8.92
-5.17
-1.58
1.49
3.76
5.06
5.40
4.97
4.07
3.07
2.27
1.84
1.80
2.04
2.42
2.82
3.15
3.35
3.38
3.16
2.63
1.76
0.55
-0.93
-2.62
-4.40
-6.18
-7.88
-9.41
-10.72
-11.87
-12.98
-14.19
-15.63
-17.28
-18.98
-20.39
-21.14
-20.93
-19.60
-17.21
-14.01
-10.36
-6.66
-3.24
-0.31
2.04
3.84
5.17
6.10
6.70
7.00
7.09
7.08
7.08
7.19
7.41
7.65
7.78
7.70
7.39
6.88
6.23
5.45
4.52
3.37
1.97
0.32
-1.51
-3.41
-5.26
-6.93
-8.36
-9.50
-10.39
-11.13
-11.94
-13.04
-14.62
-16.75
-19.27
-21.82
-23.87
-24.89
-24.45
-22.43
-19.01
-14.64
-9.86
-5.19
-0.95
2.72
5.79
8.28
10.19
11.54
12.37
12.80
12.94
12.88
12.70
12.40
12.02
11.60
11.22
10.94
10.81
10.77
10.75
10.68
10.51
10.24
9.89
9.47
8.98
8.39
7.61
6.58
5.22
3.48
1.43
-0.83
-3.10
-5.20
-6.99
-8.37
-9.38
-10.11
-10.75
-11.50
-12.49
-13.72
-14.96
-15.85
-15.92
-14.80
-12.35
-8.76
-4.45
0.03
4.22
7.88
11.02
13.77
16.24
18.39
20.04
20.95
20.91
19.91
18.09
15.76
13.25
10.87
8.88
7.46
6.74
6.73
7.36
8.45
9.80
11.17
12.37
13.24
13.65
13.48
12.66
11.16
8.97
6.10
2.56
-1.60
-6.29
-11.33
-16.43
-21.34
-25.84
-29.86
-33.34
-36.16
-38.07
-38.66
-37.62
-34.89
-30.78
-25.97
-21.25
-17.27
-14.43
-12.74
-12.02
-11.98
-12.35
-12.91
-13.46
-13.77
-13.60
-12.81
-11.32
-9.26
-6.87
-4.39
-2.06
0.04
1.83
3.30
4.37
4.97
5.00
4.46
3.41
2.01
0.46
-1.08
-2.46
-3.60
-4.40
-4.80
-4.74
-4.24
-3.41
-2.45
-1.64
-1.22
-1.33
-1.96
-2.92
-3.89
-4.49
-4.40
-3.38
-1.40
1.43
4.83
8.48
12.06
15.33
18.19
20.59
22.59
24.19
25.38
26.10
26.26
25.82
24.83
23.45
21.89
20.37
19.04
18.05
17.42
17.17
17.24
17.52
17.90
18.23
18.43
18.52
18.61
18.90
19.59
20.76
22.37
24.18
25.91
27.19
27.73
27.31
25.88
23.49
20.32
16.60
12.64
8.78
5.40
2.84
1.36
1.00
1.61
2.82
4.20
5.39
6.17
6.52
6.58
6.47
6.29
6.07
5.78
5.39
4.87
4.22
3.45
2.58
1.61
0.60
-0.37
-1.19
-1.70
-1.79
-1.40
-0.65
0.23
0.95
1.25
1.02
0.29
-0.77
-2.04
-3.43
-4.96
-6.69
-8.64
-10.79
-13.07
-15.46
-17.94
-20.57
-23.42
-26.46
-29.61
-32.64
-35.26
-37.11
-37.88
-37.33
-35.42
-32.26
-28.21
-23.72
-19.25
-15.16
-11.57
-8.46
-5.72
-3.28
-1.18
0.44
1.44
1.79
1.58
1.03
0.32
-0.45
-1.26
-2.15
-3.09
-4.00
-4.71
-5.10
-5.18
-5.06
-4.98
-5.14
-5.64
-6.40
-7.18
-7.71
-7.83
-7.55
-7.16
-7.03
-7.52
-8.81
-10.79
-13.15
-15.49
-17.41
-18.69
-19.20
-18.95
-17.97
-16.35
-14.20
-11.64
-8.87
-6.09
-3.49
-1.23
0.59
1.97
2.97
3.68
4.24
4.72
5.15
5.51
5.76
5.84
5.76
5.57
5.30
4.98
4.59
4.03
3.22
2.14
0.87
-0.47
-1.69
-2.69
-3.45
-4.02
-4.51
-5.01
-5.63
-6.47
-7.67
-9.29
-11.28
-13.37
-15.10
-15.92
-15.42
-13.44
-10.16
-6.03
-1.57
2.75
6.60
9.84
12.42
14.36
15.65
16.32
16.39
15.93
15.06
13.99
12.93
12.02
11.33
10.79
10.26
9.65
8.98
8.38
8.01
7.95
8.14
8.31
8.14
7.35
5.84
3.72
1.26
-1.21
-3.38
-5.10
-6.39
-7.40
-8.38
-9.57
-11.11
-13.05
-15.30
-17.61
-19.66
-21.06
-21.47
-20.65
-18.60
-15.48
-11.65
-7.56
-3.60
-0.07
2.86
5.16
6.89
8.15
9.04
9.67
10.12
10.49
10.85
11.32
11.96
12.77
13.63
14.33
14.69
14.60
14.09
13.31
12.44
11.63
10.89
10.11
9.12
7.80
6.09
4.07
1.91
-0.24
-2.28
-4.22
-6.14
-8.14
-10.26
-12.51
-14.88
-17.35
-19.97
-22.75
-25.57
-28.11
-29.85
-30.22
-28.83
-25.64
-21.05
-15.72
-10.36
-5.51
-1.43
1.89
4.60
6.81
8.56
9.81
10.52
10.75
10.64
10.40
10.23
10.22
10.35
10.50
10.52
10.31
9.86
9.26
8.62
8.01
7.44
6.90
6.42
6.12
6.22
6.86
8.05
9.56
10.98
11.86
11.87
10.95
9.23
6.96
4.44
1.84
-0.68
-3.00
-5.03
-6.67
-7.86
-8.59
-8.78
-8.33
-7.04
-4.79
-1.58
2.37
6.67
10.86
14.56
17.58
19.85
21.44
22.38
22.73
22.57
22.06
21.44
20.94
20.70
20.72
20.80
20.73
20.36
19.67
18.75
17.73
16.71
15.71
14.70
13.66
12.60
11.60
10.70
9.94
9.26
8.55
7.72
6.66
5.35
3.79
2.03
0.14
-1.79
-3.68
-5.50
-7.30
-9.21
-11.35
-13.80
-16.45
-19.04
-21.17
-22.41
-22.43
-21.08
-18.43
-14.76
-10.45
-5.97
-1.76
1.78
4.39
5.97
6.57
6.39
5.71
4.79
3.87
3.09
2.52
2.17
2.03
2.06
2.27
2.61
3.06
3.52
3.91
4.10
4.01
3.56
2.71
1.45
-0.17
-2.08
-4.13
-6.09
-7.78
-9.10
-10.12
-11.11
-12.40
-14.23
-16.62
-19.25
-21.59
-23.03
-23.16
-21.82
-19.18
-15.64
-11.63
-7.53
-3.63
-0.14
2.80
5.10
6.70
7.64
7.98
7.85
7.37
6.67
5.84
4.99
4.17
3.42
2.76
2.21
1.81
1.61
1.62
1.78
1.95
1.94
1.59
0.89
-0.05
-1.07
-2.00
-2.84
-3.69
-4.74
-6.15
-8.05
-10.46
-13.29
-16.33
-19.25
-21.58
-22.87
-22.73
-21.07
-18.04
-14.06
-9.62
-5.18
-1.04
2.63
5.73
8.22
10.07
11.25
11.81
11.79
11.26
10.31
9.04
7.65
6.39
5.46
4.97
4.82
4.77
4.56
4.05
3.24
2.33
1.46
0.70
-0.04
-0.95
-2.11
-3.52
-5.02
-6.49
-7.89
-9.33
-11.05
-13.23
-15.96
-19.09
-22.24
-24.87
-26.37
-26.30
-24.47
-21.00
-16.32
-10.97
-5.50
-0.37
4.11
7.78
10.52
12.35
13.36
13.74
13.73
13.59
13.50
13.56
13.79
14.14
14.51
14.76
14.74
14.33
13.47
12.17
10.51
8.60
6.55
4.40
2.18
-0.12
-2.42
-4.63
-6.62
-8.30
-9.67
-10.80
-11.83
-12.89
-14.10
-15.55
-17.29
-19.27
-21.36
-23.29
-24.67
-25.12
-24.39
-22.41
-19.37
-15.62
-11.58
-7.57
-3.78
-0.24
3.06
6.11
8.82
11.04
12.64
13.62
14.14
14.44
14.80
15.34
16.05
16.77
17.29
17.44
17.15
16.43
15.35
14.03
12.57
11.01
9.39
7.66
5.85
4.01
2.29
0.85
-0.22
-0.93
-1.39
-1.74
-2.12
-2.62
-3.30
-4.28
-5.69
-7.62
-9.98
-12.43
-14.38
-15.23
-14.54
-12.30
-8.88
-4.92
-1.05
2.31
5.06
7.34
9.32
11.09
12.56
13.60
14.13
14.26
14.22
14.27
14.56
15.06
15.58
15.94
16.01
15.86
15.59
15.36
15.18
14.96
14.58
13.95
13.12
12.21
11.37
10.62
9.89
9.02
7.91
6.53
5.01
3.52
2.21
1.12
0.15
-0.88
-2.16
-3.86
-6.01
-8.44
-10.85
-12.79
-13.81
-13.58
-12.04
-9.42
-6.14
-2.69
0.61
3.60
6.26
8.61
10.58
12.01
12.72
12.69
12.04
11.09
10.17
9.50
9.15
9.04
9.05
9.09
9.13
9.20
9.26
9.29
9.18
8.82
8.14
7.09
5.71
4.10
2.38
0.69
-0.84
-2.18
-3.30
-4.28
-5.18
-6.11
-7.18
-8.47
-10.03
-11.77
-13.48
-14.83
-15.50
-15.28
-14.11
-12.09
-9.42
-6.38
-3.22
-0.22
2.37
4.35
5.62
6.20
6.18
5.73
5.01
4.18
3.38
2.74
2.31
2.13
2.15
2.27
2.40
2.46
2.41
2.25
1.95
1.51
0.90
0.10
-0.83
-1.84
-2.86
-3.86
-4.82
-5.81
-6.89
-8.15
-9.67
-11.46
-13.43
-15.35
-16.84
-17.53
-17.18
-15.79
-13.60
-11.02
-8.41
-5.97
-3.71
-1.56
0.51
2.38
3.83
4.67
4.85
4.57
4.16
3.96
4.18
4.80
5.57
6.20
6.45
6.23
5.65
4.92
4.19
3.56
2.98
2.36
1.60
0.68
-0.38
-1.53
-2.72
-3.94
-5.19
-6.50
-7.89
-9.38
-10.98
-12.69
-14.48
-16.28
-18.00
-19.47
-20.48
-20.84
-20.36
-18.96
-16.68
-13.72
-10.40
-7.10
-4.14
-1.72
0.12
1.49
2.54
3.40
4.11
4.63
4.96
5.14
5.31
5.62
6.10
6.65
7.07
7.16
6.87
6.32
5.72
5.22
4.84
4.47
3.99
3.31
2.46
1.50
0.47
-0.63
-1.84
-3.13
-4.36
-5.39
-6.10
-6.56
-6.97
-7.59
-8.61
-10.07
-11.83
-13.62
-15.11
-15.98
-15.97
-14.96
-12.96
-10.19
-6.98
-3.72
-0.74
1.78
3.81
5.41
6.65
7.58
8.21
8.55
8.67
8.68
8.74
8.95
9.33
9.76
10.09
10.16
9.91
9.37
8.70
8.09
7.62
7.28
6.95
6.44
5.62
4.44
2.97
1.34
-0.27
-1.73
-2.96
-3.96
-4.81
-5.57
-6.32
-7.08
-7.92
-8.90
-10.13
-11.61
-13.22
-14.63
-15.42
-15.21
-13.86
-11.54
-8.65
-5.66
-2.92
-0.60
1.32
2.91
4.22
5.28
6.06
6.59
6.93
7.16
7.39
7.68
8.03
8.43
8.83
9.19
9.51
9.82
10.14
10.50
10.86
11.13
11.23
11.14
10.93
10.74
10.72
10.97
11.49
12.12
12.67
12.97
12.89
12.43
11.64
10.63
9.46
8.21
6.94
5.70
4.58
3.70
3.21
3.26
3.97
5.41
7.52
10.12
12.88
15.49
17.65
19.23
20.19
20.50
20.15
19.08
17.27
14.85
12.05
9.21
6.67
4.62
3.04
1.79
0.66
-0.47
-1.66
-2.85
-3.97
-4.93
-5.74
-6.44
-7.10
-7.82
-8.63
-9.53
-10.44
-11.27
-11.98
-12.58
-13.16
-13.85
-14.78
-16.01
-17.58
-19.40
-21.36
-23.20
-24.62
-25.30
-24.99
-23.59
-21.23
-18.25
-15.03
-11.91
-9.06
-6.52
-4.31
-2.46
-1.05
-0.20
0.11
0.02
-0.21
-0.29
-0.03
0.59
1.45
2.32
3.04
3.50
3.74
3.85
3.91
3.95
3.92
3.74
3.33
2.67
1.79
0.81
-0.17
-1.06
-1.85
-2.62
-3.45
-4.45
-5.69
-7.16
-8.74
-10.25
-11.47
-12.16
-12.14
-11.34
-9.76
-7.52
-4.77
-1.71
1.47
4.56
7.34
9.60
11.24
12.23
12.67
12.73
12.59
12.43
12.36
12.46
12.72
13.09
13.47
13.69
13.60
13.08
12.03
10.42
8.25
5.56
2.42
-1.06
-4.73
-8.39
-11.83
-14.86
-17.36
-19.31
-20.78
-21.89
-22.83
-23.75
-24.78
-25.93
-27.16
-28.31
-29.09
-29.18
-28.28
-26.24
-23.10
-19.13
-14.77
-10.46
-6.55
-3.25
-0.58
1.57
3.28
4.66
5.73
6.52
7.06
7.45
7.79
8.15
8.54
8.93
9.21
9.30
9.20
8.97
8.69
8.44
8.24
8.02
7.68
7.10
6.26
5.17
3.91
2.59
1.27
0.00
-1.24
-2.49
-3.79
-5.16
-6.60
-8.18
-9.97
-12.05
-14.36
-16.65
-18.48
-19.37
-18.98
-17.28
-14.57
-11.34
-8.09
-5.15
-2.59
-0.36
1.68
3.57
5.24
6.59
7.53
8.08
8.32
8.44
8.57
8.83
9.22
9.65
9.97
10.07
9.89
9.45
8.86
8.25
7.68
7.13
6.51
5.68
4.57
3.13
1.45
-0.35
-2.14
-3.82
-5.38
-6.81
-8.10
-9.23
-10.20
-11.04
-11.93
-13.09
-14.69
-16.74
-18.95
-20.83
-21.87
-21.67
-20.14
-17.42
-13.85
-9.83
-5.71
-1.81
1.61
4.32
6.21
7.32
7.84
8.07
8.30
8.72
9.34
10.07
10.76
11.29
11.62
11.78
11.84
11.87
11.92
11.97
11.95
11.80
11.47
10.93
10.24
9.44
8.60
7.75
6.88
5.94
4.86
3.60
2.17
0.61
-1.00
-2.60
-4.13
-5.61
-7.12
-8.79
-10.72
-12.96
-15.34
-17.53
-19.07
-19.53
-18.64
-16.40
-13.06
-9.07
-4.87
-0.85
2.74
5.77
8.21
10.09
11.49
12.47
13.06
13.27
13.12
12.70
12.19
11.80
11.66
11.81
12.11
12.37
12.42
12.19
11.73
11.13
10.48
9.79
9.02
8.14
7.14
6.00
4.71
3.24
1.56
-0.28
-2.21
-4.11
-5.90
-7.49
-8.93
-10.27
-11.62
-13.13
-14.87
-16.84
-18.84
-20.48
-21.24
-20.68
-18.60
-15.19
-10.98
-6.62
-2.66
0.62
3.23
5.33
7.02
8.35
9.26
9.71
9.81
9.71
9.60
9.63
9.82
10.15
10.57
11.06
11.59
12.09
12.44
12.52
12.24
11.65
10.87
10.04
9.23
8.47
7.75
7.05
6.41
5.82
5.24
4.58
3.73
2.63
1.27
-0.28
-1.99
-3.87
-5.96
-8.25
-10.60
-12.68
-14.04
-14.27
-13.17
-10.82
-7.56
-3.85
-0.14
3.29
6.31
8.89
11.00
12.56
13.48
13.75
13.52
13.00
12.48
12.14
12.05
12.12
12.19
12.13
11.89
11.46
10.91
10.33
9.77
9.26
8.75
8.12
7.20
5.89
4.17
2.16
0.09
-1.85
-3.55
-5.00
-6.35
-7.76
-9.38
-11.28
-13.48
-15.88
-18.32
-20.48
-22.01
-22.54
-21.84
-19.86
-16.80
-13.01
-8.92
-4.93
-1.32
1.76
4.29
6.31
7.88
9.04
9.81
10.20
10.29
10.20
10.09
10.11
10.29
10.62
10.94
11.14
11.08
10.71
10.06
9.15
8.02
6.70
5.20
3.55
1.83
0.12
-1.47
-2.89
-4.17
-5.50
-7.07
-9.05
-11.41
-13.84
-15.85
-16.88
-16.58
-14.89
-12.09
-8.64
-5.04
-1.66
1.29
3.72
5.63
7.01
7.87
8.26
8.29
8.12
7.93
7.85
7.90
8.06
8.24
8.36
8.35
8.17
7.76
7.08
6.11
4.85
3.40
1.86
0.32
-1.17
-2.62
-4.05
-5.47
-6.87
-8.27
-9.73
-11.38
-13.32
-15.46
-17.49
-18.87
-19.07
-17.75
-14.96
-11.12
-6.88
-2.84
0.61
3.39
5.61
7.41
8.84
9.84
10.32
10.26
9.74
8.98
8.19
7.56
7.14
6.93
6.84
6.82
6.81
6.75
6.58
6.22
5.57
4.57
3.20
1.57
-0.18
-1.86
-3.32
-4.58
-5.76
-7.07
-8.74
-10.87
-13.39
-16.04
-18.41
-20.11
-20.79
-20.30
-18.64
-16.01
-12.69
-9.04
-5.35
-1.87
1.25
3.95
6.18
7.90
9.05
9.64
9.72
9.47
9.11
8.87
8.85
9.03
9.25
9.32
9.14
8.68
8.06
7.43
6.89
6.47
6.04
5.42
4.43
2.93
0.96
-1.30
-3.58
-5.64
-7.36
-8.75
-9.97
-11.20
-12.58
-14.15
-15.88
-17.69
-19.38
-20.67
-21.23
-20.71
-18.92
-15.91
-11.93
-7.47
-2.99
1.12
4.65
7.53
9.76
11.38
12.46
13.09
13.41
13.56
13.68
13.81
13.94
14.00
13.92
13.66
13.20
12.54
11.65
10.53
9.16
7.58
5.84
4.02
2.21
0.48
-1.15
-2.67
-4.10
-5.44
-6.70
-7.89
-9.02
-10.15
-11.35
-12.70
-14.25
-16.02
-17.95
-19.99
-22.09
-24.14
-25.95
-27.24
-27.59
-26.62
-24.17
-20.38
-15.68
-10.68
-5.97
-1.95
1.23
3.63
5.37
6.60
7.37
7.67
7.53
7.00
6.23
5.41
4.69
4.17
3.88
3.78
3.80
3.89
4.03
4.20
4.34
4.36
4.19
3.78
3.21
2.58
2.01
1.62
1.44
1.43
1.48
1.49
1.36
1.05
0.60
0.07
-0.47
-1.07
-1.84
-2.95
-4.54
-6.60
-8.94
-11.22
-13.05
-14.11
-14.19
-13.28
-11.46
-8.95
-5.98
-2.86
0.13
2.70
4.64
5.82
6.25
6.01
5.29
4.32
3.35
2.62
2.28
2.41
2.96
3.87
5.06
6.50
8.18
10.12
12.25
14.44
16.51
18.25
19.52
20.26
20.47
20.22
19.59
18.70
17.63
16.46
15.19
13.74
11.98
9.79
7.19
4.35
1.57
-0.83
-2.65
-3.90
-4.81
-5.72
-6.87
-8.26
-9.61
-10.46
-10.34
-8.99
-6.45
-2.99
0.94
4.90
8.53
11.55
13.80
15.19
15.71
15.47
14.70
13.67
12.64
11.76
11.07
10.55
10.11
9.66
9.14
8.49
7.65
6.62
5.46
4.28
3.16
2.15
1.22
0.28
-0.73
-1.84
-2.97
-4.03
-4.98
-5.87
-6.81
-7.93
-9.33
-11.04
-13.08
-15.42
-17.96
-20.49
-22.61
-23.86
-23.80
-22.27
-19.42
-15.71
-11.71
-7.89
-4.48
-1.48
1.19
3.57
5.55
6.93
7.56
7.43
6.74
5.80
4.91
4.26
3.87
3.66
3.58
3.65
3.97
4.63
5.63
6.76
7.65
7.89
7.17
5.44
2.91
-0.01
-2.84
-5.21
-6.92
-8.05
-8.83
-9.59
-10.59
-11.99
-13.80
-15.88
-17.97
-19.76
-20.85
-20.93
-19.79
-17.43
-14.11
-10.25
-6.32
-2.69
0.43
3.04
5.19
6.97
8.42
9.52
10.27
10.68
10.83
10.80
10.68
10.51
10.30
9.99
9.51
8.85
8.02
7.11
6.27
5.63
5.28
5.20
5.30
5.47
5.60
5.64
5.56
5.36
4.99
4.39
3.47
2.17
0.50
-1.45
-3.54
-5.60
-7.52
-9.25
-10.76
-11.98
-12.70
-12.65
-11.60
-9.45
-6.35
-2.67
1.15
4.76
7.96
10.75
13.19
15.30
17.03
18.26
18.89
18.96
18.62
18.11
17.69
17.46
17.39
17.32
17.04
16.42
15.46
14.29
13.07
11.94
10.91
9.91
8.84
7.61
6.17
4.56
2.82
0.99
-0.88
-2.74
-4.51
-6.14
-7.64
-9.07
-10.60
-12.37
-14.49
-16.90
-19.35
-21.46
-22.80
-22.99
-21.84
-19.38
-15.82
-11.52
-6.91
-2.34
1.92
5.71
8.93
11.53
13.46
14.74
15.46
15.77
15.90
16.05
16.37
16.89
17.54
18.14
18.50
18.47
17.94
16.88
15.34
13.42
11.24
8.91
6.45
3.91
1.30
-1.27
-3.63
-5.59
-7.00
-7.86
-8.31
-8.57
-8.90
-9.46
-10.33
-11.48
-12.82
-14.22
-15.47
-16.31
-16.54
-16.05
-14.89
-13.27
-11.45
-9.68
-8.14
-6.94
-6.15
-5.80
-5.84
-6.12
-6.47
-6.71
-6.74
-6.56
-6.24
-5.79
-5.21
-4.43
-3.44
-2.27
-1.04
0.11
1.06
1.76
2.18
2.33
2.20
1.79
1.08
0.09
-1.11
-2.47
-3.90
-5.32
-6.65
-7.84
-8.88
-9.85
-10.90
-12.22
-13.92
-16.06
-18.49
-20.92
-22.88
-23.87
-23.49
-21.54
-18.08
-13.47
-8.24
-2.94
1.96
6.21
9.74
12.60
14.88
16.65
17.92
18.67
18.90
18.67
18.10
17.37
16.65
16.10
15.74
15.54
15.37
15.11
14.68
14.05
13.25
12.29
11.14
9.73
8.00
5.94
3.59
1.07
-1.52
-4.09
-6.63
-9.12
-11.58
-14.01
-16.41
-18.75
-21.04
-23.37
-25.77
-28.26
-30.71
-32.78
-33.95
-33.70
-31.66
-27.85
-22.62
-16.55
-10.29
-4.31
1.06
5.69
9.48
12.32
14.17
15.04
15.09
14.57
13.76
12.91
12.22
11.79
11.68
11.88
12.30
12.80
13.25
13.58
13.75
13.78
13.64
13.25
12.51
11.35
9.80
7.99
6.08
4.19
2.36
0.53
-1.35
-3.25
-5.10
-6.77
-8.22
-9.47
-10.71
-12.15
-14.00
-16.30
-18.89
-21.38
-23.21
-23.83
-22.84
-20.12
-15.91
-10.72
-5.15
0.19
4.89
8.76
11.79
14.06
15.74
17.00
17.97
18.75
19.36
19.84
20.18
20.40
20.52
20.52
20.37
20.04
19.50
18.81
18.07
17.40
16.83
16.32
15.74
14.93
13.79
12.31
10.52
8.51
6.33
4.03
1.68
-0.68
-2.96
-5.11
-7.12
-9.02
-10.91
-12.85
-14.88
-16.85
-18.49
-19.44
-19.33
-17.96
-15.34
-11.70
-7.44
-2.99
1.30
5.14
8.36
10.82
12.43
13.18
13.14
12.51
11.54
10.49
9.51
8.70
8.10
7.74
7.65
7.81
8.13
8.44
8.54
8.24
7.44
6.18
4.57
2.79
0.99
-0.73
-2.34
-3.84
-5.30
-6.77
-8.35
-10.15
-12.25
-14.68
-17.37
-20.08
-22.44
-23.98
-24.33
-23.27
-20.86
-17.39
-13.26
-8.91
-4.72
-1.01
2.03
4.27
5.69
6.36
6.45
6.16
5.64
4.99
4.26
3.51
2.80
2.23
1.87
1.72
1.71
1.66
1.38
0.72
-0.40
-1.93
-3.71
-5.56
-7.33
-8.93
-10.38
-11.78
-13.28
-15.01
-17.10
-19.58
-22.41
-25.34
-27.99
-29.87
-30.52
-29.64
-27.18
-23.34
-18.48
-13.03
-7.43
-2.07
2.76
6.79
9.83
11.76
12.58
12.39
11.42
10.02
8.53
7.24
6.34
5.86
5.75
5.89
6.16
6.42
6.52
6.32
5.70
4.59
3.05
1.22
-0.71
-2.54
-4.13
-5.45
-6.54
-7.57
-8.75
-10.32
-12.42
-14.95
-17.58
-19.78
-20.97
-20.69
-18.78
-15.40
-10.97
-6.06
-1.17
3.28
7.08
10.12
12.38
13.82
14.47
14.41
13.82
13.00
12.29
11.94
12.02
12.42
12.93
13.30
13.40
13.24
12.90
12.51
12.13
11.70
11.13
10.32
9.24
7.98
6.66
5.40
4.29
3.30
2.33
1.22
-0.17
-2.02
-4.39
-7.17
-10.08
-12.64
-14.29
-14.60
-13.40
-10.81
-7.20
-3.03
1.25
5.32
8.94
11.95
14.25
15.82
16.70
16.99
16.84
16.36
15.69
15.00
14.43
14.12
14.09
14.26
14.42
14.32
13.79
12.81
11.48
10.02
8.61
7.35
6.20
5.06
3.79
2.34
0.75
-0.90
-2.49
-3.97
-5.35
-6.71
-8.13
-9.71
-11.52
-13.57
-15.76
-17.84
-19.39
-19.97
-19.24
-17.07
-13.64
-9.34
-4.64
0.07
4.53
8.64
12.28
15.31
17.56
18.87
19.20
18.68
17.66
16.56
15.76
15.49
15.69
16.12
16.42
16.27
15.57
14.43
13.10
11.86
10.84
9.94
8.91
7.51
5.64
3.45
1.21
-0.79
-2.38
-3.56
-4.47
-5.31
-6.24
-7.42
-8.98
-10.98
-13.41
-16.04
-18.44
-20.07
-20.45
-19.33
-16.79
-13.18
-9.04
-4.91
-1.27
1.64
3.72
5.07
5.84
6.20
6.26
6.07
5.67
5.14
4.61
4.22
4.06
4.08
4.12
4.03
3.72
3.26
2.76
2.33
1.92
1.36
0.48
-0.84
-2.50
-4.28
-5.95
-7.34
-8.50
-9.63
-10.99
-12.75
-14.92
-17.25
-19.30
-20.60
-20.73
-19.48
-16.87
-13.14
-8.67
-3.93
0.65
4.68
7.90
10.22
11.74
12.70
13.35
13.87
14.24
14.28
13.76
12.61
10.95
9.07
7.29
5.77
4.53
3.43
2.39
1.36
0.35
-0.63
-1.68
-2.90
-4.34
-5.90
-7.33
-8.39
-8.98
-9.22
-9.49
-10.22
-11.79
-14.36
-17.76
-21.60
-25.32
-28.34
-30.21
-30.75
-29.99
-28.16
-25.59
-22.55
-19.26
-15.89
-12.61
-9.65
-7.18
-5.30
-3.95
-2.91
-1.84
-0.49
1.29
3.42
5.66
7.68
9.20
10.10
10.40
10.25
9.79
9.14
8.26
7.09
5.57
3.75
1.79
-0.06
-1.55
-2.55
-3.07
-3.31
-3.54
-4.09
-5.16
-6.83
-8.95
-11.22
-13.22
-14.55
-14.90
-14.14
-12.32
-9.61
-6.25
-2.53
1.27
4.90
8.11
10.74
12.72
14.04
14.82
15.18
15.23
15.09
14.81
14.48
14.15
13.88
13.68
13.51
13.27
12.87
12.27
11.50
10.69
9.95
9.32
8.77
8.20
7.53
6.74
5.91
5.16
4.56
4.09
3.65
3.08
2.29
1.28
0.10
-1.19
-2.56
-3.98
-5.35
-6.51
-7.17
-7.02
-5.88
-3.72
-0.75
2.68
6.17
9.45
12.37
14.95
17.24
19.28
20.99
22.27
23.04
23.32
23.26
23.06
22.90
22.86
22.87
22.73
22.21
21.12
19.38
17.10
14.49
11.85
9.46
7.47
5.90
4.59
3.34
1.96
0.37
-1.41
-3.27
-5.11
-6.93
-8.77
-10.67
-12.61
-14.46
-16.04
-17.30
-18.33
-19.38
-20.66
-22.16
-23.55
-24.26
-23.77
-21.80
-18.48
-14.23
-9.59
-4.97
-0.57
3.59
7.50
11.04
14.05
16.33
17.79
18.46
18.53
18.25
17.80
17.34
16.87
16.32
15.59
14.59
13.27
11.71
10.06
8.44
6.99
5.68
4.46
3.24
1.96
0.66
-0.58
-1.68
-2.60
-3.36
-4.02
-4.67
-5.38
-6.19
-7.13
-8.21
-9.41
-10.63
-11.70
-12.37
-12.45
-11.75
-10.30
-8.23
-5.80
-3.31
-1.03
0.83
2.10
2.71
2.64
1.97
0.83
-0.55
-1.97
-3.26
-4.31
-5.09
-5.65
-6.06
-6.39
-6.78
-7.30
-7.98
-8.74
-9.44
-9.97
-10.28
-10.53
-10.96
-11.81
-13.15
-14.89
-16.71
-18.33
-19.58
-20.49
-21.26
-22.17
-23.41
-25.04
-26.98
-29.05
-31.01
-32.54
-33.32
-33.05
-31.46
-28.50
-24.29
-19.20
-13.73
-8.42
-3.70
0.18
3.18
5.42
7.04
8.21
8.99
9.44
9.61
9.53
9.27
8.86
8.37
7.82
7.27
6.80
6.47
6.32
6.31
6.39
6.48
6.54
6.51
6.31
5.82
4.90
3.47
1.56
-0.64
-2.93
-5.07
-6.97
-8.65
-10.23
-11.85
-13.63
-15.60
-17.62
-19.42
-20.60
-20.78
-19.69
-17.26
-13.70
-9.34
-4.62
0.07
4.40
8.11
11.03
13.12
14.47
15.29
15.79
16.13
16.32
16.30
16.03
15.54
14.97
14.50
14.24
14.18
14.21
14.18
13.98
13.56
12.90
12.04
11.00
9.84
8.62
7.44
6.37
5.45
4.65
3.88
3.02
1.98
0.75
-0.65
-2.10
-3.53
-4.94
-6.43
-8.11
-10.07
-12.25
-14.46
-16.32
-17.48
-17.64
-16.68
-14.67
-11.82
-8.44
-4.89
-1.52
1.39
3.64
5.19
6.08
6.45
6.50
6.38
6.27
6.25
6.37
6.56
6.69
6.60
6.18
5.43
4.45
3.44
2.59
2.02
1.74
1.65
1.58
1.36
0.86
0.09
-0.93
-2.10
-3.32
-4.50
-5.65
-6.78
-7.96
-9.25
-10.70
-12.33
-14.12
-15.92
-17.50
-18.52
-18.69
-17.85
-15.99
-13.29
-10.02
-6.46
-2.85
0.62
3.78
6.46
8.53
9.90
10.57
10.70
10.50
10.18
9.88
9.70
9.61
9.56
9.50
9.40
9.23
8.95
8.51
7.86
6.97
5.91
4.81
3.85
3.12
2.65
2.33
1.98
1.47
0.78
-0.03
-0.88
-1.74
-2.69
-3.83
-5.17
-6.51
-7.49
-7.69
-6.85
-4.97
-2.32
0.70
3.76
6.69
9.50
12.20
14.73
16.88
18.39
19.09
19.03
18.50
17.88
17.51
17.56
17.94
18.40
18.59
18.30
17.45
16.19
14.75
13.36
12.15
11.09
10.04
8.79
7.17
5.10
2.67
0.13
-2.08
-3.47
-3.61
-2.29
0.36
3.78
7.18
9.71
10.76
10.13
8.10
5.31
2.59
0.65
-0.09
0.43
1.92
3.84
5.62
6.76
6.99
6.28
4.72
2.55
0.03
-2.57
-4.96
-6.88
-8.18
-8.83
-8.93
-8.70
-8.38
-8.12
-7.96
-7.84
-7.63
-7.23
-6.61
-5.83
-4.98
-4.15
-3.42
-2.79
-2.25
-1.75
-1.31
-0.97
-0.87
-1.21
-2.19
-3.98
-6.58
-9.80
-13.20
-16.18
-18.14
-18.73
-17.90
-15.90
-13.21
-10.30
-7.51
-5.07
-3.08
-1.62
-0.73
-0.44
-0.67
-1.28
-2.07
-2.85
-3.51
-4.02
-4.36
-4.59
-4.72
-4.77
-4.77
-4.76
-4.82
-5.02
-5.39
-5.91
-6.49
-7.06
-7.54
-7.96
-8.39
-8.96
-9.79
-10.98
-12.59
-14.63
-17.01
-19.48
-21.64
-23.01
-23.16
-21.85
-19.09
-15.19
-10.61
-5.84
-1.24
2.93
6.54
9.53
11.85
13.45
14.30
14.44
13.97
13.08
11.93
10.73
9.58
8.52
7.58
6.71
5.89
5.08
4.27
3.48
2.75
2.16
1.78
1.67
1.83
2.20
2.67
3.07
3.20
2.89
2.01
0.56
-1.32
-3.38
-5.28
-6.65
-7.18
-6.57
-4.57
-1.12
3.70
9.52
15.81
21.97
27.50
32.09
35.60
37.99
39.23
39.24
38.01
35.66
32.52
29.07
25.78
22.95
20.65
18.76
17.10
15.59
14.30
13.36
12.81
12.51
12.20
11.59
10.50
8.96
7.13
5.24
3.39
1.54
-0.43
-2.64
-5.15
-7.90
-10.82
-13.80
-16.72
-19.50
-21.95
-23.85
-24.98
-25.23
-24.65
-23.46
-22.00
-20.60
-19.51
-18.78
-18.36
-18.15
-18.11
-18.23
-18.52
-18.94
-19.31
-19.36
-18.85
-17.66
-15.88
-13.78
-11.63
-9.66
-7.96
-6.50
-5.22
-4.09
-3.17
-2.63
-2.67
-3.47
-5.16
-7.70
-10.93
-14.53
-18.10
-21.15
-23.25
-24.05
-23.29
-20.87
-16.87
-11.55
-5.41
0.95
6.90
11.87
15.49
17.59
18.24
17.70
16.29
14.35
12.18
10.00
7.98
6.28
5.04
4.33
4.20
4.54
5.19
5.85
6.23
6.06
5.18
3.59
1.42
-1.10
-3.72
-6.26
-8.61
-10.73
-12.66
-14.41
-16.00
-17.43
-18.68
-19.70
-20.34
-20.39
-19.57
-17.65
-14.54
-10.39
-5.59
-0.62
3.98
7.87
10.84
12.89
14.12
14.62
14.50
13.80
12.62
11.11
9.47
7.94
6.78
6.18
6.29
7.18
8.78
10.92
13.26
15.41
17.00
17.78
17.65
16.68
15.06
12.99
10.67
8.29
5.95
3.75
1.70
-0.28
-2.34
-4.63
-7.25
-10.08
-12.77
-14.77
-15.48
-14.46
-11.62
-7.31
-2.17
3.02
7.59
11.17
13.62
15.07
15.70
15.66
15.04
13.88
12.20
10.07
7.70
5.32
3.17
1.42
0.12
-0.79
-1.39
-1.80
-2.13
-2.49
-3.07
-4.05
-5.66
-7.94
-10.81
-13.95
-16.94
-19.41
-21.09
-21.94
-22.05
-21.62
-20.83
-19.78
-18.56
-17.21
-15.76
-14.25
-12.67
-10.90
-8.80
-6.23
-3.17
0.27
3.86
7.33
10.50
13.27
15.66
17.65
19.18
20.15
20.42
19.95
18.88
17.43
15.92
14.61
13.68
13.20
13.24
13.87
15.15
17.13
19.72
22.70
25.75
28.49
30.66
32.14
32.95
33.19
32.96
32.24
30.92
28.90
26.12
22.67
18.80
14.88
11.34
8.55
6.78
6.15
6.61
7.92
9.71
11.57
13.16
14.26
14.85
14.99
14.82
14.46
14.00
13.53
13.12
12.86
12.73
12.66
12.51
12.13
11.41
10.33
8.89
7.13
5.06
2.71
0.18
-2.39
-4.80
-6.91
-8.67
-10.14
-11.44
-12.66
-13.86
-15.07
-16.31
-17.65
-19.11
-20.64
-22.08
-23.15
-23.58
-23.17
-21.88
-19.85
-17.32
-14.62
-12.01
-9.72
-7.86
-6.45
-5.46
-4.86
-4.65
-4.85
-5.45
-6.39
-7.49
-8.53
-9.34
-9.81
-9.98
-9.96
-9.84
-9.72
-9.60
-9.51
-9.44
-9.42
-9.52
-9.78
-10.23
-10.88
-11.69
-12.61
-13.64
-14.82
-16.23
-17.84
-19.56
-21.06
-21.96
-21.88
-20.62
-18.24
-15.03
-11.40
-7.78
-4.47
-1.69
0.45
1.87
2.56
2.62
2.23
1.66
1.15
0.85
0.75
0.76
0.73
0.55
0.19
-0.32
-0.92
-1.59
-2.33
-3.20
-4.20
-5.32
-6.47
-7.57
-8.56
-9.49
-10.45
-11.59
-13.00
-14.69
-16.48
-18.13
-19.35
-19.88
-19.55
-18.26
-16.01
-12.92
-9.19
-5.15
-1.16
2.47
5.52
7.91
9.68
10.92
11.73
12.17
12.28
12.12
11.80
11.42
11.11
10.92
10.82
10.72
10.48
10.01
9.25
8.23
7.02
5.72
4.38
3.00
1.53
-0.13
-2.08
-4.38
-7.01
-9.83
-12.56
-14.90
-16.50
-17.15
-16.76
-15.44
-13.40
-10.91
-8.25
-5.60
-3.07
-0.71
1.45
3.34
4.86
5.93
6.55
6.80
6.83
6.83
6.89
7.02
7.14
7.14
6.97
6.67
6.30
5.94
5.60
5.24
4.78
4.17
3.42
2.57
1.67
0.79
-0.06
-0.88
-1.73
-2.68
-3.81
-5.17
-6.78
-8.62
-10.61
-12.61
-14.35
-15.51
-15.78
-14.97
-13.07
-10.33
-7.14
-3.93
-1.03
1.45
3.58
5.50
7.28
8.86
10.08
10.76
10.82
10.39
9.71
9.06
8.66
8.59
8.81
9.18
9.52
9.69
9.57
9.11
8.31
7.24
6.02
4.79
3.64
2.54
1.42
0.16
-1.28
-2.87
-4.48
-5.94
-7.13
-8.01
-8.65
-9.20
-9.85
-10.75
-12.00
-13.56
-15.29
-16.94
-18.15
-18.56
-17.87
-15.99
-13.02
-9.25
-5.10
-0.95
2.87
6.15
8.81
10.82
12.22
13.09
13.52
13.66
13.69
13.75
13.96
14.41
15.08
15.89
16.69
17.32
17.63
17.55
17.08
16.28
15.22
13.97
12.59
11.13
9.64
8.18
6.77
5.37
3.95
2.46
0.90
-0.65
-2.09
-3.33
-4.35
-5.25
-6.14
-7.12
-8.23
-9.45
-10.67
-11.78
-12.58
-12.84
-12.32
-10.88
-8.54
-5.52
-2.12
1.35
4.70
7.86
10.76
13.32
15.36
16.70
17.28
17.20
16.74
16.21
15.78
15.48
15.17
14.69
13.94
13.00
12.07
11.34
10.90
10.68
10.45
9.95
9.00
7.60
5.89
4.09
2.41
0.93
-0.37
-1.60
-2.88
-4.33
-5.91
-7.54
-9.06
-10.39
-11.60
-12.87
-14.42
-16.30
-18.33
-20.10
-21.14
-21.15
-20.07
-18.09
-15.53
-12.66
-9.63
-6.54
-3.48
-0.63
1.81
3.64
4.75
5.19
5.08
4.66
4.16
3.77
3.60
3.67
3.91
4.19
4.38
4.39
4.23
3.92
3.54
3.16
2.80
2.41
1.95
1.33
0.50
-0.55
-1.78
-3.13
-4.50
-5.82
-7.05
-8.18
-9.26
-10.32
-11.48
-12.82
-14.41
-16.19
-17.94
-19.33
-19.98
-19.59
-18.07
-15.53
-12.26
-8.63
-5.01
-1.69
1.14
3.40
5.08
6.28
7.11
7.71
8.13
8.40
8.45
8.33
8.11
7.92
7.86
7.91
7.96
7.84
7.48
6.90
6.22
5.59
5.05
4.59
4.13
3.58
2.95
2.26
1.54
0.76
-0.15
-1.28
-2.62
-4.11
-5.63
-7.03
-8.23
-9.22
-10.06
-10.90
-11.86
-13.01
-14.27
-15.39
-16.01
-15.75
-14.36
-11.76
-8.13
-3.86
0.65
4.95
8.74
11.86
14.25
15.97
17.13
17.85
18.21
18.28
18.14
17.88
17.64
17.52
17.52
17.55
17.45
17.04
16.26
15.15
13.83
12.40
10.90
9.26
7.39
5.26
2.91
0.47
-1.93
-4.22
-6.40
-8.52
-10.61
-12.69
-14.70
-16.60
-18.35
-20.00
-21.57
-23.08
-24.55
-25.97
-27.37
-28.78
-30.18
-31.41
-32.16
-32.08
-30.84
-28.38
-24.90
-20.87
-16.79
-13.06
-9.88
-7.23
-5.07
-3.31
-1.94
-0.93
-0.25
0.25
0.73
1.33
2.14
3.17
4.33
5.54
6.71
7.79
8.75
9.51
10.00
10.13
9.85
9.17
8.21
7.09
5.92
4.79
3.70
2.62
1.49
0.25
-1.16
-2.72
-4.33
-5.85
-7.13
-8.15
-9.01
-10.00
-11.42
-13.40
-15.82
-18.29
-20.22
-21.09
-20.57
-18.62
-15.43
-11.33
-6.67
-1.82
2.92
7.28
11.06
14.15
16.52
18.26
19.46
20.24
20.71
20.98
21.15
21.32
21.52
21.75
21.93
21.97
21.80
21.35
20.65
19.72
18.64
17.47
16.26
15.02
13.73
12.36
10.88
9.33
7.81
6.41
5.18
4.04
2.85
1.47
-0.15
-1.89
-3.59
-5.08
-6.37
-7.61
-9.05
-10.92
-13.32
-16.09
-18.87
-21.15
-22.38
-22.17
-20.35
-17.06
-12.74
-7.98
-3.31
0.86
4.35
7.16
9.36
11.04
12.23
12.96
13.28
13.33
13.24
13.11
13.01
12.93
12.87
12.81
12.80
12.87
13.06
13.32
13.53
13.52
13.11
12.24
10.96
9.44
7.89
6.45
5.18
4.03
2.92
1.72
0.39
-1.12
-2.81
-4.65
-6.54
-8.36
-9.96
-11.30
-12.43
-13.52
-14.83
-16.58
-18.79
-21.26
-23.52
-24.98
-25.10
-23.56
-20.37
-15.85
-10.55
-5.04
0.18
4.76
8.54
11.47
13.60
15.06
15.98
16.52
16.84
17.02
17.13
17.25
17.41
17.64
17.91
18.13
18.23
18.15
17.88
17.49
17.04
16.54
15.94
15.13
14.05
12.68
11.07
9.28
7.39
5.48
3.58
1.74
0.00
-1.64
-3.20
-4.74
-6.29
-7.86
-9.41
-10.96
-12.52
-14.20
-16.13
-18.32
-20.58
-22.49
-23.54
-23.29
-21.54
-18.41
-14.30
-9.70
-5.07
-0.75
3.06
6.23
8.69
10.45
11.54
12.04
12.07
11.76
11.27
10.75
10.33
10.14
10.27
10.71
11.35
12.06
12.64
12.95
12.87
12.37
11.51
10.43
9.33
8.40
7.74
7.36
7.17
7.03
6.74
6.09
4.90
3.03
0.43
-2.86
-6.69
-10.85
-15.06
-18.96
-22.16
-24.23
-24.84
-23.81
-21.26
-17.57
-13.27
-8.92
-4.91
-1.48
1.28
3.34
4.66
5.27
5.24
4.78
4.14
3.57
3.26
3.24
3.43
3.69
3.87
3.89
3.76
3.52
3.20
2.80
2.30
1.63
0.75
-0.37
-1.76
-3.44
-5.42
-7.67
-10.13
-12.68
-15.14
-17.38
-19.33
-21.03
-22.65
-24.35
-26.27
-28.32
-30.28
-31.67
-32.01
-30.92
-28.31
-24.44
-19.79
-15.00
-10.59
-6.95
-4.20
-2.33
-1.18
-0.55
-0.16
0.25
0.97
2.18
3.95
6.18
8.65
11.07
13.16
14.71
15.66
16.03
15.92
15.48
14.84
14.07
13.22
12.33
11.42
10.56
9.79
9.08
8.33
7.39
6.08
4.33
2.19
-0.19
-2.58
-4.81
-6.76
-8.43
-9.89
-11.27
-12.74
-14.38
-16.19
-17.96
-19.29
-19.69
-18.76
-16.33
-12.56
-7.90
-2.91
1.92
6.23
9.87
12.84
15.16
16.87
17.98
18.54
18.64
18.42
18.07
17.74
17.58
17.60
17.78
18.04
18.22
18.21
17.90
17.24
16.23
14.89
13.28
11.43
9.44
7.41
5.45
3.69
2.21
1.01
-0.02
-1.04
-2.16
-3.35
-4.48
-5.35
-5.85
-6.06
-6.27
-6.88
-8.18
-10.24
-12.82
-15.37
-17.25
-17.91
-17.01
-14.53
-10.72
-6.03
-1.02
3.81
8.01
11.30
13.58
14.84
15.23
14.91
14.06
12.88
11.54
10.22
9.08
8.22
7.66
7.38
7.28
7.24
7.19
7.04
6.81
6.49
6.12
5.67
5.08
4.21
2.94
1.17
-1.07
-3.66
-6.36
-8.90
-11.09
-12.88
-14.40
-15.86
-17.54
-19.65
-22.25
-25.19
-28.11
-30.54
-32.01
-32.23
-31.07
-28.62
-25.14
-20.95
-16.40
-11.82
-7.54
-3.82
-0.89
1.15
2.27
2.58
2.29
1.71
1.15
0.87
1.05
1.65
2.52
3.44
4.18
4.60
4.67
4.46
4.09
3.71
3.42
3.24
3.09
2.85
2.40
1.70
0.83
-0.05
-0.76
-1.25
-1.61
-2.06
-2.87
-4.23
-6.13
-8.35
-10.50
-12.07
-12.64
-11.97
-10.07
-7.15
-3.54
0.45
4.58
8.68
12.54
15.96
18.69
20.52
21.42
21.47
20.92
20.06
19.15
18.36
17.72
17.20
16.70
16.11
15.39
14.51
13.53
12.49
11.38
10.17
8.80
7.23
5.49
3.62
1.70
-0.17
-1.93
-3.52
-4.94
-6.23
-7.47
-8.80
-10.38
-12.31
-14.64
-17.24
-19.86
-22.09
-23.47
-23.63
-22.42
-19.92
-16.44
-12.39
-8.15
-4.00
-0.12
3.39
6.39
8.78
10.46
11.47
11.94
12.08
12.09
12.12
12.25
12.52
12.90
13.36
13.86
14.31
14.67
14.89
14.96
14.87
14.57
13.97
13.01
11.66
9.98
8.11
6.14
4.11
2.00
-0.27
-2.71
-5.28
-7.85
-10.30
-12.60
-14.83
-17.12
-19.62
-22.32
-25.01
-27.31
-28.76
-28.96
-27.73
-25.16
-21.58
-17.40
-13.06
-8.85
-4.98
-1.56
1.33
3.63
5.33
6.48
7.19
7.66
8.04
8.47
8.98
9.52
9.99
10.31
10.47
10.51
10.45
10.30
10.01
9.48
8.67
7.62
6.43
5.22
4.03
2.84
1.55
0.08
-1.55
-3.23
-4.84
-6.29
-7.56
-8.66
-9.68
-10.68
-11.77
-13.08
-14.71
-16.68
-18.81
-20.71
-21.82
-21.62
-19.81
-16.48
-12.04
-7.13
-2.31
2.02
5.70
8.76
11.30
13.36
14.93
15.98
16.49
16.53
16.24
15.82
15.46
15.32
15.49
15.92
16.45
16.89
17.02
16.75
16.09
15.18
14.16
13.17
12.21
11.20
10.02
8.58
6.93
5.21
3.56
2.09
0.77
-0.48
-1.78
-3.13
-4.48
-5.72
-6.83
-7.92
-9.18
-10.73
-12.49
-14.14
-15.19
-15.20
-13.95
-11.58
-8.50
-5.25
-2.22
0.42
2.70
4.78
6.77
8.67
10.33
11.60
12.40
12.75
12.76
12.63
12.55
12.63
12.87
13.17
13.35
13.22
12.65
11.68
10.46
9.21
8.09
7.06
5.96
4.57
2.80
0.74
-1.37
-3.26
-4.76
-5.89
-6.80
-7.70
-8.80
-10.24
-12.06
-14.19
-16.46
-18.50
-19.90
-20.27
-19.44
-17.53
-14.83
-11.74
-8.55
-5.41
-2.35
0.57
3.22
5.39
6.88
7.59
7.54
6.92
5.96
4.85
3.77
2.78
1.88
1.06
0.29
-0.46
-1.14
-1.70
-2.12
-2.33
-2.36
-2.22
-2.02
-1.89
-2.05
-2.71
-4.00
-5.89
-8.20
-10.62
-12.87
-14.76
-16.28
-17.49
-18.46
-19.12
-19.25
-18.57
-16.83
-13.99
-10.26
-6.02
-1.74
2.20
5.58
8.36
10.61
12.43
13.84
14.83
15.31
15.24
14.60
13.39
11.65
9.37
6.62
