1564763215.00
64.000000
-0.00
-0.00
-0.00
-0.00
-0.00
-0.00
-0.00
-0.00
-0.00
-0.00
0.00
0.01
0.01
-0.00
-0.03
-0.05
-0.05
0.00
0.13
0.36
0.66
1.01
1.37
1.72
2.06
2.40
2.79
3.24
3.80
4.44
5.10
5.74
6.33
6.90
7.49
8.19
9.06
10.20
11.55
12.98
14.35
15.57
16.63
17.69
18.98
20.70
23.15
26.17
29.50
32.80
35.81
38.53
41.28
44.56
48.80
54.52
61.43
68.98
76.48
83.39
89.66
95.78
102.62
110.97
121.64
134.26
147.94
161.47
173.88
184.90
195.14
206.30
217.71
232.25
250.83
273.32
297.79
320.39
336.07
340.12
329.88
305.72
271.24
230.88
188.48
145.88
102.86
58.41
12.28
-34.05
-77.89
-116.37
-148.66
-175.99
-201.16
-227.10
-255.48
-286.36
-318.57
-350.64
-380.97
-407.69
-428.13
-438.85
-436.81
-420.94
-393.45
-359.54
-325.51
-295.79
-271.30
-249.42
-226.13
-199.00
-169.07
-140.36
-117.59
-103.37
-96.36
-92.20
-85.94
-74.87
-60.19
-46.23
-37.87
-37.18
-41.75
-45.47
-41.71
-27.12
-3.88
20.90
38.78
44.37
38.20
26.36
16.90
15.39
21.80
31.02
36.26
33.42
23.61
12.37
6.20
8.61
17.93
28.62
34.54
32.50
24.26
15.14
10.89
14.41
24.22
35.36
42.41
42.55
37.03
30.34
27.24
29.72
35.62
39.77
36.98
25.51
8.53
-7.28
-15.11
-11.60
1.18
17.12
29.09
32.55
27.42
17.61
8.41
3.79
4.43
8.04
11.05
10.99
7.90
4.29
3.38
7.01
14.24
21.44
24.45
20.99
12.22
2.37
-3.51
-2.60
3.81
11.05
13.62
8.62
-2.28
-13.86
-20.05
-17.65
-8.20
2.92
9.69
8.89
2.05
-5.57
-8.35
-3.60
6.61
16.66
20.57
15.52
3.28
-10.73
-20.63
-23.33
-19.97
-15.22
-14.13
-18.97
-27.62
-34.68
-34.63
-25.12
-8.75
8.00
18.26
18.23
9.32
-2.91
-11.86
-13.72
-9.31
-3.43
-1.52
-6.24
-15.53
-23.65
-24.52
-15.38
1.48
19.69
32.17
35.00
29.28
20.21
13.70
12.85
16.21
18.97
16.19
6.18
-8.05
-20.17
-23.98
-16.98
-2.06
13.72
22.79
21.01
9.90
-4.21
-14.02
-15.29
-9.08
-0.82
3.35
0.56
-6.78
-12.58
-10.83
0.29
17.13
32.26
38.66
33.54
19.99
5.02
-4.33
-4.70
1.88
9.56
12.17
6.80
-4.35
-15.51
-20.52
-16.61
-5.92
5.70
12.26
11.20
4.86
-0.90
-0.59
7.63
20.54
31.76
35.37
29.38
16.83
3.88
-3.80
-4.17
0.47
5.26
6.05
1.90
-4.34
-8.00
-5.52
3.41
15.44
25.41
28.83
24.27
14.02
2.69
-5.02
-6.77
-3.49
1.33
3.90
2.43
-1.66
-4.65
-2.98
4.25
14.24
21.72
21.83
13.12
-1.44
-15.72
-23.85
-23.40
-16.63
-8.69
-4.40
-5.19
-8.20
-8.44
-1.99
11.18
26.81
38.56
41.41
34.38
20.99
7.28
-1.52
-3.48
-0.57
3.15
4.29
2.19
-0.69
-0.69
4.66
14.82
26.19
33.95
34.64
28.04
17.35
7.60
2.94
4.79
11.30
18.71
23.38
23.80
21.05
17.74
16.25
16.82
17.11
13.03
1.30
-18.08
-40.84
-59.68
-67.73
-61.93
-44.95
-23.87
-6.66
1.90
2.32
-0.70
-1.93
0.53
3.68
1.58
-10.39
-31.88
-56.63
-75.32
-80.53
-70.72
-50.84
-29.74
-15.34
-10.56
-12.47
-14.49
-10.82
0.04
14.57
26.40
30.39
25.88
17.01
10.22
10.30
17.30
26.37
30.68
25.51
11.51
-5.59
-17.90
-19.85
-11.17
3.05
15.49
20.71
17.99
11.33
6.52
7.52
13.82
20.80
22.58
15.75
1.83
-13.38
-22.73
-21.75
-11.15
3.58
15.11
18.52
13.83
5.68
0.23
1.29
7.81
14.65
15.66
7.75
-6.76
-21.27
-28.28
-23.67
-9.04
9.22
23.25
27.93
23.15
13.39
4.56
0.61
1.55
4.03
4.00
-0.36
-7.30
-12.48
-11.62
-3.31
9.72
21.75
26.90
22.22
9.39
-5.97
-17.18
-19.79
-13.77
-3.08
6.48
10.70
8.97
4.15
0.66
1.38
5.83
10.39
10.49
3.60
-8.82
-21.57
-28.36
-24.99
-11.92
5.65
20.17
25.43
19.59
6.01
-8.92
-19.17
-22.11
-19.47
-15.31
-13.19
-13.70
-14.32
-11.57
-3.79
7.05
16.10
18.17
11.12
-2.59
-16.77
-24.60
-22.22
-10.61
4.97
17.90
23.52
21.21
14.12
6.99
3.40
4.00
6.75
8.65
8.07
5.66
3.97
5.41
10.42
16.57
19.61
15.95
5.07
-9.40
-21.13
-24.27
-16.76
-1.87
13.15
20.71
16.90
3.61
-12.61
-24.28
-27.03
-21.81
-13.82
-9.10
-10.59
-16.37
-21.06
-19.11
-8.50
7.88
23.63
32.23
30.77
21.46
10.37
3.81
4.81
11.38
17.88
18.40
10.38
-3.75
-17.88
-25.61
-23.75
-13.93
-1.45
7.85
10.89
8.73
5.46
5.31
9.69
16.20
20.02
16.86
5.85
-9.43
-22.52
-27.34
-21.46
-7.44
8.40
19.21
21.12
14.97
5.44
-2.00
-4.35
-2.65
-0.98
-3.44
-11.18
-21.20
-27.82
-26.22
-15.52
0.15
13.51
17.90
11.02
-3.93
-19.91
-29.88
-30.32
-22.57
-11.55
-2.51
1.93
2.74
3.14
5.87
10.97
15.40
15.13
8.08
-3.83
-14.94
-18.86
-11.89
4.31
23.10
35.90
36.53
24.30
4.53
-13.87
-23.02
-19.72
-6.74
8.98
20.09
22.65
17.46
9.12
2.63
0.43
1.31
1.54
-2.05
-9.55
-17.45
-20.88
-16.72
-6.15
5.49
11.61
8.22
-3.47
-17.26
-25.17
-21.76
-7.27
12.43
28.75
34.94
29.37
15.94
1.82
-6.75
-7.34
-2.15
4.07
7.16
5.96
2.68
1.02
3.39
9.05
14.18
14.19
6.55
-7.21
-21.70
-30.34
-28.58
-16.50
1.09
16.97
25.18
23.92
16.03
7.01
1.58
0.87
2.10
0.67
-6.50
-18.44
-30.21
-35.48
-30.19
-15.24
3.61
18.49
23.60
17.96
5.88
-5.90
-11.93
-10.96
-6.14
-2.49
-3.38
-8.29
-13.10
-12.84
-5.16
7.68
19.70
24.34
18.25
3.46
-13.57
-25.18
-26.43
-17.60
-3.74
8.20
13.10
10.15
2.95
-3.21
-4.34
-0.19
5.93
9.45
7.66
1.42
-5.07
-6.98
-1.76
9.06
20.35
26.17
23.05
11.93
-2.36
-13.53
-17.25
-13.14
-4.55
3.52
7.42
6.75
4.10
3.28
6.60
13.15
19.16
19.94
12.84
-0.92
-16.23
-26.59
-27.30
-18.03
-3.15
10.52
17.18
14.91
6.41
-2.97
-8.48
-8.53
-5.43
-3.39
-5.39
-10.96
-16.27
-16.43
-8.99
4.02
16.76
22.50
17.65
3.84
-12.66
-24.21
-26.02
-18.49
-6.69
2.91
6.14
3.27
-1.72
-4.17
-1.91
3.28
6.89
4.72
-4.14
-16.21
-25.29
-25.80
-16.17
0.05
15.66
23.42
19.88
7.16
-8.18
-18.59
-19.46
-11.31
0.84
10.45
13.46
10.27
5.28
3.97
9.34
20.00
30.71
35.61
31.58
20.08
6.42
-3.48
-6.37
-3.50
0.46
0.38
-6.04
-16.58
-25.80
-28.11
-21.12
-7.15
7.93
17.70
18.66
11.90
2.22
-4.71
-5.66
-1.44
3.76
5.09
0.31
-8.56
-16.28
-17.35
-9.32
5.46
20.86
30.27
30.03
21.26
8.91
-1.20
-5.52
-4.49
-1.53
-0.55
-3.19
-7.76
-10.46
-7.99
-0.09
9.88
16.59
15.62
6.02
-8.71
-22.40
-29.17
-26.54
-16.41
-3.87
5.60
9.05
7.35
4.21
3.53
7.03
12.97
17.08
15.25
6.13
-7.57
-20.29
-26.53
-23.85
-14.35
-3.36
3.62
4.10
-0.05
-3.96
-2.82
4.93
16.32
25.54
27.28
19.79
6.11
-7.69
-15.83
-16.15
-11.07
-5.88
-5.36
-10.73
-18.76
-23.62
-20.51
-8.65
7.98
22.61
29.28
25.87
14.97
2.20
-6.95
-9.83
-7.58
-3.90
-2.41
-4.29
-7.70
-9.11
-5.59
3.10
13.82
21.73
22.88
16.46
5.56
-4.61
-9.60
-8.29
-3.45
-0.01
-1.81
-9.07
-17.94
-22.62
-18.83
-6.53
9.63
22.65
26.90
21.09
8.83
-3.40
-9.89
-8.66
-2.20
4.36
6.60
3.52
-2.05
-5.54
-3.69
3.05
10.50
13.24
7.88
-4.59
-19.09
-28.99
-29.76
-21.39
-8.30
3.18
8.35
6.69
1.76
-1.06
2.21
11.56
23.10
31.14
31.51
24.01
12.38
2.22
-2.27
-0.55
3.96
6.13
2.18
-7.86
-19.99
-28.53
-29.17
-21.49
-9.12
2.34
8.52
8.70
5.78
4.13
6.52
12.12
16.77
15.61
6.34
-8.83
-24.09
-32.82
-31.24
-20.43
-5.66
6.49
11.64
9.82
5.16
2.98
6.64
15.32
24.56
28.93
25.04
13.85
-0.04
-10.83
-14.82
-12.35
-7.40
-5.02
-8.19
-15.84
-23.17
-24.64
-17.16
-2.32
14.30
25.90
28.01
20.86
8.93
-1.47
-6.04
-4.57
-0.85
-0.07
-5.53
-16.27
-27.37
-32.79
-28.66
-15.88
0.35
13.34
18.29
15.04
7.60
1.60
0.61
4.16
8.01
7.20
-0.60
-13.28
-25.13
-29.96
-24.66
-11.17
4.66
16.17
19.51
15.63
9.18
5.55
7.33
12.77
16.89
14.63
4.08
-11.90
-26.99
-34.82
-32.31
-21.37
-7.83
1.94
4.48
1.01
-3.46
-3.38
3.95
16.83
30.00
37.58
36.37
27.35
14.84
4.04
-1.89
-3.21
-3.02
-4.92
-10.47
-17.89
-22.85
-21.02
-10.76
5.36
21.45
31.26
31.33
22.93
11.24
2.27
-0.48
2.06
5.44
4.73
-2.20
-13.21
-22.97
-26.30
-21.28
-10.32
0.98
7.30
6.66
1.67
-2.32
-0.49
8.07
19.53
27.39
26.18
14.95
-1.89
-16.95
-23.91
-20.97
-11.87
-3.58
-2.22
-9.65
-22.32
-33.49
-37.16
-31.29
-18.89
-6.00
1.66
2.06
-2.43
-6.45
-5.09
3.10
15.34
25.93
29.81
25.45
15.91
6.95
3.72
7.61
15.18
20.29
17.79
6.80
-8.42
-20.72
-24.05
-16.98
-3.25
10.33
17.96
17.88
13.04
8.71
8.95
13.74
19.08
19.42
11.45
-3.32
-19.10
-28.67
-27.56
-16.64
-1.68
9.72
12.50
6.91
-1.79
-6.78
-3.81
6.09
17.21
22.50
17.87
4.68
-11.07
-22.03
-23.75
-17.19
-7.92
-3.05
-7.05
-19.06
-33.18
-41.62
-38.72
-24.22
-3.27
15.99
26.74
26.84
19.52
11.30
7.94
11.38
18.97
25.41
26.31
20.89
12.41
5.77
4.42
7.93
12.43
12.99
6.75
-4.93
-17.30
-24.71
-24.02
-16.52
-7.18
-1.96
-4.42
-13.56
-24.23
-29.97
-26.44
-13.94
2.78
16.97
23.49
21.41
14.06
7.12
4.89
8.03
13.25
15.53
11.37
0.97
-11.60
-20.87
-23.11
-18.64
-11.42
-6.64
-7.62
-13.61
-20.48
-23.06
-18.48
-8.02
3.52
10.47
9.73
2.61
-5.76
-9.42
-4.96
6.48
19.84
28.86
29.66
22.67
12.20
3.91
1.48
4.62
9.33
10.52
5.13
-5.85
-17.87
-25.18
-24.17
-15.31
-2.96
7.12
11.02
8.76
4.10
1.99
5.29
12.92
20.25
21.90
15.10
1.58
-12.93
-21.64
-20.45
-10.20
3.71
14.27
16.66
10.74
0.75
-7.53
-10.36
-8.16
-4.91
-5.09
-10.38
-18.17
-22.97
-20.12
-9.11
5.60
16.74
18.49
10.05
-3.73
-15.01
-17.24
-8.88
6.03
20.28
27.71
26.63
20.31
14.67
14.38
19.92
27.21
29.95
23.57
8.15
-11.26
-27.01
-32.85
-27.21
-13.90
0.04
8.28
8.46
3.11
-2.27
-2.91
2.32
10.25
15.28
12.81
2.21
-12.69
-25.65
-31.29
-28.09
-18.73
-8.56
-2.25
-1.22
-3.18
-3.87
-0.12
7.77
15.81
18.54
12.42
-1.59
-18.05
-29.75
-31.60
-23.37
-9.85
2.06
7.22
5.00
-0.70
-4.05
-1.14
7.66
17.77
23.11
19.62
7.79
-7.45
-19.25
-22.49
-16.59
-5.44
4.74
9.09
6.93
1.82
-0.93
2.32
10.86
19.80
22.93
16.65
2.45
-13.42
-23.32
-22.39
-11.22
4.50
17.28
21.99
18.52
11.24
6.22
7.25
13.73
20.83
22.64
15.63
1.13
-15.13
-26.11
-27.31
-19.37
-7.58
1.28
2.89
-1.97
-8.09
-9.04
-1.35
12.87
26.97
33.39
28.17
13.29
-4.47
-17.28
-20.59
-15.35
-6.85
-1.22
-1.81
-7.23
-12.66
-13.01
-6.44
4.38
13.59
15.67
8.64
-4.65
-18.01
-25.31
-23.60
-14.51
-3.00
5.66
8.69
7.25
4.90
5.33
9.66
15.69
19.06
15.93
5.46
-9.28
-22.69
-29.46
-27.35
-18.56
-8.56
-3.04
-4.74
-11.87
-19.01
-20.27
-12.75
1.65
17.02
26.72
27.12
19.53
9.43
3.16
4.13
10.81
17.70
18.85
11.39
-2.39
-16.37
-24.08
-22.58
-14.08
-4.55
-0.08
-3.07
-10.86
-17.41
-16.97
-7.52
7.95
23.19
32.19
32.42
25.84
17.44
12.10
11.70
14.32
15.52
11.38
1.13
-12.13
-22.83
-26.20
-21.02
-10.44
-0.40
3.90
1.09
-5.60
-10.32
-8.44
0.50
12.12
19.65
17.97
6.71
-9.19
-22.34
-26.85
-21.51
-10.20
0.58
5.67
4.05
-0.84
-3.68
-0.86
6.98
15.06
17.32
10.27
-4.53
-20.94
-31.36
-31.07
-20.69
-5.67
6.69
11.33
8.00
0.77
-4.70
-4.76
0.18
6.17
8.46
4.58
-3.96
-12.17
-14.61
-8.29
5.39
21.20
32.68
35.38
28.93
16.98
5.04
-2.49
-4.14
-1.81
1.13
2.09
0.77
-0.78
0.10
4.56
10.90
15.31
13.78
4.79
-9.23
-22.64
-29.12
-25.06
-11.57
5.82
19.87
25.18
20.85
10.51
-0.09
-6.42
-7.50
-6.06
-6.07
-9.78
-15.96
-20.41
-18.62
-8.91
6.13
20.53
28.01
25.35
13.94
-0.87
-12.91
-18.20
-16.84
-12.35
-9.24
-10.09
-14.04
-17.32
-15.66
-7.09
6.50
20.17
28.28
27.44
18.36
5.49
-5.44
-10.58
-9.77
-6.56
-5.60
-9.47
-16.99
-23.58
-24.10
-16.19
-2.03
12.57
21.26
20.78
12.72
2.38
-4.44
-5.05
-1.20
2.06
0.01
-8.62
-20.46
-29.15
-29.09
-18.68
-1.73
14.61
23.68
22.95
15.26
7.14
4.90
11.05
22.99
34.53
39.61
35.93
26.07
15.59
9.72
9.95
13.39
14.61
9.27
-3.09
-18.43
-30.50
-34.35
-29.32
-19.50
-11.58
-10.99
-18.81
-31.02
-40.76
-42.07
-33.21
-17.53
-1.67
8.24
10.00
6.30
3.01
5.36
14.83
28.19
39.48
43.35
38.37
27.70
16.92
10.83
10.48
12.79
12.62
6.21
-6.26
-20.55
-30.62
-32.09
-24.66
-12.15
-0.39
5.96
5.80
1.72
-1.97
-1.93
1.96
6.67
7.79
2.46
-8.44
-20.44
-27.50
-25.44
-14.47
0.72
13.29
18.03
14.31
6.31
0.43
1.33
8.98
18.65
23.66
19.56
6.92
-8.89
-20.71
-23.82
-18.41
-9.15
-2.19
-1.27
-5.53
-10.23
-10.15
-3.07
8.36
18.03
19.80
11.26
-4.58
-20.74
-29.85
-28.00
-16.78
-2.11
9.06
12.56
9.08
3.22
0.47
3.54
10.65
16.48
15.60
6.02
-9.18
-23.06
-28.58
-22.43
-7.02
10.88
23.71
27.16
22.12
13.66
7.63
7.18
10.91
13.96
11.32
1.16
-13.53
-26.40
-31.29
-25.66
-12.27
2.49
12.16
13.92
9.83
5.26
5.34
11.57
20.93
27.59
26.48
16.53
1.38
-12.58
-19.89
-19.02
-13.22
-8.15
-8.52
-14.98
-23.53
-27.85
-23.25
-9.62
8.09
22.23
26.52
19.60
5.62
-7.97
-14.67
-12.18
-3.56
4.82
7.04
1.04
-10.40
-21.23
-25.67
-21.56
-11.24
-0.07
6.79
7.46
4.20
1.78
4.32
12.66
23.62
31.78
32.69
25.42
13.22
1.72
-4.37
-3.81
0.53
3.53
0.94
-7.86
-19.25
-27.41
-27.60
-18.95
-5.11
7.78
14.56
13.79
8.31
3.34
3.12
8.19
15.17
18.71
14.80
3.47
-11.02
-22.27
-25.36
-19.48
-8.33
2.02
6.60
4.45
-0.95
-4.02
-0.50
9.61
21.82
29.59
28.19
17.59
2.58
-9.91
-14.83
-11.92
-5.69
-2.71
-7.29
-18.69
-31.25
-37.41
-32.26
-16.44
3.85
20.22
26.55
22.33
12.46
4.33
3.27
9.54
18.47
23.40
19.88
8.37
-6.05
-16.88
-19.89
-15.61
-8.52
-4.27
-6.11
-12.90
-20.03
-22.06
-16.09
-3.41
11.18
21.92
25.27
21.63
14.87
9.87
9.54
13.13
16.56
14.93
5.58
-9.96
-26.54
-37.89
-40.20
-34.16
-24.39
-16.76
-14.90
-18.19
-22.25
-21.90
-14.31
-1.02
13.08
22.37
23.89
19.00
12.58
10.09
14.36
24.00
34.14
39.41
37.10
28.58
18.59
12.20
11.73
15.39
18.17
15.02
4.04
-11.96
-26.91
-34.64
-32.36
-22.36
-10.60
-3.44
-3.97
-10.24
-16.58
-17.02
-9.09
4.65
17.81
23.92
20.28
9.41
-2.33
-8.76
-7.47
-1.33
3.37
0.94
-10.07
-25.56
-38.26
-41.68
-33.98
-18.86
-3.45
5.77
6.52
1.76
-2.35
-0.47
8.92
22.37
33.58
36.92
30.62
17.72
4.21
-4.35
-5.97
-2.85
0.14
-1.35
-8.18
-17.20
-22.98
-21.11
-10.86
4.13
17.76
24.85
23.82
17.49
11.00
8.80
11.98
17.68
21.04
18.26
9.13
-2.88
-12.52
-16.11
-13.75
-9.30
-7.93
-12.77
-22.73
-32.73
-36.44
-29.92
-14.12
5.41
21.25
27.96
24.84
15.91
7.39
3.93
5.97
9.74
9.78
2.71
-10.37
-24.04
-31.61
-28.96
-17.02
-1.40
10.88
15.32
12.30
6.37
3.15
5.79
12.90
19.59
20.34
12.59
-1.60
-16.39
-25.13
-23.85
-13.06
2.40
16.02
22.79
21.53
15.06
8.19
4.74
5.39
7.27
6.12
-0.63
-11.77
-22.49
-27.01
-22.18
-9.74
4.15
12.12
9.65
-2.20
-17.43
-28.24
-29.27
-20.44
-6.43
6.06
12.27
11.79
8.05
5.72
7.33
11.55
13.89
9.79
-2.10
-18.34
-31.89
-35.89
-27.43
-9.34
11.01
25.57
29.68
24.11
14.00
5.44
2.01
2.94
4.36
2.26
-4.48
-13.06
-18.41
-16.23
-5.74
9.39
23.06
29.74
27.40
18.61
8.73
2.90
2.95
6.61
8.87
5.37
-4.74
-18.01
-28.22
-30.04
-21.98
-7.30
7.63
16.70
17.32
11.22
3.19
-2.09
-2.56
0.10
2.11
0.15
-6.24
-14.05
-18.63
-16.24
-6.42
7.35
19.56
25.60
24.18
18.03
12.28
11.13
15.42
21.91
25.25
21.20
9.45
-6.06
-19.15
-24.94
-22.63
-15.75
-10.10
-10.07
-15.84
-23.25
-26.22
-20.63
-6.92
9.54
21.37
23.13
14.32
-0.19
-13.11
-18.64
-15.66
-8.07
-2.09
-2.23
-8.55
-16.59
-20.15
-15.23
-2.55
12.67
23.49
25.01
16.99
3.85
-7.84
-13.05
-10.78
-4.37
0.84
1.01
-3.82
-9.53
-10.72
-4.05
8.95
22.34
28.75
23.68
8.41
-10.45
-24.38
-27.64
-20.06
-6.97
4.32
8.83
6.40
1.43
-0.48
3.87
12.99
21.71
24.12
17.37
3.28
-12.35
-22.94
-24.52
-17.64
-6.93
1.77
4.68
1.99
-2.62
-4.62
-1.55
5.07
10.69
10.53
2.72
-9.87
-21.14
-24.79
-18.18
-3.67
12.52
23.74
26.43
21.59
13.70
7.55
5.44
5.98
5.54
0.99
-7.72
-17.20
-22.23
-18.92
-7.12
9.01
22.86
28.48
23.59
10.84
-3.62
-13.15
-13.90
-6.50
4.46
13.29
16.18
13.20
7.82
4.38
5.12
8.54
10.34
6.25
-4.77
-19.19
-30.34
-32.03
-22.12
-4.15
14.19
24.92
24.07
13.51
-0.27
-9.99
-11.77
-7.13
-1.60
-0.98
-7.29
-17.23
-24.00
-21.66
-9.07
8.99
24.06
28.89
21.59
6.50
-8.27
-15.68
-13.62
-5.54
1.98
3.62
-1.38
-8.92
-12.73
-8.57
2.95
16.29
24.17
21.57
8.82
-8.48
-22.50
-27.34
-22.18
-11.32
-1.41
2.52
-0.00
-5.04
-6.83
-1.95
8.35
18.54
22.15
15.64
0.99
-15.23
-25.30
-24.71
-14.60
-1.01
8.74
10.27
4.57
-3.00
-6.03
-1.25
9.60
20.59
25.15
19.95
6.81
-8.22
-18.19
-19.15
-12.05
-1.89
5.41
6.53
2.68
-1.50
-0.93
6.55
18.61
29.56
33.35
27.10
12.69
-4.10
-16.63
-21.09
-18.20
-12.68
-10.02
-13.05
-20.00
-25.50
-23.80
-12.65
4.93
21.99
31.20
28.98
17.41
2.82
-7.85
-11.02
-8.04
-3.93
-3.74
-9.22
-17.56
-22.93
-20.26
-8.51
8.07
22.09
26.77
19.82
4.85
-10.70
-19.37
-17.74
-7.94
3.94
11.60
12.17
7.62
3.09
3.50
10.15
19.70
26.12
24.25
13.09
-3.26
-17.71
-24.07
-20.60
-10.92
-1.83
0.67
-4.92
-14.79
-22.10
-21.06
-10.51
5.14
18.36
22.67
16.15
2.50
-11.37
-19.12
-18.39
-11.79
-4.85
-2.51
-5.98
-12.07
-15.30
-11.51
-0.70
12.43
21.00
20.08
9.68
-4.73
-15.17
-15.44
-4.62
12.24
26.93
32.31
26.23
12.45
-1.61
-9.01
-6.89
2.28
12.50
17.73
15.29
6.93
-2.64
-8.82
-9.96
-8.03
-7.03
-9.99
-16.49
-22.50
-22.83
-14.59
0.42
15.84
23.99
20.24
5.82
-12.28
-24.80
-25.08
-12.70
6.38
23.06
29.93
25.11
12.70
0.13
-6.24
-4.57
2.01
7.87
8.60
3.82
-2.73
-5.83
-2.37
6.43
15.32
18.08
11.24
-3.53
-19.94
-30.29
-29.61
-18.32
-1.96
11.88
17.62
14.51
6.39
-1.06
-3.87
-1.96
1.24
1.49
-3.13
-10.65
-16.26
-15.11
-5.63
9.25
23.36
30.48
27.59
16.39
2.23
-8.98
-13.94
-13.31
-10.80
-10.37
-13.38
-17.64
-18.95
-14.02
-3.15
9.20
16.73
14.84
3.55
-11.92
-23.82
-25.87
-16.60
-0.08
16.24
25.52
24.92
16.61
6.01
-1.50
-3.65
-2.16
-1.06
-3.66
-10.10
-16.97
-19.30
-13.81
-1.27
13.65
24.51
26.65
19.69
7.58
-3.59
-9.10
-7.98
-3.38
-0.24
-2.29
-9.50
-18.03
-22.50
-19.18
-8.25
6.04
17.65
22.06
18.62
10.78
3.75
1.38
3.89
7.85
8.50
2.99
-7.58
-18.47
-23.85
-20.03
-7.87
7.80
20.35
24.92
20.71
11.01
1.10
-4.69
-5.17
-2.47
-0.13
-0.77
-4.24
-7.75
-7.69
-2.13
7.69
17.53
22.36
19.05
8.20
-5.78
-16.85
-20.27
-15.01
-3.93
7.55
14.44
14.63
9.44
2.60
-2.36
-4.05
-3.95
-4.87
-8.72
-14.80
-19.83
-20.00
-13.67
-2.93
7.00
10.66
5.70
-5.61
-17.23
-22.64
-18.49
-6.26
8.52
19.60
23.29
20.03
13.59
8.32
6.55
7.23
7.25
3.72
-3.61
-11.74
-16.00
-12.65
-1.51
13.65
26.42
31.00
24.97
10.64
-5.88
-17.71
-20.39
-14.06
-2.98
6.79
10.72
8.03
1.66
-3.96
-5.82
-4.25
-2.48
-4.12
-10.43
-18.90
-24.33
-22.19
-11.61
3.48
16.10
19.87
12.76
-1.74
-16.29
-23.49
-19.95
-7.75
6.81
16.85
18.51
12.64
3.85
-2.55
-3.60
-0.13
4.33
6.13
4.02
-0.09
-2.36
0.30
7.93
16.96
21.90
18.54
6.65
-9.22
-21.63
-24.09
-14.75
2.43
19.25
27.50
23.22
8.64
-9.19
-22.35
-26.17
-21.41
-12.93
-6.32
-4.27
-5.32
-5.55
-1.81
5.51
12.51
14.16
7.97
-3.90
-15.39
-19.90
-14.14
-0.37
14.78
23.68
21.76
10.03
-5.65
-17.51
-19.95
-12.14
1.90
15.58
23.24
22.77
16.26
8.22
2.60
0.66
0.47
-1.22
-6.38
-13.83
-19.56
-19.25
-11.18
2.01
14.18
18.80
12.68
-2.08
-18.78
-29.63
-29.67
-19.42
-4.25
8.67
14.23
11.89
5.34
-0.11
-1.03
2.11
5.52
4.62
-2.67
-14.32
-24.86
-28.42
-22.04
-7.52
9.27
21.43
24.60
19.07
9.36
1.38
-0.87
2.67
8.64
12.65
12.31
8.56
5.00
5.23
10.45
18.07
23.14
21.17
10.98
-4.13
-17.78
-23.80
-19.51
-7.28
6.59
15.41
15.57
8.30
-1.34
-7.75
-8.21
-4.31
-0.78
-2.35
-10.50
-22.18
-31.47
-32.79
-24.18
-8.55
7.69
17.79
18.17
10.05
-1.31
-9.76
-11.44
-6.97
-0.79
1.90
-1.47
-8.87
-14.72
-13.29
-2.64
13.64
27.77
32.15
23.63
5.61
-13.76
-26.04
-27.07
-18.90
-7.84
-0.46
0.29
-3.38
-6.35
-4.22
3.33
12.16
15.97
10.46
-3.67
-20.63
-32.25
-32.55
-20.86
-2.18
15.63
26.05
27.26
22.45
17.23
15.91
18.69
21.76
20.02
10.78
-4.11
-18.71
-26.37
-23.40
-11.23
4.20
15.94
19.77
16.15
9.61
5.50
6.55
11.12
14.47
11.71
1.29
-13.75
-27.17
-32.73
-27.76
-14.48
1.19
12.71
16.22
12.27
5.07
-0.33
-1.06
2.04
4.89
3.00
-5.42
-18.04
-29.11
-32.65
-25.86
-10.79
6.41
18.89
22.54
18.05
9.95
3.61
2.15
4.79
7.92
7.64
2.53
-5.45
-11.96
-12.83
-6.58
4.59
15.71
21.63
19.67
10.90
-0.37
-9.00
-11.65
-8.27
-1.70
4.35
7.54
8.21
8.63
11.13
15.86
20.19
20.11
12.93
-0.51
-15.30
-24.65
-23.63
-12.05
4.84
18.78
22.99
15.89
2.07
-10.28
-14.02
-7.08
6.73
20.07
26.60
24.52
17.10
10.39
9.27
14.82
23.85
31.40
33.97
31.47
27.19
25.39
28.61
35.69
42.09
41.82
29.84
4.02
-34.32
-81.08
-130.61
-176.85
-214.30
-239.02
-249.48
-246.86
-234.63
-217.14
-197.63
-176.96
-153.22
-123.08
-83.11
-31.68
29.73
96.24
159.54
209.03
233.81
225.71
182.85
112.09
28.88
-46.53
-95.36
-107.27
-83.85
-37.57
13.66
53.93
74.91
77.36
68.37
56.64
48.23
45.12
46.60
51.88
61.80
78.64
104.27
138.18
176.95
215.11
247.09
269.13
279.70
278.83
266.83
244.03
211.80
173.96
137.06
108.31
92.33
88.29
89.66
87.07
72.71
43.57
1.72
-47.79
-100.08
-151.39
-197.93
-234.06
-252.62
-247.84
-219.55
-175.14
-127.31
-88.51
-65.37
-56.81
-56.63
-58.94
-62.33
-70.03
-86.03
-110.26
-136.75
-156.23
-161.85
-153.91
-140.36
-132.51
-138.37
-157.84
-182.68
-201.22
-204.62
-191.16
-166.18
-137.86
-112.20
-89.71
-66.11
-35.87
3.69
50.35
97.89
139.13
169.32
187.82
197.23
201.00
200.95
196.16
184.16
163.10
133.85
100.37
67.91
40.20
17.66
-2.24
-22.45
-43.59
-62.78
-74.91
-75.58
-63.82
-42.62
-17.37
6.82
27.02
42.58
53.72
59.89
59.36
50.31
32.72
9.57
-13.62
-30.76
-37.52
-32.86
-19.23
-1.49
15.18
27.17
33.50
35.51
35.42
34.36
31.15
22.61
5.66
-20.11
-50.87
-79.26
-97.49
-101.00
-90.71
-72.37
-53.19
-38.00
-27.18
-17.56
-5.61
9.44
24.62
34.79
35.87
27.31
12.35
-4.16
-18.50
-29.86
-39.90
-50.34
-60.49
-66.19
-61.19
-40.45
-3.59
43.56
90.27
124.80
139.11
132.03
109.55
82.06
59.77
48.98
50.41
60.30
73.14
84.30
90.97
91.61
84.90
69.26
43.93
10.48
-26.33
-59.52
-82.35
-91.24
-87.35
-75.90
-63.51
-55.15
-52.24
-52.81
-53.51
-52.10
-49.07
-47.32
-50.27
-59.22
-71.60
-81.21
-80.67
-64.86
-33.89
6.55
47.47
80.49
101.43
111.34
114.87
116.91
119.91
123.22
124.92
124.29
123.38
126.16
135.94
152.77
172.52
188.35
193.93
186.40
167.41
142.03
116.22
94.26
77.69
65.71
56.60
48.96
42.18
36.18
30.73
25.10
18.03
8.11
-5.91
-24.80
-48.47
-75.73
-104.60
-133.08
-160.15
-186.30
-212.79
-240.19
-266.61
-287.25
-295.76
-286.79
-258.68
-214.68
-162.11
-109.77
-65.12
-32.47
-12.43
-2.60
1.16
3.70
9.66
22.58
44.05
73.23
106.80
139.70
166.40
182.52
186.17
178.48
163.21
145.35
129.39
117.88
110.95
106.59
101.82
93.67
79.75
58.52
29.57
-5.94
-45.05
-83.28
-115.82
-139.13
-152.13
-156.26
-154.27
-148.26
-138.16
-121.62
-95.44
-57.94
-10.97
39.70
85.79
119.29
135.28
133.45
117.65
93.76
66.81
38.93
9.07
-25.02
-64.22
-106.12
-145.21
-175.24
-192.25
-196.26
-190.65
-179.77
-166.71
-152.69
-138.01
-123.59
-111.41
-103.28
-98.59
-92.93
-78.83
-49.02
-0.30
64.02
134.54
199.05
246.90
272.49
276.40
264.23
243.97
223.11
206.63
196.18
190.43
186.24
179.88
167.69
146.47
113.61
67.83
10.45
-53.57
-115.83
-166.17
-196.40
-203.56
-191.40
-168.75
-145.06
-125.50
-108.34
-86.42
-51.95
-2.41
56.54
112.57
152.04
166.28
155.21
126.70
92.20
61.47
38.94
23.37
10.53
-3.57
-20.54
-39.94
-61.00
-83.91
-109.84
-139.32
-170.61
-199.37
-220.39
-230.14
-228.96
-220.99
-212.27
-208.06
-211.00
-220.67
-234.57
-249.60
-262.75
-271.50
-273.85
-268.73
-256.58
-239.87
-222.35
-207.50
-196.97
-189.32
-180.11
-163.07
-132.10
-83.89
-20.06
52.46
122.77
179.43
214.65
227.13
222.37
209.86
198.54
192.98
192.50
192.69
188.25
175.43
152.35
118.76
76.19
28.20
-19.12
-57.41
-78.77
-79.43
-61.46
-32.67
-2.76
21.43
39.74
56.41
77.86
108.75
149.37
196.24
243.45
284.05
314.70
333.65
338.55
325.97
292.11
234.76
157.06
67.03
-23.37
-99.70
-151.19
-173.84
-170.00
-145.71
-110.73
-70.26
-27.10
15.81
53.52
80.10
89.72
80.55
56.10
23.69
-8.37
-34.89
-54.58
-68.71
-79.31
-87.34
-92.03
-92.14
-87.37
-78.68
-68.46
-59.15
-52.00
-47.11
-43.96
-42.26
-42.23
-44.19
-47.48
-50.50
-51.17
-48.10
-41.79
-34.68
-29.80
-28.63
-29.80
-29.41
-23.51
-10.69
6.60
23.19
33.88
36.48
32.81
27.32
24.19
24.78
27.06
27.18
22.29
12.69
1.80
-5.81
-7.10
-2.30
5.25
11.07
11.84
7.07
-1.03
-8.83
-13.19
-12.94
-9.24
-4.76
-2.08
-2.18
-3.82
-4.18
-0.58
7.76
18.98
29.34
35.11
34.65
29.33
22.60
18.01
17.17
19.13
21.16
20.79
17.36
12.40
8.56
7.91
10.63
14.84
17.78
17.25
12.99
6.62
0.74
-2.63
-3.10
-1.99
-1.37
-2.57
-5.34
-7.91
-8.20
-5.21
0.16
5.45
8.07
6.81
2.63
-1.87
-3.90
-2.12
2.71
8.15
11.44
11.02
7.31
2.39
-1.10
-1.31
1.86
6.82
11.18
12.98
11.64
8.10
4.08
1.02
-0.70
-1.92
-3.99
-7.76
-12.89
-18.00
-21.43
-22.21
-20.67
-18.17
-16.23
-15.64
-15.89
-15.60
-13.32
-8.58
-2.23
3.97
8.38
10.51
11.37
12.98
17.20
24.52
33.62
41.91
46.95
47.83
45.77
43.38
43.11
45.72
49.78
52.44
50.91
43.71
31.23
15.15
-2.38
-19.36
-34.17
-45.37
-51.69
-52.35
-47.54
-38.75
-28.39
-19.04
-12.43
-9.04
-8.17
-8.42
-8.34
-6.83
-3.47
1.38
6.67
10.86
12.49
10.89
6.62
1.49
-2.36
-3.34
-1.35
2.18
5.20
6.20
5.16
3.53
3.30
5.74
10.51
15.75
19.01
18.64
14.57
8.35
2.22
-2.08
-4.13
-4.76
-5.30
-6.56
-8.28
-9.39
-8.96
-7.01
-4.85
-4.41
-6.97
-12.08
-17.37
-19.59
-16.36
-7.52
4.48
15.68
22.50
23.48
19.80
14.55
10.92
10.56
12.93
15.94
17.37
16.25
13.30
10.28
8.78
9.22
10.62
11.41
10.44
7.74
4.49
2.19
1.75
2.89
4.24
4.22
1.91
-2.35
-7.19
-10.79
-11.91
-10.56
-7.98
-6.07
-6.36
-9.01
-12.79
-15.58
-15.76
-13.38
-10.41
-9.68
-12.89
-19.15
-24.91
-25.86
-19.44
-6.58
8.53
20.72
26.54
25.73
20.87
15.40
11.65
9.82
8.55
6.47
3.48
1.21
1.99
7.38
16.96
27.90
36.10
37.74
31.05
17.44
0.98
-13.07
-20.68
-20.60
-14.65
-6.40
0.93
5.83
8.70
10.80
12.89
14.54
14.59
12.24
8.04
4.11
3.12
6.79
14.73
24.29
31.71
33.97
30.11
21.62
11.55
2.93
-2.44
-4.61
-5.00
-5.19
-5.97
-6.86
-6.73
-4.59
-0.67
3.45
5.56
4.00
-1.20
-8.15
-13.88
-15.85
-13.48
-8.49
-4.17
-3.42
-7.18
-13.83
-20.13
-23.13
-21.85
-17.85
-14.20
-13.49
-16.22
-20.54
-23.27
-21.91
-16.01
-7.41
0.80
5.97
7.16
5.47
3.18
2.36
3.60
5.78
6.81
5.07
0.56
-4.91
-8.62
-8.52
-4.51
1.38
5.97
6.74
3.27
-2.51
-7.25
-8.17
-4.44
2.28
8.79
11.99
10.45
4.86
-2.48
-9.08
-13.61
-16.31
-18.64
-21.97
-26.65
-31.54
-34.75
-34.87
-31.98
-27.75
-24.55
-23.90
-25.52
-27.42
-27.04
-22.98
-15.98
-8.60
-3.78
-2.93
-5.10
-7.44
-6.89
-2.00
6.02
13.99
18.59
18.22
14.08
9.52
8.33
12.47
21.02
30.61
37.33
39.08
36.71
33.42
32.73
36.42
43.28
49.78
51.81
46.77
34.74
18.13
0.50
-14.70
-24.84
-28.32
-24.48
-13.81
1.36
16.74
26.59
25.63
11.34
-14.53
-45.95
-74.67
-93.57
-99.42
-93.44
-80.20
-64.73
-50.14
-36.97
-23.69
-7.84
13.05
41.16
77.99
123.23
173.70
222.91
262.18
283.47
282.51
260.39
222.75
177.29
130.95
88.68
53.68
28.14
13.66
10.33
15.63
24.05
28.20
21.29
-0.03
-33.94
-73.72
-109.90
-134.06
-142.03
-135.10
-118.69
-99.09
-80.45
-63.58
-47.28
-30.89
-16.38
-8.03
-9.48
-20.63
-36.47
-49.26
-52.77
-45.90
-33.13
-21.64
-17.08
-20.38
-27.64
-32.50
-29.70
-17.77
0.22
18.01
28.82
28.14
15.50
-5.37
-28.12
-46.52
-57.08
-60.13
-58.95
-57.31
-57.14
-57.93
-58.06
-56.89
-55.93
-57.80
-63.88
-72.32
-78.22
-76.15
-63.38
-41.87
-17.42
3.20
15.42
18.63
15.39
9.29
2.79
-3.60
-10.57
-18.33
-25.10
-27.09
-20.08
-1.68
26.93
60.87
93.07
117.07
129.15
129.47
121.12
108.35
94.72
82.01
70.46
59.31
47.17
31.82
10.26
-20.42
-61.06
-108.62
-155.64
-192.13
-209.26
-202.83
-175.31
-134.84
-92.08
-56.59
-34.33
-27.02
-33.10
-48.79
-68.78
-86.62
-95.38
-89.49
-66.91
-30.53
12.42
52.96
83.46
100.08
103.07
95.45
80.98
62.90
43.81
26.04
11.89
3.01
-0.48
-0.46
0.05
-1.45
-5.44
-10.21
-13.21
-13.08
-10.82
-9.39
-11.97
-19.89
-31.77
-44.11
-53.19
-56.81
-55.12
-50.27
-45.30
-42.60
-43.03
-45.34
-46.43
-42.41
-30.15
-9.01
18.25
45.58
65.34
70.77
58.33
29.34
-10.00
-49.99
-80.15
-92.57
-84.93
-61.81
-33.37
-11.74
-6.31
-20.16
-49.42
-85.51
-119.13
-143.65
-156.71
-159.24
-153.42
-140.86
-122.01
-96.61
-64.99
-28.97
8.19
42.34
69.56
87.09
94.15
91.71
82.08
68.00
51.80
35.72
21.70
11.17
4.93
3.12
5.21
10.56
18.64
29.05
42.22
59.06
80.67
107.72
140.92
180.60
226.09
274.98
322.42
362.92
391.33
403.58
397.17
371.51
327.93
270.32
208.07
148.69
98.90
63.07
41.16
28.49
17.42
-0.75
-31.08
-73.84
-125.46
-179.79
-230.73
-274.53
-309.73
-336.11
-353.60
-361.72
-360.01
-349.02
-331.29
-308.21
-281.26
-251.48
-218.72
-181.63
-138.58
-90.21
-41.52
-0.82
23.09
24.78
5.52
-26.14
-57.72
-77.57
-79.67
-64.65
-36.30
1.97
49.02
105.29
170.28
240.00
307.75
364.25
402.60
421.94
426.67
422.29
411.46
392.22
359.96
312.61
256.96
201.54
155.40
124.49
108.80
102.42
96.28
79.97
48.46
2.50
-53.19
-111.20
-164.27
-207.09
-236.25
-249.19
-244.18
-218.68
-171.66
-106.05
-28.68
50.42
120.48
173.49
205.27
217.02
213.69
201.00
180.10
149.21
106.83
54.78
-0.99
-52.47
-93.04
-120.22
-137.58
-152.84
-172.97
-200.51
-232.97
-264.76
-290.83
-309.04
-320.54
-328.40
-335.27
-341.34
-344.38
-341.53
-331.36
-314.72
-294.69
-274.91
-258.15
-244.70
-233.02
-218.44
-195.52
-159.92
-109.14
-42.87
36.80
125.15
215.10
298.52
367.54
416.82
445.17
455.83
454.31
445.42
431.45
412.15
386.35
353.71
316.88
277.83
237.20
193.70
144.70
87.64
21.37
-52.88
-131.13
-206.61
-271.17
-316.47
-336.44
-329.63
-299.96
-255.42
-205.05
-155.59
-109.33
-64.90
-19.53
28.02
75.73
119.49
155.46
182.28
201.53
215.85
226.40
231.45
226.73
207.19
170.06
117.14
55.34
-4.87
-52.51
-79.86
-85.02
-72.61
-51.99
-33.54
-24.98
-29.11
-44.19
-66.25
-91.33
-116.13
-137.44
-151.53
-154.92
-146.38
-128.82
-108.95
-94.11
-88.22
-89.10
-89.69
-82.21
-63.19
-35.79
-8.15
11.67
20.52
21.96
23.59
32.04
48.45
67.42
79.94
78.48
61.27
33.42
4.19
-17.67
-28.21
-29.71
-29.01
-33.52
-47.02
-67.37
-87.46
-98.72
-95.84
-79.79
-57.72
-39.33
-31.73
-35.69
-45.62
-53.45
-53.93
-47.90
-41.59
-42.09
-52.45
-69.22
-84.29
-89.76
-82.48
-65.67
-46.55
-32.03
-24.93
-23.01
-21.02
-14.09
-0.65
16.95
33.89
45.61
50.03
48.31
43.65
39.19
36.13
33.30
28.45
20.19
9.62
0.08
-4.55
-2.41
4.82
12.40
14.93
9.36
-3.28
-18.38
-30.26
-35.06
-32.33
-24.88
-17.01
-12.47
-13.06
-18.13
-24.96
-29.59
-27.77
-16.66
3.30
27.03
45.52
48.58
29.31
-12.24
-68.23
-125.46
-169.87
-190.92
-184.07
-150.91
-97.82
-34.07
30.09
85.15
124.28
144.96
149.82
145.49
139.65
137.65
140.21
143.63
141.35
126.89
96.53
51.43
-1.67
-51.44
-84.55
-89.56
-60.25
1.72
87.29
182.97
275.78
357.45
426.25
482.93
529.28
566.00
591.11
600.64
591.10
561.99
516.73
461.15
405.41
352.29
298.65
238.38
166.44
81.73
-12.11
-108.02
-197.43
-272.29
-326.16
-355.05
-359.30
-344.81
-322.78
-306.42
-306.18
-324.97
-356.43
-387.53
-403.25
-392.95
-354.90
-296.97
-233.12
-177.39
-138.01
-114.73
-100.51
-85.97
-65.07
-38.80
-14.06
0.72
1.15
-10.43
-26.72
-40.75
-50.67
-61.35
-80.74
-113.68
-156.94
-199.04
-225.07
-223.57
-192.12
-137.91
-74.21
-14.51
32.21
63.50
82.03
92.74
100.33
108.16
118.52
133.14
153.01
177.87
205.71
232.86
254.60
265.35
259.47
232.84
184.77
119.41
45.53
-25.75
-84.94
-127.59
-154.82
-173.16
-190.93
-214.37
-245.47
-282.45
-322.00
-361.62
-399.89
-435.94
-468.49
-495.19
-513.30
-521.13
-518.99
-508.66
-494.19
-476.94
-455.53
-426.48
-385.66
-330.34
-260.79
-180.77
-96.12
-12.95
64.99
137.15
205.93
275.29
348.85
427.67
507.84
581.85
639.82
672.47
673.24
640.22
577.18
493.37
402.05
317.83
253.34
215.48
203.68
210.36
224.01
233.63
232.36
218.53
194.02
161.43
121.96
76.03
25.54
-23.88
-62.88
-81.43
-73.57
-41.13
5.50
49.94
75.61
71.39
35.37
-24.76
-95.25
-161.56
-213.21
-246.13
-262.02
-265.30
-259.87
-247.23
-226.97
-198.88
-165.10
-130.29
-99.91
-77.46
-62.45
-50.11
-32.97
-4.03
39.92
96.50
157.94
213.35
252.29
267.79
257.91
225.06
173.97
109.64
37.01
-38.12
-108.13
-163.78
-196.36
-200.21
-175.21
-127.26
-66.81
-5.69
46.44
84.24
107.38
119.44
126.24
132.73
142.26
155.38
170.06
182.87
190.46
193.01
190.98
184.66
173.09
153.98
124.36
81.35
26.28
-34.06
-88.01
-123.22
-131.23
-112.07
-75.11
-35.64
-8.83
-3.76
-21.13
-55.00
-96.75
-137.79
-170.52
-187.84
-183.52
-154.20
-101.96
-35.83
30.54
83.68
115.77
126.59
122.08
110.09
96.51
84.02
73.23
64.94
61.09
64.00
74.36
89.90
105.67
116.01
117.43
110.28
98.49
87.50
81.31
80.21
80.52
75.83
59.79
28.49
-18.46
-77.97
-144.07
-208.84
-263.17
-298.79
-311.16
-301.96
-279.83
-258.10
-249.82
-262.03
-292.29
-329.07
-356.92
-363.58
-345.20
-307.13
-260.20
-214.74
-174.76
-138.98
-102.49
-60.67
-12.49
38.33
85.56
123.96
152.24
172.91
189.66
204.80
217.56
224.88
223.44
211.98
192.39
169.14
147.29
130.43
119.61
113.21
108.11
101.16
90.73
77.26
62.84
50.06
40.65
34.97
31.99
29.84
26.77
21.87
15.41
8.52
2.52
-1.73
-4.12
-5.24
-6.00
-7.23
-9.25
-11.80
-14.27
-16.01
-16.73
-16.58
-16.10
-15.88
-16.34
-17.48
-18.88
-19.86
-19.89
-18.77
-16.89
-15.07
-14.13
-14.63
-16.46
-18.89
-20.83
-21.33
-20.04
-17.39
-14.52
-12.63
-12.54
-14.56
-18.53
-23.71
-28.73
-31.43
-29.60
-22.04
-9.79
3.59
13.13
14.76
7.44
-6.08
-20.71
-31.33
-35.45
-33.98
-30.16
-27.63
-28.73
-34.02
-42.36
-51.26
-57.11
-55.77
-43.75
-20.02
12.50
47.83
78.86
100.15
110.23
111.48
108.28
104.65
102.87
103.39
105.60
108.22
109.16
105.59
94.46
74.05
45.47
13.03
-17.41
-40.57
-53.91
-58.19
-56.33
-51.52
-45.96
-40.52
-35.49
-31.27
-28.57
-27.91
-29.10
-31.04
-32.24
-31.53
-28.55
-24.03
-19.34
-15.81
-14.19
-14.35
-15.48
-16.37
-16.12
-14.37
-11.52
-8.36
-5.76
-4.24
-3.81
-4.02
-4.21
-3.83
-2.63
-0.78
1.34
3.31
4.85
5.92
6.73
7.55
8.59
9.92
11.45
13.01
14.47
15.87
17.27
18.85
20.66
22.65
24.60
26.29
27.62
28.68
29.80
31.29
33.42
36.11
38.92
41.08
41.89
40.87
38.02
33.76
28.61
22.96
16.81
9.67
0.82
-10.34
-23.70
-38.43
-52.64
-64.97
-74.34
-80.45
-83.86
-85.69
-87.07
-88.97
-92.35
-97.36
-103.64
-109.49
-111.83
-107.02
-92.52
-68.42
-38.23
-7.75
17.23
33.08
39.68
39.75
36.96
33.96
31.60
29.31
26.40
22.97
19.88
18.21
18.35
19.71
21.00
20.99
19.02
15.43
11.28
7.72
5.59
4.95
5.23
5.44
4.70
2.59
-0.63
-4.30
-7.68
-10.24
-11.94
-13.08
-14.25
-15.97
-18.45
-21.60
-25.07
-28.48
-31.59
-34.35
-36.87
-39.41
-42.21
-45.32
-48.60
-51.83
-54.67
-56.83
-58.06
-58.08
-56.80
-54.11
-50.01
-44.41
-37.38
-29.07
-19.73
-9.72
0.65
10.90
20.62
29.55
37.57
44.57
50.67
55.93
59.62
62.37
64.26
65.29
65.46
64.82
63.40
61.43
59.07
56.48
53.80
50.94
47.79
44.35
41.09
37.92
35.16
33.03
31.57
30.67
29.86
28.71
26.97
24.79
22.59
21.03
20.62
21.45
23.17
24.96
25.98
25.71
24.32
22.51
21.42
21.98
24.52
28.54
32.85
36.25
37.79
37.34
35.57
33.63
32.89
34.71
40.05
48.88
59.40
67.76
69.02
58.99
36.64
5.33
-28.03
-55.92
-73.02
-78.63
-76.12
-70.72
-66.91
-66.94
-70.94
-77.80
-85.93
-93.24
-97.01
-94.32
-83.35
-64.58
-41.97
-20.70
-5.34
2.02
2.35
-1.56
-6.75
-11.57
-15.56
-18.84
-21.25
-22.20
-21.17
-18.34
-14.75
-11.93
-10.99
-12.33
-15.21
-18.15
-19.72
-19.03
-16.01
-11.33
-5.91
-0.60
4.35
9.16
14.41
20.54
27.50
34.73
41.27
46.17
48.77
49.09
47.54
44.87
41.72
38.40
34.84
30.68
25.71
19.65
13.43
7.90
3.76
1.14
-0.41
-1.78
-3.87
-6.95
-10.54
-13.34
-14.09
-12.03
-7.53
-1.99
2.81
5.55
6.45
7.11
9.84
16.37
26.82
39.43
51.53
61.08
67.53
71.60
73.87
73.54
68.05
54.41
30.90
-1.14
-37.27
-71.57
-99.01
-117.29
-126.55
-127.81
-121.17
-105.85
-81.81
-52.04
-23.60
-5.17
-2.56
-14.82
-33.25
-45.12
-39.93
-15.15
22.05
58.04
79.35
79.23
60.88
35.74
17.80
16.35
32.12
57.16
78.97
86.80
76.59
52.54
23.78
1.91
-6.96
-4.28
3.20
8.51
8.68
5.69
4.06
7.46
15.94
25.13
29.99
26.75
14.78
-3.50
-23.88
-42.35
-56.61
-65.02
-70.14
-74.79
-81.06
-89.40
-98.70
-107.13
-113.46
-117.83
-121.42
-125.52
-129.18
-129.05
-120.60
-100.67
-69.85
-32.96
2.60
30.09
45.85
50.68
48.30
42.94
37.35
32.19
27.02
21.52
16.21
12.01
9.63
8.82
8.43
7.14
3.98
-0.92
-6.50
-11.29
-14.18
-14.68
-13.07
-10.13
-6.49
-2.43
2.35
8.44
16.26
25.67
35.93
45.98
54.88
62.24
68.22
73.44
78.45
83.32
87.57
90.40
91.16
89.65
86.37
82.23
78.19
75.10
73.51
73.56
74.66
75.19
72.52
63.68
46.67
21.66
-8.46
-38.87
-64.55
-82.27
-91.43
-93.86
-92.27
-88.66
-83.47
-76.07
-65.84
-53.13
-39.51
-26.91
-16.86
-9.76
-4.84
-0.63
4.29
10.60
18.18
26.22
33.99
40.87
46.65
51.47
55.65
59.36
62.56
65.04
65.30
63.12
59.03
54.18
49.85
47.03
45.90
45.83
45.67
44.25
41.16
36.72
31.80
27.45
24.31
22.29
20.44
17.34
11.68
3.07
-7.82
-19.26
-29.16
-36.00
-39.65
-41.54
-43.91
-48.66
-56.06
-64.57
-71.39
-73.80
-70.48
-62.15
-51.21
-40.63
-32.77
-28.54
-27.59
-28.72
-30.71
-32.82
-34.94
-37.48
-41.13
-46.70
-54.91
-66.29
-80.68
-96.71
-111.47
-120.88
-120.87
-109.03
-85.96
-55.40
-23.11
5.23
25.94
38.16
43.28
43.52
40.68
35.74
29.32
22.37
16.44
13.13
13.20
15.94
19.38
21.25
20.18
16.39
11.60
8.13
7.79
11.03
16.83
23.20
28.00
29.81
28.33
24.30
19.20
14.56
11.56
10.79
12.28
15.69
20.62
26.77
33.97
42.14
51.12
60.66
70.43
80.05
89.19
97.56
104.79
110.34
113.40
112.97
108.05
98.01
82.89
63.46
41.12
17.57
-5.32
-25.65
-41.39
-50.53
-51.39
-43.24
-26.83
-4.54
20.03
43.02
61.34
73.30
78.70
78.26
72.95
63.52
50.40
33.94
14.67
-6.49
-28.45
-50.13
-70.80
-90.28
-108.97
-127.53
-146.52
-166.05
-185.55
-203.93
-220.07
-233.25
-243.55
-252.04
-260.34
-269.87
-281.30
-293.67
-304.66
-311.06
-309.42
-296.59
-269.95
-227.69
-169.25
-96.37
-13.91
69.81
144.42
200.12
230.61
234.39
214.36
175.73
124.38
66.42
8.55
-42.18
-80.18
-104.11
-118.18
-130.56
-148.94
-175.78
-206.20
-230.44
-239.19
-228.58
-202.17
-168.04
-134.15
-104.39
-78.01
-51.86
-23.46
7.44
39.44
70.97
101.71
132.51
164.35
196.70
227.04
251.25
265.50
267.89
259.31
243.00
223.20
203.83
187.07
173.11
160.80
148.83
136.53
124.04
111.86
100.43
90.65
82.84
76.53
70.76
65.11
60.15
57.22
57.57
61.66
70.50
83.49
97.98
110.09
116.81
117.59
114.18
109.29
105.13
105.46
111.93
123.26
135.82
146.13
152.65
155.57
155.91
155.28
160.10
176.94
209.38
255.75
309.55
361.51
401.69
422.18
396.27
313.95
188.60
51.96
-66.20
-152.81
-210.12
-246.60
-269.78
-283.83
-286.87
-277.67
-258.89
-236.99
-218.57
-206.99
-201.90
-200.48
-199.53
-193.92
-180.86
-161.34
-139.67
-120.62
-106.85
-98.51
-94.20
-92.05
-88.90
-82.98
-74.77
-67.14
-62.76
-63.13
-68.17
-76.75
-87.12
-96.77
-104.01
-108.37
-110.59
-111.87
-112.82
-113.71
-114.85
-116.59
-119.49
-124.27
-131.22
-139.71
-147.80
-151.97
-148.88
-136.69
-115.49
-87.84
-57.93
-30.15
-7.83
7.72
18.50
28.22
37.68
48.50
62.10
79.69
101.76
127.33
153.27
176.14
191.45
195.29
186.99
169.14
146.83
125.49
109.12
99.31
98.05
105.14
118.43
134.35
148.90
159.47
165.56
168.19
155.53
121.83
68.53
4.70
-57.93
-109.67
-144.80
-162.64
-167.55
-166.80
-163.93
-160.63
-155.63
-146.99
-133.54
-115.60
-94.67
-72.99
-52.22
-30.98
-11.64
4.53
16.55
23.77
26.39
24.96
20.01
12.12
3.35
-4.06
-7.27
-4.37
5.01
19.51
36.24
51.68
63.03
69.47
71.51
70.85
68.89
66.23
62.72
57.85
51.21
43.06
34.53
27.01
21.94
20.09
21.30
24.76
29.26
33.52
36.54
37.67
36.68
33.78
29.38
23.88
17.68
11.07
4.26
-2.60
-9.32
-15.68
-21.38
-26.14
-29.82
-32.39
-33.98
-34.74
-34.86
-34.43
-33.48
-31.97
-29.86
-27.27
-24.44
-21.86
-20.15
-19.93
-21.60
-25.11
-29.83
-34.50
-37.44
-36.96
-31.85
-21.78
-7.48
9.36
26.56
41.98
54.01
61.80
65.32
65.11
62.03
56.96
50.68
43.89
37.22
31.31
26.72
23.82
22.70
23.10
24.45
26.16
27.69
28.76
29.28
29.24
28.61
27.25
24.98
21.67
17.37
12.30
6.81
1.31
-3.86
-8.46
-12.38
-15.64
-18.37
-20.75
-22.92
-25.00
-26.96
-28.73
-30.28
-31.68
-33.20
-35.27
-38.34
-42.69
-48.19
-54.16
-59.39
-62.41
-61.82
-56.76
-47.30
-34.57
-20.56
-7.63
2.13
7.36
7.80
4.13
-2.32
-10.10
-18.06
-25.62
-32.78
-39.92
-47.40
-55.28
-63.15
-70.27
-75.92
-79.75
-82.05
-83.65
-85.70
-89.33
-95.46
-104.58
-116.30
-128.80
-138.57
-140.91
-131.38
-107.70
-71.21
-27.09
17.19
54.47
80.40
94.55
99.85
100.66
100.73
102.06
104.87
108.34
111.35
112.84
111.75
107.12
98.27
85.27
69.36
52.98
39.36
31.45
30.83
36.94
47.05
57.06
62.85
61.64
52.93
38.65
22.37
8.06
-1.12
-3.56
0.68
10.20
22.88
36.32
48.11
55.98
57.87
52.47
40.00
22.91
5.93
-5.13
-5.52
6.47
28.76
56.57
84.69
109.72
130.85
149.06
165.27
178.83
187.28
187.64
178.06
159.16
134.09
107.39
83.23
63.88
49.22
37.25
25.54
12.90
0.05
-10.92
-17.99
-20.42
-18.85
-14.23
-6.73
4.52
20.22
39.17
57.48
69.51
70.38
58.36
35.78
7.72
-20.31
-44.63
-64.00
-78.94
-90.50
-99.39
-105.95
-110.67
-114.63
-119.09
-125.04
-132.78
-141.89
-151.51
-160.79
-168.96
-175.31
-179.23
-180.50
-179.76
-178.32
-177.32
-176.55
-173.68
-164.85
-146.48
-117.44
-80.17
-39.79
-1.64
31.57
60.96
90.46
124.11
163.03
204.09
240.72
265.24
271.52
256.80
222.28
172.98
117.11
65.04
27.36
12.19
22.28
53.39
94.90
133.42
157.32
160.41
143.02
110.01
67.15
18.30
-35.17
-92.57
-151.31
-205.52
-247.07
-268.65
-267.11
-245.43
-211.92
-176.79
-148.10
-128.65
-115.58
-102.80
-84.97
-60.83
-34.16
-11.84
-0.22
-1.98
-15.14
-34.67
-55.31
-73.83
-89.84
-104.48
-118.83
-132.72
-144.47
-151.38
-150.39
-138.67
-114.17
-76.52
-27.94
26.22
78.13
119.27
142.88
145.96
129.87
99.52
61.88
24.30
-6.71
-26.48
-32.96
-27.19
-13.22
3.13
16.03
21.84
20.39
14.81
10.10
10.79
19.09
34.05
52.18
68.77
79.42
81.08
72.53
54.36
28.69
-1.22
-31.68
-59.33
-81.76
-97.96
-108.34
-114.58
-119.24
-125.38
-135.88
-152.25
-173.49
-195.48
-211.65
-214.91
-200.32
-166.94
-118.29
-60.93
-1.95
53.26
102.05
144.00
179.72
209.58
233.31
250.43
261.18
267.23
271.78
278.75
291.35
310.70
334.83
358.79
375.89
379.73
366.05
333.81
285.16
224.28
155.71
83.03
8.46
-66.46
-139.81
-208.48
-268.43
-316.00
-349.43
-369.55
-379.24
-381.47
-377.57
-366.52
-345.91
-314.10
-272.08
-224.02
-175.96
-133.55
-100.06
-75.66
-58.26
-45.12
-34.33
-25.54
-19.64
-17.73
-19.96
-24.81
-29.13
-28.97
-20.85
-2.89
24.44
58.47
95.09
129.77
158.67
179.13
189.97
191.22
183.91
169.80
151.11
130.31
109.78
91.56
77.03
66.77
60.55
57.56
56.71
57.04
57.90
58.93
59.81
60.02
58.74
55.09
48.45
38.90
27.20
14.69
2.73
-7.67
-16.13
-22.82
-28.14
-32.37
-35.52
-37.38
-37.86
-37.21
-36.12
-35.53
-36.33
-38.96
-43.34
-48.80
-54.46
-59.43
-63.15
-65.52
-66.89
-68.01
-69.92
-73.76
-80.46
-90.24
-102.18
-113.93
-122.08
-123.07
-114.46
-95.97
-69.78
-39.93
-11.05
13.01
30.09
39.68
42.57
40.08
33.70
24.93
15.37
6.62
0.02
-3.69
-4.70
-3.93
-2.61
-1.69
-1.35
-1.02
0.22
3.02
7.26
11.89
15.43
16.59
14.92
11.06
6.43
2.56
0.32
-0.45
-0.77
-1.99
-5.06
-10.13
-16.53
-23.27
-29.56
-35.19
-40.49
-45.91
-51.57
-57.03
-61.44
-64.00
-64.46
-63.36
-61.90
-61.50
-63.21
-67.29
-73.06
-79.06
-83.46
-84.42
-80.45
-70.60
-54.58
-32.79
-6.36
22.98
53.03
81.44
106.29
126.51
142.18
154.22
163.80
171.58
177.47
180.83
181.22
179.00
175.58
172.90
172.64
175.43
180.86
188.08
196.64
206.89
219.55
234.83
251.71
268.08
281.71
291.51
297.91
302.31
305.62
307.19
304.73
295.62
278.63
254.81
227.00
198.14
169.64
140.83
109.90
75.34
37.18
-2.94
-42.71
-80.21
-114.42
-145.03
-171.93
-194.98
-214.21
-230.24
-244.26
-257.51
-270.26
-281.21
-287.63
-286.36
-275.10
-253.49
-223.50
-188.97
-154.90
-126.50
-108.21
-102.82
-110.65
-129.36
-154.52
-180.83
-203.71
-220.39
-230.24
-234.05
-233.03
-227.87
-218.88
-206.83
-193.64
-182.19
-175.21
-173.76
-176.68
-181.52
-185.86
-188.72
-190.74
-193.08
-195.68
-196.41
-191.45
-177.41
-153.83
-123.34
-90.57
-60.01
-34.07
-12.53
6.38
24.67
43.19
60.85
76.15
88.30
97.92
106.73
116.56
128.08
140.81
156.26
173.19
189.36
202.70
212.27
218.15
221.05
220.42
215.57
206.70
194.13
180.03
167.32
158.51
154.70
155.39
158.85
163.62
168.79
173.16
175.39
172.86
163.29
146.05
123.87
98.75
72.01
44.87
18.23
-7.20
-30.57
-50.33
-64.37
-70.77
-69.05
-60.35
-47.67
-35.33
-27.38
-26.13
-31.25
-40.18
-49.37
-55.76
-57.24
-52.99
-43.57
-30.48
-15.65
-0.88
12.68
24.76
35.90
47.25
59.84
73.76
87.91
100.36
109.12
112.99
111.90
106.75
98.93
89.69
79.66
68.90
57.26
44.98
32.87
22.14
13.81
8.18
4.53
1.41
-2.72
-8.67
-16.27
-24.47
-31.96
-37.86
-42.01
-44.84
-47.00
-48.93
-50.60
-51.63
-51.56
-50.24
-47.97
-45.47
-43.63
-43.12
-44.15
-46.37
-48.98
-51.10
-52.08
-51.73
-50.40
-48.71
-47.28
-46.43
-46.12
-46.01
-45.76
-45.15
-44.23
-43.15
-42.05
-40.96
-39.76
-38.33
-36.66
-34.92
-33.39
-32.32
-31.74
-31.44
-31.00
-30.03
-28.39
-26.22
-23.91
-21.87
-20.32
-19.26
-18.52
-17.90
-17.31
-16.80
-16.49
-16.50
-16.86
-17.56
-18.47
-19.42
-20.19
-20.62
-20.62
-20.30
-19.91
-19.76
-20.02
-20.70
-21.57
-22.31
-22.65
-22.38
-21.46
-19.89
-17.70
-15.01
-12.05
-9.20
-6.95
-5.75
-5.92
-7.50
-10.35
-14.16
-18.59
-23.23
-27.62
-31.20
-33.36
-33.65
-32.00
-28.93
-25.48
-22.79
-21.64
-22.10
-23.55
-25.21
-26.59
-27.92
-29.98
-33.58
-38.96
-45.51
-52.02
-57.17
-60.14
-60.79
-59.73
-57.95
-56.52
-56.32
-57.90
-61.50
-67.00
-74.02
-81.81
-89.37
-95.52
-99.14
-99.44
-96.21
-89.86
-81.37
-71.99
-62.70
-53.87
-45.17
-35.89
-25.43
-13.71
-1.19
11.50
23.94
36.01
47.79
59.07
69.16
77.14
82.43
85.22
86.46
87.13
87.38
86.19
81.81
72.84
59.15
42.16
24.25
7.82
-5.48
-14.86
-20.10
-21.20
-18.36
-12.31
-4.53
2.85
7.74
8.97
6.96
3.65
1.88
4.38
12.65
26.26
42.90
59.00
70.95
76.35
75.01
69.17
62.75
60.00
63.98
75.40
92.57
112.38
131.77
148.97
163.74
176.66
187.91
196.41
200.01
196.56
185.32
167.70
146.98
126.90
110.09
97.24
87.63
80.30
75.34
74.43
80.19
94.79
118.57
149.27
182.23
211.64
231.98
239.48
232.97
213.96
186.18
154.47
123.67
97.59
78.38
66.36
60.25
57.66
55.55
50.67
39.99
21.37
-5.95
-40.89
-80.50
-120.39
-155.65
-182.10
-197.24
-200.70
-194.03
-180.10
-162.25
-143.69
-126.97
-113.70
-104.41
-98.74
-95.76
-94.68
-95.43
-99.05
-107.52
-123.02
-146.83
-178.24
-213.95
-248.55
-275.69
-290.00
-288.61
-272.05
-243.85
-209.08
-172.60
-137.58
-105.31
-75.78
-48.84
-24.92
-5.01
9.94
19.69
24.89
26.87
26.90
25.80
23.85
21.22
18.40
16.50
16.89
20.58
27.43
35.77
42.57
44.17
37.62
21.89
-1.50
-28.69
-54.67
-74.82
-86.45
-89.42
-85.98
-79.87
-75.29
-76.22
-85.93
-106.59
-138.59
-179.76
-224.97
-266.64
-296.45
-307.46
-295.93
-262.11
-209.81
-145.17
-75.53
-8.33
49.63
92.99
118.56
125.92
117.46
97.72
72.07
45.43
21.22
1.04
-15.09
-27.94
-38.15
-45.46
-48.30
-44.02
-29.56
-2.57
37.27
87.34
141.69
191.66
227.63
241.26
227.99
188.34
127.77
54.86
-21.18
-92.48
-153.21
-199.24
-227.36
-235.14
-221.58
-188.17
-139.11
-80.44
-18.21
43.45
103.41
163.21
225.42
291.48
360.19
427.49
487.70
535.60
568.18
585.19
588.32
579.55
559.79
528.67
485.48
430.56
366.14
296.01
224.18
153.58
85.47
19.90
-43.19
-103.03
-157.70
-204.62
-241.28
-266.13
-278.98
-280.85
-273.50
-258.96
-239.14
-216.02
-191.94
-169.76
-152.59
-143.05
-142.30
-149.55
-162.34
-177.39
-191.71
-203.38
-211.66
-216.68
-218.86
-218.33
-214.46
-205.68
-189.72
-164.39
-128.84
-84.57
-35.81
11.30
50.59
77.78
91.71
94.26
88.96
79.35
67.87
55.62
42.86
29.90
17.46
6.73
-0.94
-4.54
-3.64
1.55
10.24
21.26
33.07
43.81
51.22
52.89
46.61
31.01
6.11
-26.50
-64.10
-103.68
-142.82
-179.99
-214.26
-244.74
-270.34
-290.27
-304.93
-316.25
-326.89
-338.52
-350.06
-357.23
-354.03
-335.43
-299.78
-249.61
-190.38
-127.96
-66.44
-7.21
50.20
106.68
162.18
215.44
264.35
306.85
341.59
368.18
387.14
399.43
406.01
407.57
404.51
397.11
385.88
371.70
355.69
338.91
321.90
304.37
285.30
263.33
237.44
207.42
173.83
137.42
98.62
57.23
12.94
-33.81
-81.06
-125.37
-162.73
-190.09
-206.37
-212.63
-211.35
-205.15
-195.83
-184.20
-170.40
-154.18
-135.14
-112.72
-86.68
-57.86
-29.09
-5.37
6.88
1.35
-26.18
-76.36
-145.38
-225.06
-304.09
-370.21
-413.05
-426.82
-411.86
-374.03
-322.40
-266.03
-211.13
-160.08
-112.07
-64.84
-16.02
36.15
92.56
152.60
213.35
269.17
312.49
336.20
336.46
314.66
277.06
232.55
189.42
153.03
125.36
106.07
94.00
88.00
86.66
87.67
87.63
82.90
71.14
52.75
31.33
12.95
4.31
10.52
33.29
70.24
115.69
162.36
203.81
236.23
259.29
275.48
288.63
302.10
317.67
335.13
352.80
368.21
378.68
381.68
374.95
356.74
326.07
282.96
228.44
164.27
92.77
16.74
-60.25
-133.84
-199.11
-251.55
-288.44
-310.10
-320.27
-325.22
-331.74
-344.69
-365.17
-390.15
-413.69
-429.05
-431.00
-417.07
-387.53
-344.61
-291.03
-229.10
-160.46
-86.24
-7.33
75.60
161.86
250.10
337.22
417.71
484.06
528.51
545.84
535.66
503.28
458.34
411.74
372.19
343.85
325.85
313.77
302.00
286.03
263.65
234.89
201.24
164.53
126.14
86.91
47.49
9.10
-26.42
-56.90
-80.80
-97.91
-109.63
-118.40
-126.73
-136.22
-147.14
-158.87
-170.74
-182.78
-195.89
-211.42
-230.23
-252.05
-275.31
-297.77
-317.47
-333.60
-346.79
-358.78
-371.55
-386.35
-403.11
-420.53
-436.80
-450.64
-462.10
-472.65
-484.38
-498.62
-514.76
-529.75
-538.71
-536.43
-518.96
-484.79
-435.13
-373.14
-302.82
-227.92
-151.41
-75.36
-1.20
70.06
138.05
203.16
266.41
328.77
390.26
449.45
503.48
548.87
582.64
603.05
609.85
604.06
587.51
562.34
530.74
494.78
456.34
417.02
378.18
340.90
306.08
274.54
247.07
224.37
206.81
194.19
185.46
178.58
170.74
159.00
141.17
116.37
85.24
49.36
10.62
-29.38
-69.30
-107.69
-142.59
-171.65
-192.70
-204.74
-208.57
-207.00
-204.15
-204.23
-210.25
-223.10
-241.47
-262.58
-283.35
-301.56
-316.45
-328.45
-338.47
-347.14
-354.25
-358.98
-360.54
-358.87
-354.81
-349.55
-343.48
-335.30
-321.85
-299.16
-263.99
-215.30
-154.63
-85.19
-10.40
67.26
146.21
224.71
299.72
366.59
420.23
457.09
476.85
482.65
479.62
472.58
464.19
454.48
441.73
424.26
401.63
375.06
346.72
318.59
291.61
265.32
238.18
208.23
174.13
135.93
95.56
56.32
21.66
-6.40
-28.34
-46.77
-64.96
-84.89
-106.04
-125.80
-141.04
-150.00
-153.36
-153.74
-154.17
-156.49
-160.48
-164.36
-165.96
-164.04
-158.81
-151.78
-144.93
-139.77
-136.69
-134.96
-133.21
-130.15
-125.23
-118.92
-112.49
-107.44
-104.73
-104.19
-104.20
-101.91
-94.08
-78.23
-53.89
-23.20
9.16
37.09
54.73
58.27
46.90
23.07
-8.48
-41.91
-71.82
-94.68
-109.81
-119.50
-128.05
-140.00
-158.28
-183.06
-211.43
-238.65
-260.14
-273.11
-277.19
-273.71
-264.35
-250.17
-231.98
-210.77
-188.49
-168.31
-153.87
-147.91
-151.03
-161.13
-174.23
-187.17
-197.66
-204.84
-209.62
-214.19
-221.21
-232.65
-248.69
-267.40
-287.25
-304.85
-315.50
-314.80
-300.62
-274.24
-239.74
-202.33
-166.70
-139.17
-122.14
-113.43
-107.95
-100.67
-89.40
-75.09
-60.65
-49.26
-47.33
-57.01
-74.89
-93.83
-106.66
-109.99
-104.64
-93.98
-53.16
25.40
131.02
240.51
333.22
400.38
442.16
462.74
467.42
461.47
445.26
420.30
390.53
361.50
338.73
325.06
320.86
324.70
333.87
341.17
340.75
330.31
304.95
265.58
216.33
163.08
111.63
66.50
28.46
-1.69
-23.43
-35.63
-37.59
-31.59
-22.31
-15.09
-14.09
-22.16
-41.47
-70.05
-102.97
-133.78
-157.14
-169.94
-171.56
-163.39
-148.21
-128.65
-106.13
-80.97
-52.72
-21.50
11.40
43.49
71.49
92.16
103.24
104.35
96.99
84.39
70.38
58.57
51.42
49.87
53.33
60.24
69.07
78.98
90.15
103.29
118.85
136.11
152.80
165.68
171.89
170.59
163.73
155.62
151.29
154.36
165.12
180.00
192.78
196.95
188.37
166.81
135.83
101.28
69.33
44.80
30.38
26.58
31.92
43.12
55.21
62.38
59.43
43.71
16.35
-17.62
-50.75
-75.52
-86.89
-83.74
-68.99
-48.37
-28.53
-15.29
-12.43
-21.32
-41.07
-68.66
-99.38
-127.40
-147.09
-154.84
-150.80
-139.38
-128.06
-124.50
-132.99
-152.08
-174.56
-190.35
-190.71
-171.88
-136.41
-91.76
-47.12
-10.10
15.05
27.58
28.93
21.19
6.08
-14.96
-39.99
-65.94
-88.65
-103.90
-109.18
-105.19
-96.40
-89.91
-92.92
-109.56
-138.55
-172.92
-202.30
-216.70
-210.43
-184.12
-144.05
-99.31
-58.23
-25.54
-1.33
18.04
37.93
63.02
95.56
134.36
175.08
211.60
238.12
251.26
251.05
240.64
224.45
206.21
187.64
168.74
149.19
129.96
113.65
103.36
100.80
104.89
112.10
118.28
120.95
120.71
120.76
124.94
135.58
152.38
172.80
193.66
212.64
228.80
241.95
251.32
254.82
249.23
231.51
200.26
156.62
104.04
47.23
-9.11
-61.23
-106.59
-143.75
-172.15
-192.03
-204.54
-211.62
-215.83
-219.81
-225.63
-234.08
-244.23
-253.42
-257.81
-253.58
-238.23
-211.60
-176.17
-136.31
-96.93
-62.08
-34.11
-13.59
0.14
8.19
11.65
11.51
8.82
4.83
1.06
-1.00
-0.17
4.10
11.62
21.53
32.50
43.11
52.16
58.97
63.45
66.03
67.39
68.11
68.42
68.13
66.80
64.08
59.93
54.72
49.19
44.11
40.06
37.11
34.88
32.62
29.62
25.46
20.20
14.31
8.42
3.00
-1.89
-6.59
-11.71
-17.97
-26.03
-36.30
-48.77
-62.69
-76.32
-86.93
-91.31
-86.67
-71.67
-47.16
-16.12
17.13
48.13
73.41
91.16
101.18
104.47
102.55
97.04
89.43
80.99
72.89
66.17
61.65
59.79
60.51
63.29
67.25
71.50
75.44
78.86
81.91
84.75
87.36
89.37
90.21
89.42
87.00
83.42
79.56
76.26
74.08
73.05
72.75
72.59
72.14
71.29
70.31
69.62
69.55
70.07
70.82
71.25
70.91
69.62
67.49
64.84
61.94
58.81
55.17
50.49
44.02
35.10
23.45
9.58
-4.99
-17.67
-25.34
-25.21
-15.77
2.48
26.94
53.60
78.07
96.79
107.68
110.40
105.93
95.98
82.41
66.91
50.90
35.60
22.04
10.91
2.51
-3.40
-7.45
-10.41
-12.91
-15.27
-17.55
-19.73
-21.85
-24.13
-26.88
-30.35
-34.68
-39.74
-45.19
-50.50
-55.04
-58.26
-59.82
-59.83
-58.80
-57.48
-56.58
-56.46
-56.98
-57.64
-57.91
-57.48
-56.50
-55.46
-54.96
-55.44
-56.95
-59.18
-61.60
-63.64
-64.99
-65.67
-66.08
-66.89
-68.83
-72.39
-77.56
-83.60
-89.13
-92.32
-91.49
-85.52
-74.37
-59.07
-41.51
-23.86
-7.95
5.14
15.27
23.04
29.44
35.36
41.39
47.76
54.43
61.48
69.16
77.91
88.06
99.53
111.55
122.81
131.81
137.38
139.11
137.40
133.23
127.57
121.05
113.73
105.23
95.10
83.14
69.56
54.86
39.66
24.44
9.46
-5.22
-19.57
-33.54
-47.06
-60.00
-72.32
-83.99
-94.95
-104.95
-113.52
-119.95
-123.56
-124.10
-122.06
-118.76
-116.04
-115.65
-118.55
-124.59
-132.65
-141.13
-148.73
-154.82
-159.55
-163.54
-167.44
-171.60
-175.91
-179.55
-180.91
-177.64
-167.18
-147.76
-119.55
-85.10
-48.99
-16.39
8.65
24.41
31.64
32.72
30.27
26.21
21.50
16.49
11.55
7.34
4.68
4.16
5.81
9.05
12.99
16.77
19.90
22.27
24.04
25.34
26.13
26.19
25.14
22.74
18.96
14.10
8.61
3.09
-1.98
-6.30
-9.76
-12.43
-14.49
-16.17
-17.67
-19.15
-20.67
-22.22
-23.72
-25.08
-26.20
-26.99
-27.41
-27.49
-27.33
-27.13
-27.22
-27.99
-29.77
-32.57
-35.81
-38.29
-38.41
-34.72
-26.52
-14.28
0.43
15.37
28.33
37.74
42.99
44.32
42.52
38.55
33.28
27.38
21.35
15.61
10.58
6.63
4.11
3.20
3.76
5.43
7.65
9.87
11.74
13.13
14.06
14.51
14.38
13.51
11.75
9.07
5.61
1.59
-2.69
-6.95
-10.91
-14.28
-16.83
-18.46
-19.27
-19.53
-19.64
-19.88
-20.44
-21.25
-22.16
-22.96
-23.50
-23.77
-23.85
-24.03
-24.75
-26.54
-29.81
-34.50
-39.85
-44.29
-45.81
-42.59
-33.74
-19.74
-2.43
15.48
31.26
42.89
49.45
51.11
48.81
43.79
37.26
30.25
23.56
17.79
13.36
10.44
9.02
8.86
9.61
10.89
12.35
13.75
14.93
15.83
16.35
16.39
15.84
14.61
12.70
10.19
7.26
4.10
0.88
-2.28
-5.31
-8.12
-10.64
-12.78
-14.46
-15.70
-16.61
-17.37
-18.22
-19.34
-20.81
-22.52
-24.26
-25.76
-26.81
-27.37
-27.65
-28.07
-29.24
-31.66
-35.52
-40.39
-45.08
-47.79
-46.64
-40.23
-28.30
-11.97
6.50
24.33
38.99
48.77
53.14
52.59
48.33
41.82
34.45
27.30
21.06
16.06
12.39
10.03
8.88
8.80
9.61
11.06
12.84
14.63
16.19
17.35
17.99
18.00
17.26
15.67
13.22
10.05
6.41
2.66
-0.90
-4.08
-6.85
-9.30
-11.55
-13.63
-15.46
-16.89
-17.88
-18.52
-19.03
-19.68
-20.63
-21.83
-23.12
-24.27
-25.18
-25.90
-26.62
-27.63
-29.25
-31.79
-35.42
-39.97
-44.66
-48.07
-48.39
-43.98
-34.10
-19.34
-1.65
16.23
31.59
42.50
48.24
49.15
46.25
40.75
33.68
25.89
18.10
10.98
5.31
1.75
0.67
2.00
5.16
9.19
13.14
16.26
18.24
19.14
19.21
18.71
17.70
16.06
13.67
10.45
6.51
2.14
-2.25
-6.24
-9.47
-11.76
-13.14
-13.92
-14.55
-15.52
-17.14
-19.42
-22.03
-24.46
-26.28
-27.26
-27.57
-27.64
-28.08
-29.54
-32.48
-36.99
-42.50
-47.71
-50.73
-49.57
-42.77
-30.13
-12.90
6.44
24.93
39.94
49.87
54.35
54.00
50.05
43.92
36.93
30.11
24.23
19.72
16.75
15.28
15.12
16.00
17.60
19.55
21.47
23.04
24.00
24.20
23.62
22.26
20.15
17.32
13.85
9.97
5.98
2.20
-1.14
-4.06
-6.79
-9.56
-12.45
-15.21
-17.38
-18.47
-18.31
-17.19
-15.83
-15.10
-15.65
-17.60
-20.52
-23.63
-26.19
-27.84
-28.72
-29.42
-30.71
-33.27
-37.46
-43.06
-49.18
-54.29
-56.38
-53.51
-44.46
-29.26
-9.51
11.98
31.94
47.54
57.15
60.61
58.94
53.81
46.90
39.55
32.66
26.79
22.33
19.54
18.52
19.16
21.03
23.50
25.91
27.78
28.96
29.58
29.85
29.90
29.54
28.40
26.08
22.42
17.70
12.55
7.73
3.82
0.99
-1.01
-2.68
-4.42
-6.43
-8.60
-10.63
-12.27
-13.43
-14.28
-15.10
-16.22
-17.83
-19.96
-22.42
-24.90
-27.06
-28.72
-29.90
-30.93
-32.32
-34.68
-38.42
-43.45
-48.99
-53.52
-55.10
-51.86
-42.71
-27.84
-8.89
11.40
29.93
44.07
52.38
54.80
52.38
46.72
39.42
31.66
24.17
17.40
11.67
7.38
4.86
4.33
5.63
8.29
11.57
14.77
17.31
18.91
19.52
19.15
17.85
15.60
12.44
8.45
3.86
-1.06
-6.01
-10.69
-14.88
-18.36
-20.94
-22.60
-23.46
-23.92
-24.53
-25.90
-28.40
-32.10
-36.67
-41.59
-46.21
-50.07
-52.91
-54.74
-55.90
-56.92
-58.42
-60.81
-63.93
-66.78
-67.62
-64.41
-55.61
-40.94
-21.71
-0.58
19.29
35.19
45.61
50.37
50.38
46.98
41.54
35.07
28.36
21.99
16.52
12.44
10.15
9.80
11.24
14.04
17.63
21.36
24.72
27.33
28.96
29.52
29.00
27.43
25.00
21.95
18.46
14.63
10.45
5.89
1.00
-4.13
-9.26
-14.05
-18.26
-21.98
-25.59
-29.78
-35.17
-42.12
-50.46
-59.44
-67.58
-73.26
-75.50
-74.58
-72.38
-72.17
-77.83
-92.80
-119.10
-155.95
-200.38
-247.83
-292.91
-330.09
-354.46
-362.70
-354.08
-330.68
-295.30
-251.92
-204.80
-157.80
-113.73
-73.92
-38.62
-7.58
19.67
46.13
74.46
106.05
140.05
174.12
205.90
233.90
257.63
277.55
297.81
321.96
351.75
385.70
420.25
451.80
477.87
497.30
490.57
445.78
363.12
257.31
147.66
48.07
-35.80
-103.97
-158.86
-203.17
-233.85
-250.96
-255.09
-249.26
-237.93
-225.11
-213.21
-202.94
-193.58
-180.20
-161.47
-136.57
-107.25
-76.78
-48.25
-23.69
-4.28
9.31
19.77
29.75
41.96
57.58
76.54
98.27
121.70
145.06
165.97
184.95
202.55
219.43
234.95
247.53
255.74
258.94
257.50
252.64
249.32
252.12
263.97
284.61
311.09
339.66
367.32
392.56
397.22
370.21
309.80
225.80
133.97
47.79
-25.72
-85.26
-132.51
-169.84
-196.35
-210.90
-213.56
-206.74
-194.82
-182.41
-172.98
-168.01
-167.32
-167.51
-165.29
-159.11
-149.82
-139.80
-131.45
-126.09
-123.86
-123.73
-123.60
-121.12
-114.37
-102.45
-85.59
-65.12
-43.31
-23.09
-7.45
2.04
5.25
3.25
-2.33
-9.83
-17.94
-25.77
-32.81
-38.76
-43.18
-45.60
-45.78
-43.75
-39.87
-34.58
-28.27
-21.04
-13.11
-4.68
3.96
12.33
19.83
25.82
29.80
31.48
31.00
28.88
25.88
22.82
20.28
18.63
17.92
18.05
18.70
19.70
20.95
22.43
24.10
25.85
27.63
29.49
31.55
33.69
35.79
37.59
38.43
37.33
33.21
25.39
14.14
0.64
-13.38
-25.66
-34.08
-37.38
-35.47
-29.57
-21.64
-14.01
-7.19
-2.72
-1.97
-5.09
-10.54
-15.70
-18.23
-16.64
-10.62
-1.19
9.80
20.83
31.09
40.29
48.37
54.95
58.87
60.94
62.11
63.29
65.32
68.60
72.78
77.09
80.64
83.61
87.38
93.60
103.26
116.06
130.06
141.92
150.35
152.82
147.98
136.19
119.11
99.25
79.46
62.39
49.86
42.47
38.90
36.67
32.68
23.90
8.49
-13.41
-39.63
-66.64
-90.53
-108.36
-118.31
-119.90
-114.02
-102.57
-88.02
-72.95
-59.61
-49.51
-43.48
-41.58
-43.52
-49.01
-57.80
-69.50
-83.45
-98.64
-113.89
-128.31
-141.19
-151.91
-159.74
-163.75
-163.03
-157.20
-146.88
-133.84
-120.76
-110.57
-105.62
-107.20
-115.23
-128.34
-144.15
-159.75
-172.15
-178.90
-178.55
-170.92
-157.13
-139.20
-119.50
-100.02
-81.97
-65.56
-50.18
-34.78
-18.22
0.45
21.79
45.79
71.71
97.96
122.10
141.24
152.74
155.01
148.17
134.22
116.61
99.22
85.34
76.74
73.50
74.27
76.87
79.01
78.59
73.97
64.01
48.27
27.18
2.14
-24.59
-50.28
-72.31
-88.84
-99.38
-105.27
-109.60
-116.49
-129.61
-150.58
-177.84
-206.72
-230.94
-244.74
-244.80
-231.01
-205.85
-172.86
-135.22
-95.06
-53.53
-11.22
31.31
73.49
114.61
153.87
190.16
222.04
247.84
266.19
276.46
279.20
276.00
269.10
260.78
252.77
245.95
240.18
234.58
227.97
219.44
208.87
197.10
185.74
176.46
170.33
167.37
166.48
165.90
163.70
158.33
148.77
134.55
115.58
92.09
64.67
34.30
2.20
-30.30
-62.07
-92.32
-120.65
-146.80
-170.52
-191.33
-208.61
-221.77
-230.49
-234.96
-235.88
-234.27
-231.18
-227.28
-222.69
-216.91
-208.99
-197.97
-183.19
-164.70
-143.34
-120.72
-98.91
-80.02
-65.68
-56.64
-52.59
-52.21
-53.63
-54.99
-55.00
-53.23
-50.16
-46.96
-45.01
-45.45
-48.73
-54.25
-60.26
-64.13
-63.04
-54.87
-39.03
-16.95
8.31
32.72
52.51
65.04
69.33
65.98
56.75
43.99
30.01
16.69
5.17
-4.21
-11.91
-18.83
-25.97
-33.95
-42.58
-50.56
-55.52
-54.41
-44.35
-23.57
7.71
46.88
89.39
129.88
163.65
187.85
201.95
207.24
205.62
198.47
186.17
168.52
145.77
119.64
93.62
72.15
59.23
56.87
64.36
78.37
93.77
104.83
106.36
94.74
68.94
31.12
-13.26
-56.55
-90.75
-109.97
-112.20
-99.83
-78.61
-55.52
-36.65
-25.79
-24.22
-31.17
-44.79
-62.72
-82.53
-101.85
-118.58
-131.15
-138.80
-141.65
-140.54
-136.54
-130.52
-122.77
-113.06
-101.02
-86.69
-70.98
-55.78
-43.56
-36.49
-35.43
-39.29
-45.03
-48.61
-46.51
-37.25
-22.11
-4.75
10.15
18.61
18.63
10.56
-3.38
-20.00
-36.02
-48.54
-55.54
-56.33
-51.98
-45.35
-40.16
-39.42
-43.65
-49.97
-52.79
-46.02
-25.72
8.01
50.86
95.86
135.72
164.99
181.03
183.84
175.30
158.31
136.28
112.89
91.80
76.12
67.74
66.76
71.40
78.49
84.51
86.69
83.79
76.28
65.88
54.74
44.62
36.36
29.93
24.75
20.28
16.33
13.20
11.43
11.50
13.51
17.12
21.62
26.20
30.12
32.96
34.61
35.29
35.39
35.23
34.92
34.19
32.50
29.12
23.32
14.62
3.05
-10.62
-24.65
-36.44
-42.95
-41.57
-31.01
-12.00
12.76
39.23
63.14
81.16
91.53
94.22
90.48
82.23
71.51
60.14
49.59
40.92
34.82
31.56
30.98
32.54
35.43
38.76
41.94
44.84
47.81
51.38
55.61
59.69
61.89
60.09
52.70
39.41
21.51
1.35
-18.58
-36.60
-52.23
-65.96
-78.44
-89.88
-99.76
-107.14
-111.23
-111.84
-109.56
-105.57
-101.29
-98.08
-97.02
-98.75
-103.26
-109.57
-115.68
-118.72
-115.73
-104.62
-85.10
-58.99
-29.79
-1.68
21.73
38.23
47.29
49.70
46.96
40.67
32.24
22.90
13.71
5.72
-0.22
-3.50
-3.97
-1.92
2.03
7.12
12.60
17.80
22.10
24.84
25.34
22.99
17.46
8.91
-1.90
-13.78
-25.35
-35.47
-43.57
-49.71
-54.45
-58.53
-62.42
-66.10
-69.05
-70.49
-69.80
-66.96
-62.69
-58.47
-56.17
-57.50
-63.31
-73.07
-84.53
-94.03
-97.36
-91.06
-73.65
-46.43
-13.25
20.55
49.73
70.55
81.51
83.20
77.53
66.87
53.35
38.71
24.36
11.57
1.46
-5.08
-7.66
-6.43
-2.09
4.37
11.95
19.90
27.78
35.33
42.27
48.00
51.69
52.46
49.88
44.40
37.43
30.99
26.94
26.15
28.02
30.76
32.11
30.41
25.24
17.52
8.96
1.18
-5.00
-9.76
-14.03
-19.01
-25.70
-34.58
-45.45
-57.22
-67.89
-74.69
-74.70
-65.77
-47.49
-21.64
8.11
37.21
61.58
78.62
87.61
89.32
85.35
77.45
67.18
55.97
45.19
36.31
30.64
29.03
31.52
37.22
44.51
51.49
56.57
58.86
58.27
55.29
50.55
44.43
36.94
27.79
16.81
4.23
-9.13
-21.96
-32.85
-40.78
-45.51
-47.72
-48.77
-50.14
-52.78
-56.78
-61.31
-65.12
-67.18
-67.21
-65.82
-64.24
-63.86
-65.74
-70.38
-77.50
-85.97
-93.71
-97.78
-94.88
-82.35
-59.31
-27.44
9.10
44.80
74.40
94.50
104.19
104.78
98.70
88.42
75.78
61.98
48.01
35.00
24.25
16.94
13.64
13.98
16.78
20.49
23.74
25.84
26.85
27.32
27.80
28.42
28.74
27.98
25.46
20.93
14.83
8.08
1.72
-3.46
-7.11
-9.37
-10.61
-11.33
-12.03
-13.11
-14.85
-17.19
-19.58
-21.07
-20.62
-17.77
-13.24
-9.05
-8.09
-13.18
-25.99
-46.48
-72.73
-101.43
-128.41
-149.32
-160.24
-158.37
-142.80
-115.07
-79.15
-40.73
-5.73
21.22
37.78
44.20
42.56
35.76
26.45
16.51
7.04
-1.35
-8.16
-12.82
-14.79
-13.83
-10.21
-4.86
0.89
5.65
8.38
8.61
6.39
2.02
-4.11
-11.80
-20.88
-31.10
-42.03
-53.00
-63.33
-72.57
-80.72
-88.20
-95.62
-103.43
-111.64
-119.80
-127.25
-133.40
-137.94
-140.63
-140.78
-136.89
-126.68
-107.88
-79.27
-41.71
1.65
45.94
85.68
116.03
133.63
137.08
127.19
107.09
82.03
58.68
43.64
41.63
53.89
77.69
107.19
135.35
156.18
166.13
164.55
153.03
134.30
111.29
86.66
62.70
41.46
24.72
13.78
9.25
10.79
17.23
26.86
37.85
48.67
58.20
65.81
71.09
73.70
73.32
69.77
63.13
53.95
43.22
32.22
22.13
13.72
7.09
1.77
-2.99
-7.77
-12.71
-17.40
-21.24
-23.86
-25.50
-27.04
-29.66
-34.27
-40.98
-49.04
-57.10
-63.85
-68.58
-71.46
-73.43
-75.91
-80.36
-87.83
-98.47
-111.08
-122.78
-129.38
-126.35
-110.38
-80.96
-40.98
3.84
46.70
81.77
105.67
117.80
119.64
113.56
101.92
86.70
69.65
52.58
37.39
25.77
18.83
16.85
19.22
24.77
32.12
40.02
47.52
53.94
58.80
61.59
61.81
59.04
53.25
44.96
35.25
25.54
17.20
11.16
7.64
6.19
5.84
5.44
3.99
1.00
-3.38
-8.40
-13.10
-16.74
-19.29
-21.53
-24.77
-30.19
-38.28
-48.47
-59.43
-69.61
-77.89
-83.99
-88.58
-92.96
-98.70
-107.09
-118.57
-132.15
-145.13
-153.38
-152.32
-138.40
-110.44
-70.36
-22.78
26.23
70.70
106.18
130.30
142.77
144.74
138.19
125.37
108.50
89.65
70.68
53.29
38.91
28.58
22.74
21.10
22.72
26.33
30.75
35.16
39.19
42.65
45.25
46.54
46.03
43.55
39.57
35.14
31.51
29.51
29.11
29.37
28.80
26.04
20.46
12.40
3.07
-6.02
-13.64
-19.26
-23.13
-25.95
-28.35
-30.50
-31.97
-31.99
-29.89
-25.62
-19.96
-14.50
-11.26
-12.12
-18.11
-28.79
-41.96
-53.89
-60.20
-57.21
-43.28
-19.54
10.25
40.99
67.78
87.41
98.82
102.82
101.11
95.40
86.91
76.55
65.24
54.27
45.24
39.59
38.12
40.57
45.70
51.73
56.94
60.29
61.55
61.11
59.55
57.28
54.29
50.36
45.24
38.96
31.83
24.34
16.99
10.12
3.95
-1.38
-5.74
-9.14
-11.82
-14.32
-17.40
-21.70
-27.51
-34.55
-42.17
-49.57
-56.24
-62.14
-67.67
-73.54
-80.52
-89.25
-99.98
-112.19
-124.38
-133.93
-137.52
-132.10
-115.98
-89.75
-56.42
-20.63
12.61
39.30
57.24
66.05
66.67
60.65
49.73
35.74
20.70
6.77
-3.94
-9.89
-10.46
-6.22
1.29
10.06
18.29
24.93
29.95
34.13
38.50
43.70
49.38
54.18
56.12
53.47
45.57
33.22
18.52
3.98
-8.48
-18.21
-25.88
-32.90
-40.49
-49.03
-57.96
-66.22
-72.96
-77.99
-81.93
-85.85
-90.84
-97.64
-106.39
-116.61
-126.98
-135.37
-139.06
-135.36
-122.56
-100.79
-72.34
-41.19
-11.87
11.82
27.68
35.35
35.84
30.88
22.29
11.66
0.33
-10.60
-20.15
-27.51
-31.98
-33.09
-30.68
-24.82
-15.76
-3.68
11.31
29.05
48.97
69.69
89.05
104.58
114.30
117.58
115.44
110.23
104.76
101.26
100.82
103.30
107.76
113.02
118.10
122.39
125.70
128.14
130.07
131.98
134.36
137.52
141.42
145.54
148.82
149.91
147.56
141.11
130.91
118.40
105.67
94.78
87.03
82.55
80.48
79.52
78.62
77.29
75.55
73.43
70.47
65.43
56.52
41.96
20.82
-6.21
-36.48
-65.78
-89.40
-103.45
-106.11
-98.04
-82.09
-62.24
-42.56
-26.38
-16.01
-12.57
-16.09
-25.61
-39.35
-55.13
-70.99
-85.62
-98.54
-109.93
-120.21
-129.67
-138.30
-145.79
-151.62
-155.10
-155.53
-152.32
-145.46
-135.79
-125.21
-116.48
-112.59
-116.01
-127.98
-148.13
-174.63
-204.65
-235.15
-263.46
-287.62
-306.21
-318.17
-322.55
-318.69
-306.42
-286.47
-260.43
-230.42
-198.53
-166.15
-133.67
-100.50
-65.46
-27.44
13.81
57.12
99.72
137.72
167.23
185.60
192.24
188.68
177.75
162.49
145.26
127.60
110.60
95.32
82.90
74.17
69.10
66.63
65.01
62.60
58.57
53.10
47.11
41.60
37.12
33.57
30.38
26.84
22.55
17.51
12.13
6.94
2.38
-1.42
-4.64
-7.70
-11.03
-14.89
-19.22
-23.57
-27.32
-29.90
-31.14
-31.45
-31.86
-33.70
-38.10
-45.40
-54.63
-63.47
-68.64
-66.83
-55.76
-35.08
-6.68
25.73
57.60
84.81
104.69
116.40
120.76
119.57
114.89
108.51
101.76
95.65
90.87
87.95
87.09
88.05
90.18
92.64
94.65
95.83
96.20
96.05
95.68
95.20
94.43
92.99
90.47
86.58
81.26
74.76
67.54
60.24
53.47
47.63
42.80
38.67
34.66
30.23
25.06
19.27
13.33
7.87
3.39
0.04
-2.49
-4.90
-8.03
-12.56
-18.68
-26.02
-33.72
-40.75
-46.28
-49.97
-52.11
-53.51
-55.20
-58.10
-62.59
-68.18
-73.41
-75.89
-72.89
-62.14
-42.74
-15.75
15.79
47.65
75.59
96.43
108.75
112.87
110.27
102.86
92.51
80.74
68.86
58.05
49.34
43.49
40.78
40.91
43.04
46.10
49.06
51.24
52.36
52.52
51.94
50.78
48.95
46.17
42.09
36.56
29.78
22.30
14.87
8.19
2.64
-1.81
-5.54
-9.03
-12.67
-16.52
-20.32
-23.66
-26.18
-27.79
-28.78
-29.72
-31.25
-33.76
-37.24
-41.26
-45.21
-48.58
-51.17
-53.29
-55.56
-58.76
-63.59
-70.31
-78.53
-86.98
-93.55
-95.65
-90.91
-78.02
-57.41
-31.29
-3.20
23.05
44.37
59.04
66.81
68.53
65.58
59.40
51.29
42.43
33.93
26.82
21.94
19.79
20.38
23.24
27.61
32.58
37.36
41.41
44.45
46.38
47.21
46.89
45.28
42.25
37.76
32.03
25.54
19.00
13.09
8.26
4.53
1.53
-1.29
-4.43
-8.06
-11.98
-15.76
-18.94
-21.33
-23.06
-24.62
-26.62
-29.60
-33.84
-39.23
-45.35
-51.61
-57.48
-62.67
-67.22
-71.60
-76.49
-82.62
-90.39
-99.46
-108.49
-115.13
-116.57
-110.33
-95.23
-72.04
-43.47
-13.49
13.86
35.46
49.81
56.97
58.11
54.81
48.68
41.10
33.31
26.46
21.55
19.30
19.93
23.19
28.40
34.76
41.57
48.34
54.85
60.95
66.41
70.86
73.80
74.71
73.18
69.14
62.83
54.86
46.04
37.24
29.15
22.13
16.13
10.78
5.63
0.41
-4.81
-9.70
-13.79
-16.84
-18.91
-20.45
-22.02
-24.11
-26.90
-30.29
-33.90
-37.30
-40.14
-42.33
-44.05
-45.86
-48.58
-53.07
-59.88
-68.76
-78.38
-86.35
-89.79
-86.19
-74.34
-54.91
-30.40
-4.41
19.36
38.08
50.27
55.81
55.49
50.55
42.33
32.14
21.32
11.17
2.87
-2.76
-5.39
-5.23
-2.92
0.78
5.18
9.83
14.41
18.69
22.34
24.97
26.15
25.56
23.17
19.24
14.35
9.24
4.61
0.98
-1.51
-3.13
-4.36
-5.71
-7.45
-9.54
-11.67
-13.46
-14.74
-15.67
-16.75
-18.58
-21.64
-26.02
-31.40
-37.14
-42.50
-46.93
-50.23
-52.65
-54.89
-57.89
-62.46
-68.85
-76.35
-83.14
-86.62
-84.17
-74.06
-56.28
-32.67
-6.56
18.29
38.65
52.61
59.72
60.75
57.11
50.38
42.09
33.56
25.91
20.03
16.49
15.43
16.61
19.44
23.24
27.39
31.44
35.16
38.42
41.11
43.07
44.04
43.75
42.07
39.04
34.96
30.27
25.49
21.02
17.02
13.41
9.91
6.23
2.22
-2.06
-6.28
-10.04
-13.08
-15.44
-17.52
-19.91
-23.13
-27.42
-32.55
-38.00
-43.19
-47.73
-51.60
-55.14
-58.99
-63.85
-70.22
-78.13
-86.77
-94.34
-98.32
-96.02
-85.60
-66.81
-41.44
-12.84
14.92
38.29
55.01
64.41
67.15
64.64
58.48
50.18
41.04
32.23
24.73
19.31
16.44
16.16
18.14
21.79
26.38
31.18
35.58
39.13
41.48
42.43
41.86
39.69
35.90
30.59
24.00
16.52
8.64
0.81
-6.59
-13.31
-19.17
-24.05
-27.84
-30.56
-32.43
-33.90
-35.56
-37.89
-41.07
-44.86
-48.71
-52.03
-54.47
-56.10
-57.46
-59.34
-62.61
-67.86
-75.08
-83.44
-91.15
-95.70
-94.43
-85.36
-67.93
-43.41
-14.67
14.57
40.77
61.43
75.45
83.00
85.11
83.06
78.10
71.30
63.69
56.25
49.93
45.52
43.41
43.54
45.43
48.30
51.33
53.87
55.45
55.83
54.84
52.41
48.52
43.30
37.05
30.19
23.15
16.27
9.74
3.60
-2.18
-7.57
-12.49
-16.81
-20.42
-23.36
-25.78
-27.98
-30.33
-33.05
-36.23
-39.73
-43.27
-46.55
-49.32
-51.53
-53.35
-55.25
-57.93
-62.12
-68.18
-75.63
-82.88
-87.36
-86.15
-77.00
-59.34
-34.64
-6.18
21.95
46.04
63.64
73.93
77.42
75.41
69.46
61.09
51.68
42.53
34.81
29.41
26.83
26.98
29.28
32.84
36.70
40.15
42.81
44.71
46.03
47.01
47.63
47.66
46.70
44.44
40.92
36.58
32.15
28.29
25.27
22.87
20.43
17.27
13.01
7.82
2.30
-2.73
-6.67
-9.33
-11.03
-12.44
-14.30
-17.18
-21.32
-26.53
-32.32
-38.11
-43.41
-48.05
-52.24
-56.56
-61.77
-68.50
-76.87
-86.09
-94.40
-99.19
-97.76
-88.18
-70.11
-45.18
-16.66
11.41
35.40
52.90
63.14
66.78
65.25
60.21
53.14
45.29
37.69
31.30
26.91
25.07
25.87
28.95
33.57
38.87
44.07
48.66
52.34
54.95
56.26
55.97
53.77
49.52
43.40
35.97
27.98
20.23
13.22
7.14
1.83
-3.03
-7.72
-12.32
-16.71
-20.61
-23.79
-26.25
-28.25
-30.30
-32.95
-36.56
-41.18
-46.46
-51.84
-56.71
-60.68
-63.67
-66.02
-68.41
-71.65
-76.35
-82.58
-89.50
-95.29
-97.45
-93.50
-81.75
-62.09
-36.18
-7.19
21.05
45.01
62.29
72.01
74.77
72.16
66.16
58.68
51.18
44.60
39.49
36.12
34.61
35.02
37.16
40.61
44.69
48.62
51.71
53.61
54.28
53.92
52.69
50.60
47.48
43.12
37.47
30.79
23.61
16.59
10.31
5.14
1.19
-1.69
-3.83
-5.64
-7.51
-9.75
-12.47
-15.51
-18.56
-21.25
-23.33
-24.88
-26.29
-28.11
-30.88
-34.82
-39.69
-44.86
-49.57
-53.14
-55.31
-56.28
-56.73
-57.61
-59.92
-64.40
-71.12
-79.20
-86.62
-90.53
-87.87
-76.45
-55.81
-27.63
4.54
36.24
63.35
83.08
94.39
97.83
94.94
87.65
77.79
66.91
56.29
46.96
39.69
35.04
33.19
33.98
36.88
41.11
45.74
49.93
53.03
54.67
54.67
53.02
49.73
44.85
38.57
31.32
23.73
16.53
10.34
5.49
1.92
-0.74
-2.99
-5.19
-7.52
-9.90
-12.14
-14.08
-15.67
-16.98
-18.19
-19.44
-20.76
-22.04
-23.12
-23.92
-24.55
-25.35
-26.78
-29.21
-32.71
-36.97
-41.42
-45.50
-48.87
-51.62
-54.24
-57.43
-61.94
-68.22
-76.16
-84.89
-92.60
-96.85
-95.06
-85.43
-67.68
-43.43
-15.88
11.07
33.88
50.24
59.36
61.77
58.78
51.92
42.67
32.31
21.99
12.79
5.69
1.44
0.42
2.51
7.14
13.32
20.00
26.22
31.35
35.14
37.59
38.75
38.64
37.21
34.44
30.46
25.65
20.58
15.85
11.90
8.86
6.63
4.94
3.47
1.97
0.28
-1.64
-3.76
-5.93
-7.91
-9.52
-10.69
-11.66
-12.89
-14.96
-18.21
-22.58
-27.54
-32.29
-36.17
-38.92
-40.86
-42.80
-45.78
-50.77
-58.34
-68.32
-79.52
-89.77
-96.09
-95.52
-85.96
-67.12
-40.85
-10.73
18.80
43.77
61.55
71.25
73.52
69.97
62.54
53.09
43.20
34.18
27.02
22.38
20.59
21.56
24.84
29.67
35.20
40.64
45.41
49.21
51.97
53.72
54.46
54.11
52.49
49.41
44.84
38.97
32.29
25.44
19.05
13.61
9.29
5.95
3.20
0.58
-2.27
-5.48
-8.92
-12.31
-15.29
-17.62
-19.24
-20.39
-21.59
-23.46
-26.56
-31.08
-36.72
-42.77
-48.36
-52.82
-56.02
-58.40
-60.88
-64.54
-70.17
-77.92
-87.02
-95.62
-101.07
-100.49
-91.65
-73.87
-48.48
-18.70
11.24
37.26
56.53
67.96
72.07
70.36
64.63
56.48
47.23
37.95
29.60
23.10
19.14
18.02
19.59
23.23
28.04
33.13
37.79
41.60
44.39
46.05
46.46
45.40
42.67
38.19
32.15
25.05
17.52
10.20
3.56
-2.21
-7.11
-11.33
-15.12
-18.75
-22.43
-26.25
-30.21
-34.15
-37.84
-41.09
-43.85
-46.28
-48.72
-51.59
-55.11
-59.27
-63.70
-67.85
-71.10
-73.04
-73.61
-73.09
-72.11
-71.48
-72.01
-74.28
-78.34
-83.35
-87.47
-88.05
-82.33
-68.35
-45.82
-16.49
16.18
48.00
75.23
95.50
108.12
113.80
114.00
110.40
104.43
97.33
90.14
83.82
79.10
76.48
76.00
77.25
79.52
81.99
83.95
84.90
84.60
82.96
79.97
75.51
69.47
61.76
52.47
41.96
30.82
19.80
9.55
0.47
-7.40
-14.37
-20.89
-27.32
-33.72
-39.79
-44.93
-48.57
-50.36
-50.36
-49.06
-47.10
-45.07
-43.24
-41.47
-39.37
-36.52
-32.72
-28.13
-23.27
-18.85
-15.55
-13.83
-13.73
-14.91
-16.76
-18.67
-20.29
-21.71
-23.52
-26.65
-32.01
-39.97
-49.98
-60.27
-68.18
-70.71
-65.47
-51.61
-30.22
-4.18
22.62
46.29
63.90
73.96
76.44
72.38
63.50
51.74
39.01
26.96
16.88
9.57
5.32
3.96
4.96
7.57
11.04
14.74
18.28
21.54
24.60
27.57
30.40
32.78
34.19
34.17
32.51
29.46
25.69
22.11
19.53
18.36
18.54
19.53
20.67
21.38
21.40
20.80
19.86
18.89
17.97
16.97
15.58
13.51
10.64
7.13
3.35
-0.29
-3.56
-6.57
-9.76
-13.66
-18.67
-24.76
-31.47
-38.06
-43.81
-48.34
-51.70
-54.42
-57.28
-61.13
-66.54
-73.56
-81.44
-88.46
-92.24
-90.28
-80.78
-63.41
-39.60
-12.30
14.85
38.45
56.17
67.06
71.41
70.34
65.27
57.62
48.70
39.70
31.66
25.52
21.97
21.34
23.52
27.95
33.76
39.91
45.44
49.62
52.04
52.60
51.41
48.67
44.60
39.37
33.15
26.19
18.91
11.81
5.42
0.15
-3.85
-6.70
-8.72
-10.30
-11.82
-13.50
-15.44
-17.54
-19.59
-21.36
-22.69
-23.68
-24.66
-26.21
-28.84
-32.84
-38.05
-43.92
-49.73
-54.94
-59.39
-63.36
-67.50
-72.58
-79.25
-87.74
-97.63
-107.60
-115.50
-118.70
-114.83
-102.57
-82.32
-56.29
-27.98
-1.19
21.01
36.90
46.26
49.94
49.34
45.91
40.92
35.46
30.51
26.88
25.16
25.62
28.12
32.26
37.53
43.43
49.55
55.48
60.85
65.21
68.20
69.59
69.36
67.66
64.78
61.06
56.80
52.38
48.16
44.53
41.80
40.06
39.16
38.74
38.38
37.79
36.81
35.47
33.86
32.02
29.96
27.65
25.03
22.01
18.43
14.06
8.68
2.20
-5.23
-13.14
-20.91
-28.04
-34.30
-39.89
-45.33
-51.36
-58.71
-67.87
-78.76
-90.43
-100.93
-107.61
-107.85
-99.96
-84.07
-62.33
-38.42
-16.36
0.61
10.86
14.48
12.73
7.42
0.26
-7.34
-14.33
-19.83
-23.16
-23.83
-21.76
-17.22
-10.86
-3.49
4.12
11.41
18.13
24.23
29.79
34.79
39.10
42.42
44.44
45.00
44.14
42.15
39.41
36.39
33.47
30.94
28.92
27.39
26.17
24.97
23.52
21.61
19.24
16.60
14.05
11.86
10.06
8.34
6.07
2.58
-2.58
-9.34
-17.14
-25.11
-32.42
-38.64
-43.85
-48.59
-53.64
-59.80
-67.62
-77.22
-87.98
-98.36
-106.00
-108.14
-102.50
-88.17
-66.18
-39.40
-11.71
13.08
32.31
44.84
50.97
51.85
48.89
43.38
36.42
28.99
22.08
16.68
13.58
13.25
15.68
20.38
26.53
33.21
39.60
45.14
49.47
52.41
53.78
53.36
50.90
46.32
39.85
32.09
23.96
16.40
10.14
5.41
1.91
-1.01
-4.08
-7.70
-11.83
-16.02
-19.63
-22.21
-23.80
-24.95
-26.52
-29.32
-33.68
-39.33
-45.42
-50.96
-55.14
-57.72
-59.10
-60.15
-61.94
-65.33
-70.65
-77.36
-84.00
-88.27
-87.54
-79.57
-63.38
-39.79
-11.43
17.84
43.99
63.96
76.29
81.20
80.15
75.04
67.64
59.31
51.03
43.59
37.72
34.03
32.88
34.12
37.19
41.18
45.21
48.68
51.37
53.44
55.10
56.41
57.16
56.90
55.21
51.84
46.95
41.02
34.78
28.95
24.04
20.23
17.34
14.88
12.27
8.96
4.71
-0.33
-5.63
-10.52
-14.41
-17.12
-19.00
-20.77
-23.32
-27.30
-32.86
-39.55
-46.53
-52.84
-57.79
-61.18
-63.37
-65.19
-67.71
-71.93
-78.35
-86.63
-95.28
-101.78
-103.05
-96.40
-80.56
-56.29
-26.46
4.76
33.04
55.11
69.40
76.12
76.66
72.94
66.80
59.68
52.65
46.44
41.62
38.52
37.26
37.66
39.27
41.55
43.98
46.21
48.12
49.75
51.16
52.29
52.82
52.23
50.03
45.91
40.08
33.20
26.23
20.06
15.19
11.58
8.69
5.84
2.51
-1.41
-5.60
-9.50
-12.56
-14.54
-15.53
-16.02
-16.69
-18.25
-21.14
-25.48
-30.89
-36.70
-42.08
-46.45
-49.65
-52.10
-54.70
-58.50
-64.28
-72.04
-80.72
-88.20
-91.73
-88.77
-77.82
-59.08
-34.55
-7.53
18.24
39.61
54.64
62.86
64.99
62.44
56.79
49.48
41.69
34.36
28.30
24.16
22.35
22.97
25.69
29.86
34.62
39.18
42.95
45.63
47.20
47.75
47.36
46.04
43.71
40.38
36.17
31.40
26.41
21.56
17.02
12.82
8.91
5.24
1.84
-1.20
-3.81
-6.02
-7.95
-9.79
-11.73
-13.85
-16.13
-18.45
-20.73
-22.92
-25.17
-27.73
-30.91
-34.83
-39.36
-44.06
-48.41
-52.00
-54.79
-57.16
-59.86
-63.78
-69.67
-77.80
-87.62
-97.58
-105.17
-107.42
-101.70
-86.71
-63.16
-33.85
-2.89
25.37
47.64
62.31
69.58
70.88
68.23
63.58
58.53
54.17
51.16
49.73
49.73
50.73
52.14
53.38
54.00
53.79
52.72
50.98
48.85
46.57
44.30
41.94
39.18
35.62
30.98
25.28
18.93
12.58
6.86
2.12
-1.75
-5.13
-8.47
-12.02
-15.69
-19.09
-21.73
-23.21
-23.37
-22.41
-20.75
-18.94
-17.47
-16.66
-16.50
-16.74
-17.02
-17.09
-16.93
-16.82
-17.24
-18.59
-20.98
-24.18
-27.67
-30.92
-33.59
-35.70
-37.65
-40.13
-43.95
-49.71
-57.55
-66.72
-75.47
-81.20
-81.10
-73.06
-56.54
-33.02
-5.72
21.27
44.21
60.56
69.49
71.53
68.13
60.98
51.68
41.61
31.91
23.57
17.34
13.72
12.84
14.43
17.92
22.59
27.71
32.70
37.17
40.82
43.45
44.82
44.75
43.15
40.10
35.90
31.00
25.91
21.08
16.82
13.23
10.20
7.53
5.00
2.50
0.07
-2.08
-3.71
-4.74
-5.32
-5.75
-6.42
-7.58
-9.29
-11.47
-13.95
-16.63
-19.43
-22.35
-25.35
-28.33
-31.16
-33.69
-35.79
-37.33
-38.24
-38.56
-38.56
-38.83
-40.14
-43.24
-48.30
-54.47
-59.79
-61.55
-57.14
-45.05
-25.52
-0.58
26.58
52.34
73.28
86.42
89.49
81.28
62.18
34.64
2.99
-27.43
-51.60
-66.21
-70.34
-65.12
-52.92
-36.34
-17.64
1.27
18.71
33.23
43.68
49.46
50.82
48.68
44.41
39.42
34.49
29.95
25.70
21.40
16.76
11.76
6.78
2.59
0.06
-0.62
0.43
2.66
5.18
6.89
6.85
4.51
-0.03
-6.00
-12.97
-20.23
-27.12
-33.30
-38.98
-44.62
-50.58
-56.72
-62.28
-67.02
-70.34
-71.39
-69.32
-63.87
-55.48
-45.81
-37.41
-27.79
-17.20
-7.30
0.72
7.41
14.36
22.76
32.27
41.72
50.13
56.45
60.61
63.23
64.87
64.45
61.67
56.21
48.43
39.68
31.38
25.22
22.90
25.32
32.02
41.27
50.65
58.16
62.77
65.62
67.33
68.62
70.01
71.36
71.65
69.70
65.10
58.36
50.32
41.70
32.86
23.89
14.55
3.60
-9.70
-24.90
-40.39
-54.52
-66.41
-76.43
-85.39
-94.15
-104.88
-118.49
-133.82
-147.95
-157.81
-161.35
-158.79
-151.30
-140.65
-131.04
-125.87
-126.62
-132.69
-142.41
-153.46
-163.85
-170.47
-156.83
-114.62
-48.61
25.37
91.11
137.27
165.81
179.24
180.18
171.63
153.20
126.82
96.50
67.37
43.48
26.90
16.80
11.82
10.70
10.75
10.21
8.62
6.88
6.17
7.32
9.64
12.20
14.01
13.22
8.87
1.31
-7.88
-16.75
-23.72
-28.39
-30.77
-31.06
-30.12
-28.75
-27.55
-26.86
-26.90
-27.82
-29.94
-33.40
-38.20
-44.44
-52.03
-60.59
-69.48
-78.01
-85.69
-92.55
-99.04
-105.95
-114.21
-124.67
-137.85
-153.67
-171.14
-188.20
-201.86
-208.85
-206.51
-193.71
-171.17
-141.17
-106.56
-69.80
-32.49
4.45
40.03
72.68
100.18
120.38
132.16
136.05
134.14
129.27
124.04
120.17
118.39
118.83
121.51
126.53
133.95
143.47
154.18
164.62
173.19
178.63
180.50
179.33
176.45
173.40
171.20
169.86
168.25
164.47
156.63
143.59
125.34
103.06
78.62
54.04
30.97
10.37
-7.50
-22.92
-36.45
-48.67
-60.06
-70.89
-81.31
-91.40
-101.18
-110.64
-119.69
-128.32
-136.66
-145.04
-153.76
-162.61
-170.28
-174.34
-171.55
-158.82
-134.29
-98.08
-52.52
-1.67
49.38
95.47
132.19
156.56
167.42
165.42
152.69
132.20
107.10
80.28
54.17
30.64
11.09
-3.56
-12.79
-16.37
-14.25
-6.53
6.26
23.03
41.95
60.81
77.42
90.11
97.95
100.55
97.85
89.92
77.18
60.76
42.78
26.17
13.92
8.21
9.73
17.51
29.37
42.50
54.11
61.87
64.10
59.93
49.36
33.29
13.37
-8.48
-30.48
-51.41
-70.71
-88.19
-103.70
-116.78
-126.60
-132.03
-131.85
-125.09
-111.44
-91.57
-67.37
-41.56
-16.94
4.51
22.22
36.93
49.93
62.06
73.20
82.37
88.48
91.01
90.23
86.93
81.78
75.02
66.41
55.81
43.46
30.11
16.81
4.56
-6.10
-15.17
-23.06
-30.15
-36.26
-40.67
-42.22
-39.91
-33.18
-22.13
-7.49
9.54
27.50
45.01
60.48
72.22
78.75
79.49
75.23
67.90
59.85
52.97
48.95
48.36
50.45
53.44
55.18
53.79
47.87
36.66
20.10
0.54
-19.06
-36.36
-50.17
-59.78
-64.13
-61.66
-50.91
-31.28
-1.18
38.97
85.32
131.13
169.25
194.71
205.78
203.72
192.07
178.94
172.60
178.10
196.16
224.48
259.47
296.95
332.12
340.39
305.45
228.44
128.90
31.80
-46.17
-99.63
-130.94
-146.03
-151.25
-149.58
-141.22
-127.53
-112.00
-98.99
-91.67
-91.35
-97.95
-110.83
-127.32
-141.55
-152.06
-160.80
-171.11
-185.19
-202.92
-222.07
-239.19
-249.41
-249.20
-238.95
-222.22
-203.95
-188.36
-177.82
-172.83
-172.68
-175.25
-178.23
-180.34
-180.89
-179.39
-175.46
-168.97
-160.52
-151.52
-143.54
-138.04
-136.36
-138.99
-145.39
-154.04
-162.88
-169.79
-173.00
-171.21
-163.44
-148.96
-127.11
-97.61
-61.09
-19.63
23.31
63.52
97.26
122.31
138.42
147.00
150.18
149.72
146.58
140.98
133.00
123.08
112.10
101.09
90.72
81.04
71.64
62.09
52.38
43.13
35.26
29.53
26.01
23.93
21.97
18.84
13.79
6.96
-0.85
-8.53
-15.22
-20.73
-25.53
-30.61
-37.10
-45.83
-56.98
-69.68
-81.90
-90.63
-92.55
-85.05
-67.27
-40.70
-9.02
22.95
50.59
70.81
82.59
86.72
84.98
79.36
71.47
62.52
53.57
45.67
39.82
36.81
36.89
39.70
44.41
50.01
55.63
60.73
65.11
68.72
71.50
73.22
73.45
71.74
67.85
61.90
54.54
46.75
39.59
33.82
29.61
26.50
23.66
20.22
15.73
10.32
4.65
-0.37
-3.98
-5.95
-6.69
-7.15
-8.49
-11.65
-16.98
-24.12
-32.12
-39.77
-46.12
-50.81
-54.20
-57.38
-61.71
-68.42
-77.94
-89.47
-100.77
-108.47
-108.93
-99.40
-79.08
-49.57
-14.61
21.04
52.84
77.58
93.89
102.05
103.50
100.10
93.74
86.11
78.65
72.63
69.02
68.46
71.08
76.46
83.73
91.83
99.87
107.28
113.97
120.08
125.76
130.95
135.29
138.23
139.30
138.35
135.58
131.58
127.14
123.15
120.48
119.79
121.25
124.27
127.30
128.12
124.33
114.27
97.60
75.46
50.08
23.88
-1.35
-24.86
-46.85
-67.95
-88.62
-108.74
-127.58
-144.09
-157.33
-166.95
-173.42
-178.07
-182.90
-190.00
-200.87
-215.80
-233.32
-250.34
-262.63
-265.91
-257.10
-235.49
-203.32
-165.40
-127.87
-96.30
-74.06
-61.33
-55.43
-52.16
-47.68
-39.98
-29.44
-18.21
-8.84
-3.03
-0.80
-0.77
-0.87
0.64
4.67
11.20
19.58
29.05
38.91
48.60
57.44
64.62
69.29
70.79
69.04
64.63
58.77
52.98
48.61
46.41
46.35
47.66
49.19
49.88
49.14
47.16
44.74
42.93
42.52
43.64
45.67
47.45
47.82
46.05
42.25
37.25
32.25
28.35
26.11
25.45
25.75
26.05
25.38
23.03
18.90
13.79
9.53
8.80
14.43
28.43
51.05
80.35
112.63
143.50
169.20
187.58
198.48
203.31
204.26
203.34
201.58
198.73
193.49
184.07
168.93
147.34
119.75
87.73
53.62
20.11
-10.26
-35.48
-54.29
-66.33
-72.21
-73.37
-71.87
-69.90
-69.34
-71.29
-75.88
-82.40
-89.53
-95.96
-100.73
-103.54
-104.66
-104.62
-103.89
-102.72
-101.07
-98.81
-95.87
-92.37
-88.61
-85.06
-82.18
-80.34
-79.67
-79.98
-80.74
-81.26
-80.88
-79.32
-76.91
-74.62
-73.87
-75.96
-81.47
-89.57
-97.88
-102.85
-100.75
-88.94
-66.97
-36.91
-2.84
30.37
58.42
78.65
90.30
94.16
91.89
85.30
75.97
65.21
54.22
44.07
35.71
29.81
26.59
25.91
27.29
30.18
34.04
38.40
42.85
46.92
50.11
51.90
51.87
49.77
45.68
40.02
33.41
26.57
20.08
14.27
9.18
4.66
0.56
-3.10
-6.16
-8.36
-9.63
-10.15
-10.46
-11.29
-13.21
-16.45
-20.75
-25.47
-29.86
-33.33
-35.69
-37.19
-38.40
-40.17
-43.33
-48.43
-55.29
-62.61
-67.89
-67.89
-59.58
-41.35
-13.84
20.00
55.73
88.72
115.45
134.13
144.73
148.45
147.08
142.50
136.39
130.08
124.49
120.03
116.66
113.95
111.32
108.23
104.27
99.22
93.01
85.67
77.28
67.86
57.33
45.41
31.68
15.77
-2.37
-22.31
-43.11
-63.58
-82.62
-99.64
-114.62
-127.98
-140.29
-151.83
-162.45
-171.61
-178.59
-182.85
-184.28
-183.24
-180.44
-176.74
-172.86
-169.23
-165.99
-163.08
-160.47
-158.25
-156.77
-156.61
-158.40
-162.56
-168.79
-175.69
-180.73
-180.56
-172.03
-153.33
-124.92
-89.65
-52.06
-16.97
11.83
32.44
44.79
50.10
50.14
46.63
41.15
35.17
30.06
27.03
26.85
29.72
35.28
42.71
51.06
59.45
67.22
74.01
79.67
84.16
87.42
89.25
89.38
87.55
83.70
78.19
71.69
65.11
59.28
54.71
51.47
49.21
47.30
45.16
42.47
39.36
36.39
34.26
33.55
34.35
36.25
38.44
40.09
40.67
40.13
38.87
37.45
36.28
35.42
34.56
33.05
30.04
24.70
16.51
5.70
-6.52
-17.79
-25.14
-25.80
-18.31
-3.25
16.72
37.60
55.28
66.69
70.54
67.23
58.29
45.68
31.22
16.42
2.56
-9.16
-17.66
-22.19
-22.56
-19.44
-14.12
-8.15
-2.82
1.19
3.89
5.60
6.52
6.49
5.02
1.64
-3.69
-10.37
-17.31
-23.35
-27.64
-29.87
-30.26
-29.37
-27.78
-25.92
-24.00
-22.05
-20.06
-18.10
-16.42
-15.41
-15.51
-17.07
-20.17
-24.62
-29.99
-35.79
-41.66
-47.48
-53.37
-59.68
-66.76
-74.70
-83.03
-90.45
-94.89
-93.88
-85.38
-68.54
-44.32
-15.39
14.56
41.88
63.95
79.62
89.07
93.25
93.25
89.91
83.80
75.46
65.64
55.48
46.38
39.72
36.51
37.13
41.19
47.60
54.84
61.33
65.78
67.37
65.83
61.40
54.65
46.44
37.66
29.17
21.60
15.28
10.21
6.16
2.77
-0.27
-3.20
-6.17
-9.31
-12.74
-16.54
-20.77
-25.32
-29.97
-34.40
-38.27
-41.38
-43.73
-45.63
-47.72
-50.79
-55.60
-62.50
-70.99
-79.52
-85.55
-86.17
-78.97
-63.04
-39.54
-11.54
16.71
41.08
58.61
68.11
70.11
66.26
58.69
49.34
39.80
31.19
24.34
19.79
17.84
18.42
21.15
25.38
30.33
35.29
39.82
43.70
46.92
49.54
51.51
52.70
52.89
51.90
49.73
46.58
42.77
38.63
34.32
29.78
24.74
18.95
12.35
5.20
-2.04
-8.98
-15.61
-22.38
-30.09
-39.52
-51.03
-64.35
-78.54
-92.21
-103.73
-111.66
-115.19
-114.48
-110.78
-106.03
-102.09
-99.67
-97.82
-94.16
-85.96
-71.60
-51.57
-28.53
-6.43
10.98
21.38
24.37
21.23
14.22
5.90
-1.42
-6.04
-7.08
-4.68
0.14
5.77
10.58
13.57
14.60
14.37
14.09
14.96
17.79
22.87
29.80
37.61
44.92
50.17
52.06
49.89
43.89
35.01
24.73
14.51
5.49
-1.65
-6.79
-10.20
-12.53
-14.60
-17.28
-21.08
-26.01
-31.47
-36.44
-39.93
-41.31
-40.63
-38.58
-36.26
-35.01
-36.07
-40.39
-48.27
-59.03
-70.76
-80.46
-84.72
-80.69
-67.15
-45.01
-17.15
12.43
39.81
62.15
78.22
88.29
93.69
96.22
97.60
99.21
102.00
106.48
112.78
120.65
129.56
138.59
146.60
152.43
155.12
154.26
150.04
143.14
134.28
123.89
111.77
97.27
79.61
58.43
34.20
8.22
-17.59
-41.26
-61.13
-76.11
-85.61
-89.35
-87.30
-79.63
-66.93
-50.37
-31.75
-13.28
2.71
14.25
19.89
18.91
11.28
-2.42
-21.18
-43.78
-69.01
-95.86
-123.31
-150.08
-174.13
-192.65
-202.45
-200.92
-187.08
-162.36
-130.40
-96.22
-64.70
-39.33
-21.49
-10.61
-4.95
-2.48
-1.65
-1.57
-1.83
-2.23
-2.47
-2.18
-1.05
1.00
3.70
6.54
9.00
10.75
11.76
12.27
12.50
12.48
11.89
10.24
7.06
2.21
-4.01
-10.95
-17.84
-24.07
-29.20
-32.90
-34.94
-35.16
-33.73
-31.17
-28.22
-25.40
-22.63
-19.21
-14.26
-7.39
0.81
8.79
14.75
17.39
16.48
12.80
7.57
1.82
-4.12
-10.53
-18.10
-27.53
-39.27
-53.28
-68.69
-83.69
-95.49
-100.80
-96.81
-82.24
-58.10
-27.78
3.87
31.89
52.63
64.57
68.30
65.87
59.76
52.10
44.42
37.65
32.47
29.41
28.91
31.08
35.63
41.83
48.73
55.47
61.52
66.70
71.18
75.15
78.68
81.57
83.39
83.66
82.18
79.17
75.28
71.40
68.18
65.76
63.65
61.04
57.30
52.38
46.91
41.90
38.27
36.42
36.14
36.82
37.72
38.23
37.92
36.46
33.66
29.53
24.35
18.59
12.74
6.99
1.04
-5.91
-14.93
-26.97
-42.32
-60.16
-78.34
-93.56
-102.00
-100.44
-87.40
-63.89
-33.34
-0.65
29.21
52.54
67.57
74.38
74.20
68.73
59.66
48.53
36.90
26.26
18.00
13.06
11.80
13.96
18.77
25.24
32.28
38.96
44.53
48.55
50.80
51.17
49.53
45.66
39.41
30.90
20.76
10.16
0.51
-7.00
-11.82
-14.14
-14.77
-14.71
-14.80
-15.53
-16.97
-18.83
-20.68
-22.07
-22.82
-23.22
-23.95
-25.89
-29.67
-35.24
-41.81
-48.13
-52.97
-55.69
-56.45
-56.06
-55.74
-56.74
-60.05
-66.14
-74.54
-83.62
-90.60
-92.12
-85.35
-69.18
-44.95
-16.17
12.54
36.96
54.41
64.12
66.79
63.75
56.31
45.53
32.42
18.23
4.50
-7.10
-15.16
-18.81
-17.79
-12.41
-3.38
8.22
21.11
33.88
45.11
53.60
58.52
59.45
56.40
49.85
40.68
30.16
19.79
10.97
4.68
1.22
0.18
0.68
1.70
2.35
1.99
0.22
-3.10
-7.83
-13.45
-19.11
-23.81
-26.73
-27.58
-26.73
-25.11
-23.93
-24.39
-27.39
-33.39
-42.25
-53.01
-63.84
-72.19
-75.19
-70.50
-57.07
-35.69
-8.97
19.27
44.98
64.87
77.18
81.78
79.84
73.16
63.54
52.42
40.88
29.78
19.99
12.37
7.59
5.87
6.90
9.96
14.18
18.83
23.44
27.72
31.36
33.93
34.87
33.69
30.16
24.38
16.87
8.42
-0.03
-7.54
-13.36
-17.13
-19.04
-19.84
-20.60
-22.37
-25.76
-30.70
-36.55
-42.41
-47.48
-51.41
-54.27
-56.46
-58.55
-61.22
-65.19
-71.03
-78.75
-87.33
-94.52
-97.14
-92.04
-77.27
-53.09
-22.10
11.43
42.79
68.19
85.48
94.25
95.38
90.33
80.63
67.70
52.89
37.69
23.70
12.57
5.62
3.48
5.93
11.91
19.83
28.01
35.07
40.13
42.82
43.10
41.11
37.07
31.24
23.98
15.72
6.93
-1.89
-10.34
-18.06
-24.80
-30.50
-35.28
-39.47
-43.50
-47.79
-52.56
-57.73
-62.93
-67.58
-71.14
-73.28
-74.17
-74.42
-75.10
-77.41
-82.30
-90.06
-99.92
-110.00
-117.50
-119.32
-112.88
-97.02
-72.49
-41.98
-9.48
20.72
45.14
61.78
70.24
71.39
66.70
57.84
46.38
33.86
21.82
11.78
5.00
2.24
3.54
8.22
15.08
22.68
29.68
35.02
38.05
38.61
36.97
33.74
29.59
25.13
20.71
16.45
12.36
8.53
5.20
2.69
1.18
0.54
0.28
-0.26
-1.63
-3.99
-7.04
-10.25
-13.07
-15.17
-16.54
-17.37
-17.91
-18.47
-19.50
-21.71
-26.01
-33.22
-43.39
-55.30
-66.22
-72.48
-70.51
-58.18
-35.75
-5.98
26.56
56.91
81.03
96.70
103.63
102.93
96.47
86.18
73.72
60.51
47.79
36.80
28.68
24.33
24.04
27.39
33.26
40.13
46.54
51.55
54.80
56.43
56.72
55.78
53.48
49.59
44.00
36.89
28.72
20.07
11.52
3.47
-3.76
-9.97
-15.01
-18.89
-21.81
-24.20
-26.63
-29.58
-33.29
-37.58
-41.97
-45.90
-48.96
-51.08
-52.65
-54.44
-57.38
-62.30
-69.51
-78.32
-86.77
-91.76
-89.76
-77.98
-55.60
-24.35
11.66
47.16
77.22
98.54
109.99
112.33
107.36
97.20
83.85
69.12
54.84
42.88
34.92
32.12
34.72
41.92
52.18
63.67
74.78
84.44
92.19
97.94
101.79
103.92
104.59
104.19
103.12
101.58
99.36
95.75
89.85
81.01
69.28
55.46
40.90
26.92
14.40
3.50
-6.18
-15.24
-24.14
-32.86
-40.96
-47.73
-52.62
-55.54
-57.11
-58.64
-61.85
-68.48
-79.75
-95.74
-114.93
-133.97
-148.11
-152.26
-142.64
-118.30
-81.94
-39.34
2.16
35.91
57.58
65.90
62.11
48.91
29.31
5.99
-18.75
-42.79
-64.06
-80.69
-91.41
-95.86
-94.74
-89.66
-82.66
-75.61
-69.82
-65.78
-63.36
-62.07
-61.40
-61.04
-60.97
-61.45
-62.90
-65.76
-70.31
-76.47
-83.68
-90.88
-96.71
-99.91
-99.75
-96.35
-90.76
-84.64
-79.69
-76.99
-76.54
-77.38
-77.99
-77.04
-73.98
-69.24
-63.96
-59.54
-57.18
-57.57
-60.65
-65.41
-69.76
-70.74
-65.11
-50.44
-26.20
5.68
41.11
75.02
102.96
122.30
132.70
135.71
133.76
129.24
123.87
118.68
114.28
111.29
110.43
112.42
117.54
125.38
134.74
143.92
151.16
155.14
155.10
150.80
142.30
129.81
113.83
95.33
75.91
57.54
42.07
30.65
23.44
19.66
18.06
17.48
17.29
17.52
18.68
21.39
25.97
32.23
39.41
46.32
51.59
54.02
53.01
48.76
42.39
35.65
30.29
27.42
26.85
26.99
25.29
19.20
7.55
-8.59
-25.61
-38.32
-41.61
-32.46
-11.17
18.43
50.17
77.53
95.58
102.22
98.13
85.93
68.81
49.42
29.53
10.17
-7.84
-23.49
-35.53
-42.72
-44.29
-40.19
-31.17
-18.59
-4.13
10.41
23.29
32.95
38.16
38.30
33.71
25.82
16.91
9.50
5.42
5.17
7.87
11.85
15.65
18.77
21.65
25.07
29.13
32.71
33.65
29.66
19.26
2.42
-19.55
-44.59
-70.51
-95.51
-118.39
-138.64
-156.40
-172.27
-186.68
-199.29
-208.49
-211.62
-205.99
-190.16
-165.11
-134.38
-103.13
-76.51
-58.20
-49.54
-49.72
-56.67
-68.04
-81.89
-96.79
-111.57
-124.93
-135.21
-140.57
-139.53
-131.45
-117.03
-98.22
-77.79
-58.62
-42.98
-32.10
-26.09
-24.22
-25.32
-28.08
-31.28
-33.87
-35.12
-34.80
-33.21
-31.12
-29.50
-29.11
-30.25
-32.65
-35.76
-38.97
-41.86
-44.32
-46.42
-48.34
-50.29
-52.48
-55.10
-58.31
-62.10
-66.35
-70.87
-75.63
-80.93
-87.37
-95.42
-104.77
-113.71
-119.10
-117.09
-104.47
-80.13
-45.80
-5.82
34.15
68.76
94.38
109.75
115.68
114.37
108.55
100.88
93.59
88.29
85.92
86.75
90.38
95.91
102.11
107.70
111.56
112.98
111.79
108.31
103.18
97.07
90.41
83.33
75.73
67.52
58.80
49.86
41.05
32.60
24.54
16.73
9.02
1.54
-5.32
-10.85
-14.37
-15.51
-14.48
-12.19
-9.93
-8.98
-10.13
-13.40
-18.08
-23.05
-27.34
-30.49
-32.72
-34.91
-38.35
-44.31
-53.55
-65.76
-79.11
-90.25
-94.93
-89.22
-70.99
-40.92
-2.59
38.53
76.69
107.47
128.59
139.92
142.74
138.93
130.40
118.97
106.41
94.51
84.82
78.37
75.43
75.46
77.47
80.35
83.29
85.85
87.90
89.36
89.98
89.30
86.71
81.68
73.96
63.77
51.86
39.33
27.46
17.29
9.29
3.15
-2.11
-7.65
-14.25
-21.80
-29.37
-35.60
-39.35
-40.28
-39.03
-36.90
-35.33
-35.39
-37.41
-41.04
-45.48
-49.84
-53.50
-56.35
-58.88
-62.02
-66.77
-73.57
-81.81
-89.44
-93.34
-90.01
-76.83
-53.09
-20.53
16.95
54.39
87.12
111.94
127.57
134.41
133.86
127.63
117.37
104.65
91.08
78.35
67.96
60.89
57.38
56.89
58.47
61.09
63.98
66.65
68.82
70.20
70.37
68.80
64.97
58.53
49.50
38.34
25.90
13.36
1.83
-7.87
-15.58
-21.73
-27.12
-32.47
-38.01
-43.36
-47.69
-50.18
-50.50
-48.97
-46.57
-44.53
-43.88
-45.12
-48.07
-51.94
-55.72
-58.53
-59.97
-60.25
-60.17
-60.89
-63.46
-68.29
-74.70
-80.69
-83.28
-79.28
-66.40
-44.18
-14.47
19.01
51.69
79.37
99.21
110.07
112.28
107.12
96.32
81.74
65.31
48.93
34.41
23.21
16.27
13.85
15.58
20.52
27.50
35.27
42.75
49.12
53.90
56.80
57.68
56.41
52.96
47.38
39.97
31.32
22.23
13.51
5.71
-1.02
-6.92
-12.43
-17.82
-23.04
-27.72
-31.43
-33.99
-35.67
-37.13
-39.07
-41.90
-45.56
-49.52
-53.10
-55.77
-57.36
-58.17
-58.98
-60.95
-65.33
-72.93
-83.65
-95.88
-106.58
-111.86
-108.19
-93.60
-68.63
-36.30
-1.24
31.63
58.35
76.75
86.44
88.41
84.29
75.85
64.70
52.29
40.03
29.33
21.44
17.22
16.93
20.18
26.10
33.71
42.13
50.68
58.75
65.61
70.41
72.31
70.78
65.82
58.01
48.35
37.91
27.64
18.13
9.64
2.19
-4.32
-9.96
-14.80
-18.87
-22.38
-25.67
-29.23
-33.48
-38.62
-44.49
-50.68
-56.69
-62.18
-67.06
-71.53
-76.08
-81.40
-88.25
-97.14
-107.79
-118.67
-126.87
-128.72
-120.99
-102.21
-73.58
-38.89
-3.44
27.51
50.20
63.08
66.66
62.82
53.91
42.09
29.16
16.65
5.98
-1.43
-4.34
-2.02
5.40
16.81
30.29
43.59
54.69
62.21
65.63
65.13
61.36
55.19
47.52
39.22
31.07
23.67
17.39
12.28
8.12
4.60
1.37
-1.82
-5.15
-8.81
-13.00
-17.86
-23.35
-29.13
-34.61
-39.14
-42.34
-44.32
-45.75
-47.74
-51.46
-57.75
-66.73
-77.59
-88.51
-96.91
-99.88
-94.92
-80.72
-57.69
-28.17
4.04
34.56
59.52
76.42
84.51
84.60
78.46
68.13
55.44
41.86
28.63
16.95
8.09
3.17
2.84
6.96
14.53
24.00
33.75
42.60
50.05
56.11
60.93
64.39
66.03
65.16
61.26
54.31
44.90
34.12
23.26
13.52
5.71
0.05
-3.74
-6.40
-8.83
-11.79
-15.65
-20.35
-25.44
-30.35
-34.62
-38.05
-40.83
-43.48
-46.89
-52.00
-59.46
-69.07
-79.31
-87.30
-89.37
-82.19
-63.98
-35.37
0.56
39.14
75.35
105.13
126.07
137.54
140.30
135.95
126.49
114.07
100.85
88.79
79.45
73.73
71.70
72.63
75.21
77.88
79.22
78.33
74.93
69.32
62.04
53.54
43.94
32.98
20.29
5.74
-10.22
-26.57
-41.94
-55.15
-65.58
-73.39
-79.29
-84.08
-88.20
-91.50
-93.31
-92.78
-89.28
-82.68
-73.53
-63.00
-52.77
-44.71
-40.33
-40.09
-42.65
-44.59
-40.85
-25.98
4.06
50.28
109.85
176.41
241.64
297.29
337.22
358.53
361.75
349.97
327.54
298.81
267.29
235.44
204.69
175.80
148.96
123.87
99.73
75.41
49.84
22.49
-6.15
-34.53
-60.37
-81.37
-96.05
-104.34
-107.62
-108.22
-108.59
-110.48
-114.60
-120.74
-128.20
-136.25
-144.38
-152.36
-160.01
-167.15
-173.62
-179.32
-184.30
-188.59
-192.13
-194.54
-195.27
-193.79
-189.90
-183.91
-176.63
-169.22
-162.92
-158.73
-157.19
-158.02
-159.87
-160.37
-156.53
-145.66
-126.56
-100.26
-70.21
-41.30
-18.48
-5.20
-2.74
-10.28
-25.79
-47.02
-72.06
-99.41
-127.50
-154.31
-177.15
-193.09
-199.54
-194.96
-179.30
-154.10
-122.09
-86.63
-51.09
-18.42
9.15
30.18
43.99
50.62
50.76
45.58
36.42
24.45
10.50
-4.85
-21.06
-37.46
-53.28
-67.82
-80.60
-91.64
-101.43
-110.80
-120.71
-131.93
-144.93
-159.64
-175.35
-190.38
-202.41
-208.93
-207.90
-198.18
-179.81
-153.89
-122.21
-86.64
-48.34
-8.41
31.54
69.04
101.16
125.35
140.23
146.09
144.95
141.15
139.06
141.54
149.24
161.14
175.56
190.99
206.37
221.33
237.49
256.07
276.52
296.34
312.37
322.30
325.67
323.62
318.62
315.76
319.36
331.22
349.99
372.46
394.81
413.56
425.65
414.22
369.43
294.60
206.48
124.42
60.09
15.41
-13.11
-33.11
-49.44
-62.45
-71.78
-78.36
-85.38
-93.55
-103.23
-113.62
-123.73
-132.88
-139.59
-143.21
-144.12
-143.60
-142.85
-142.81
-143.74
-145.73
-148.36
-149.88
-148.47
-143.25
-135.01
-125.85
-118.62
-115.67
-118.33
-126.40
-137.97
-150.62
-162.37
-172.37
-180.86
-188.85
-197.44
-207.42
-219.00
-231.74
-244.89
-257.73
-269.68
-280.21
-288.84
-295.10
-298.74
-299.85
-298.83
-296.04
-291.33
-283.83
-272.15
-255.08
-232.32
-204.78
-174.43
-143.51
-113.73
-85.85
-59.81
-35.23
-12.00
9.63
29.22
46.67
62.49
77.80
94.03
112.48
134.06
158.98
186.65
215.57
243.48
267.75
286.10
297.35
301.86
301.32
298.06
294.06
290.28
286.51
281.83
275.28
266.38
255.22
242.21
227.79
212.17
195.47
177.77
159.33
140.55
121.94
103.96
86.94
71.10
56.48
42.99
30.36
18.22
6.29
-5.47
-16.73
-26.93
-35.49
-42.12
-47.03
-50.78
-54.19
-58.12
-63.32
-70.39
-79.46
-89.84
-99.74
-106.20
-105.79
-95.70
-74.97
-45.13
-9.98
25.58
57.05
81.45
97.71
106.27
108.34
105.31
98.54
89.51
79.95
71.80
66.79
65.96
69.38
76.18
84.96
94.33
103.16
110.75
116.60
120.24
121.19
119.05
113.62
105.08
93.99
81.24
67.89
55.10
43.96
35.31
29.50
26.15
24.13
21.85
17.79
11.08
1.89
-8.69
-19.20
-28.47
-36.18
-42.94
-50.09
-58.97
-70.33
-83.76
-97.58
-109.00
-114.88
-112.58
-100.92
-80.76
-54.90
-27.46
-2.72
15.97
26.87
29.94
26.40
18.10
6.93
-5.38
-17.35
-27.65
-35.19
-39.21
-39.46
-36.25
-30.37
-22.83
-14.58
-6.36
1.34
8.22
14.03
18.56
21.67
23.31
23.56
22.65
20.86
18.48
15.79
13.10
10.72
8.93
7.94
7.67
7.72
7.44
6.05
3.11
-1.34
-6.63
-11.73
-15.64
-17.86
-18.58
-18.58
-18.79
-19.88
-21.95
-24.55
-27.05
-28.96
-30.35
-31.83
-34.51
-39.63
-48.29
-61.11
-77.93
-97.57
-117.74
-135.22
-146.45
-148.39
-139.51
-120.31
-93.44
-62.94
-33.13
-7.51
11.97
25.01
32.50
35.86
36.45
35.36
33.33
30.96
28.74
27.10
26.26
26.17
26.49
26.80
26.82
26.62
26.68
27.69
30.30
34.81
41.00
48.24
55.75
62.85
69.19
74.64
79.10
82.16
83.07
80.76
74.30
63.31
48.30
30.68
12.43
-4.42
-18.37
-28.70
-35.49
-39.30
-40.81
-40.50
-38.70
-35.70
-32.01
-28.50
-26.29
-26.54
-30.19
-37.82
-49.55
-64.88
-82.49
-99.94
-113.73
-119.82
-114.79
-97.02
-67.66
-30.65
8.37
43.60
70.68
87.54
94.30
92.62
84.72
72.72
58.47
43.57
29.56
17.83
9.45
4.94
4.11
6.28
10.52
15.98
22.08
28.46
34.79
40.59
45.13
47.64
47.47
44.44
38.86
31.50
23.32
15.26
8.02
2.06
-2.51
-5.84
-8.36
-10.71
-13.66
-17.94
-24.02
-31.91
-41.12
-50.75
-59.75
-67.27
-72.92
-76.85
-79.78
-82.75
-86.91
-93.02
-101.04
-109.71
-116.52
-118.17
-111.54
-94.91
-68.87
-36.41
-2.21
28.71
52.38
66.77
71.88
69.29
61.37
50.71
39.64
30.16
23.80
21.52
23.62
29.68
38.61
48.90
58.93
67.32
73.19
76.27
76.81
75.33
72.38
68.31
63.24
57.15
49.99
41.81
32.77
23.20
13.51
4.22
-4.20
-11.41
-17.36
-22.27
-26.56
-30.65
-34.71
-38.66
-42.19
-44.98
-46.88
-48.02
-48.84
-49.99
-52.29
-56.57
-63.33
-72.35
-82.32
-90.70
-94.22
-89.80
-75.66
-52.18
-22.03
10.54
40.94
65.48
82.20
90.92
92.73
89.36
82.53
73.75
64.27
55.18
47.42
41.69
38.35
37.38
38.49
41.25
45.26
50.19
55.76
61.57
67.06
71.45
73.96
73.98
71.32
66.29
59.62
52.23
44.91
38.10
31.87
26.03
20.35
14.75
9.38
4.50
0.28
-3.34
-6.68
-10.23
-14.36
-19.20
-24.48
-29.67
-34.21
-37.74
-40.29
-42.32
-44.69
-48.44
-54.47
-63.07
-73.45
-83.46
-89.82
-88.94
-78.04
-56.37
-25.71
9.87
45.14
75.16
96.48
107.77
109.55
103.54
91.88
76.62
59.54
42.21
26.02
12.16
1.55
-5.39
-8.78
-9.32
-8.15
-6.56
-5.69
-6.31
-8.73
-12.93
-18.83
-26.49
-36.14
-48.01
-61.98
-77.31
-92.62
-106.09
-115.91
-120.74
-120.09
-114.55
-105.66
-95.57
-86.44
-79.76
-75.90
-74.00
-72.42
-69.44
-63.96
-55.85
-45.81
-34.99
-24.39
-14.62
-5.74
2.54
10.76
19.59
29.71
41.68
55.67
71.33
87.85
104.44
121.00
138.66
159.40
185.40
217.72
255.14
293.90
328.56
353.73
365.89
364.40
351.09
329.30
302.50
273.20
242.64
211.15
178.72
145.29
110.79
74.62
36.26
-4.19
-45.38
-84.68
-118.71
-144.52
-160.87
-168.90
-172.73
-177.15
-185.81
-200.21
-219.91
-243.28
-268.37
-293.32
-316.74
-339.40
-361.89
-384.00
-405.07
-424.85
-443.68
-461.78
-478.38
-491.49
-501.15
-506.43
-505.26
-495.16
-474.86
-445.01
-407.56
-365.01
-319.84
-277.84
-243.10
-216.58
-196.73
-181.59
-170.38
-163.22
-160.17
-137.62
-84.61
-6.03
81.13
160.43
223.40
268.18
296.07
309.60
312.69
306.61
293.00
275.60
259.66
249.30
245.80
247.77
252.66
254.55
247.01
227.46
198.56
167.16
140.91
125.23
122.09
130.11
145.64
162.79
176.73
185.16
188.27
187.33
183.53
177.55
169.72
160.14
148.50
134.98
120.61
106.97
95.33
86.07
78.60
71.72
63.99
54.07
41.15
25.11
6.43
-14.17
-35.90
-57.86
-79.07
-98.51
-115.31
-129.24
-140.77
-150.86
-160.28
-168.76
-174.56
-174.66
-165.72
-145.34
-113.27
-71.94
-25.98
19.02
57.96
87.45
106.23
114.88
115.00
108.54
97.40
83.37
68.34
54.33
43.27
36.57
34.83
37.64
43.79
51.71
59.89
67.16
72.78
76.28
77.33
75.60
70.76
62.68
51.53
38.03
23.37
9.04
-3.63
-13.79
-21.36
-26.92
-31.47
-36.01
-41.22
-47.32
-54.11
-61.12
-67.86
-74.01
-79.74
-85.72
-92.97
-102.40
-113.94
-125.98
-135.18
-137.17
-127.86
-104.95
-68.84
-22.74
28.25
78.49
123.10
158.74
183.81
198.15
202.54
198.37
187.43
171.80
153.80
135.78
119.75
107.11
98.40
93.25
90.69
89.41
88.25
86.41
83.52
79.55
74.61
68.77
61.91
53.81
44.23
33.12
20.77
7.80
-4.94
-16.65
-26.78
-35.20
-42.15
-48.18
-53.87
-59.65
-65.63
-71.56
-76.91
-81.09
-83.68
-84.69
-84.69
-84.77
-86.31
-90.57
-98.12
-108.37
-119.23
-127.40
-129.11
-121.32
-102.80
-74.78
-40.74
-5.39
26.59
51.75
68.37
76.44
77.11
72.11
63.28
52.35
40.98
30.65
22.64
17.82
16.54
18.53
23.04
29.01
35.42
41.43
46.53
50.46
53.06
54.14
53.45
50.76
46.02
39.50
31.84
23.88
16.45
10.07
4.84
0.44
-3.69
-8.06
-12.83
-17.78
-22.38
-26.08
-28.62
-30.25
-31.67
-33.76
-37.20
-42.13
-48.08
-54.16
-59.49
-63.59
-66.57
-69.15
-72.38
-77.36
-84.77
-94.50
-105.27
-114.58
-119.10
-115.45
-101.47
-77.14
-44.99
-9.47
24.29
51.98
71.20
81.65
84.58
81.88
75.38
66.50
56.45
46.49
37.90
31.92
29.24
29.87
33.09
37.83
43.08
48.14
52.70
56.66
59.87
61.95
62.39
60.74
56.91
51.24
44.49
37.56
31.17
25.70
21.14
17.21
13.56
9.96
6.33
2.73
-0.70
-3.81
-6.46
-8.57
-10.21
-11.66
-13.45
-16.14
-20.05
-25.04
-30.45
-35.35
-38.98
-41.14
-42.39
-43.77
-46.41
-50.95
-57.32
-64.75
-72.14
-78.58
-83.68
-87.65
-91.24
-95.44
-101.26
-109.39
-119.74
-131.11
-140.93
-145.65
-141.61
-126.33
-99.63
-64.05
-24.33
14.02
46.26
69.55
83.27
88.52
87.24
81.52
73.16
63.75
54.72
47.36
42.69
41.20
42.76
46.67
51.92
57.54
62.78
67.24
70.72
73.03
73.92
73.05
70.18
65.24
58.46
50.36
41.66
33.15
25.52
19.27
14.62
11.45
9.40
7.94
6.54
4.82
2.68
0.24
-2.21
-4.42
-6.31
-8.04
-9.99
-12.63
-16.33
-21.22
-27.10
-33.50
-39.88
-45.85
-51.35
-56.73
-62.56
-69.42
-77.60
-86.89
-96.67
-106.02
-114.10
-120.44
-125.17
-129.02
-133.15
-138.75
-146.54
-156.21
-166.04
-173.01
-173.36
-163.66
-142.00
-108.83
-67.20
-22.03
21.15
57.55
84.19
100.23
106.63
105.51
99.38
90.61
81.15
72.51
65.74
61.57
60.39
62.23
66.75
73.22
80.67
88.02
94.28
98.70
100.80
100.20
96.64
89.85
79.76
66.68
51.42
35.31
19.87
6.47
-4.13
-11.87
-17.21
-20.81
-23.03
-23.80
-22.69
-19.32
-13.77
-6.78
0.33
6.07
9.36
9.85
8.01
4.86
1.60
-0.80
-1.81
-1.34
0.32
2.71
5.35
7.94
10.36
12.64
14.68
15.99
15.53
11.79
3.16
-11.57
-32.65
-58.98
-87.79
-114.73
-134.36
-141.10
-130.74
-102.00
-57.51
-3.56
51.46
99.52
135.28
157.21
167.21
169.01
166.31
161.58
155.89
149.44
142.32
134.89
127.63
120.88
114.55
108.27
101.71
94.88
88.08
81.74
76.09
70.95
65.73
59.63
51.94
42.27
30.76
18.09
5.35
-6.29
-15.90
-23.08
-28.07
-31.48
-34.04
-36.24
-38.18
-39.72
-40.65
-40.95
-40.89
-40.88
-41.35
-42.46
-44.10
-45.86
-47.30
-48.16
-48.57
-49.09
-50.50
-53.47
-58.19
-64.26
-70.79
-76.79
-81.52
-84.86
-87.29
-89.80
-93.64
-99.88
-108.93
-120.05
-131.02
-138.31
-137.99
-126.97
-104.33
-71.92
-33.98
4.07
37.27
62.33
78.08
85.13
85.13
79.99
71.51
61.29
50.84
41.59
34.84
31.48
31.82
35.52
41.66
49.01
56.35
62.73
67.60
70.82
72.39
72.35
70.64
67.10
61.61
54.32
45.66
36.30
27.04
18.55
11.24
5.22
0.33
-3.79
-7.56
-11.33
-15.30
-19.43
-23.49
-27.07
-29.75
-31.29
-31.78
-31.69
-31.86
-33.17
-36.30
-41.40
-48.01
-55.22
-62.03
-67.74
-72.29
-76.29
-80.83
-87.14
-96.06
-107.56
-120.31
-131.64
-137.95
-135.62
-122.20
-97.51
-64.01
-26.29
10.21
40.69
62.12
73.67
76.36
72.25
63.71
52.90
41.67
31.60
24.02
19.95
19.90
23.74
30.66
39.34
48.31
56.29
62.46
66.56
68.64
68.86
67.22
63.51
57.54
49.38
39.59
29.23
19.56
11.63
5.89
2.04
-0.79
-3.62
-7.22
-11.79
-16.95
-21.88
-25.79
-28.18
-29.23
-29.69
-30.71
-33.37
-38.24
-45.13
-53.12
-60.96
-67.57
-72.48
-76.05
-79.31
-83.61
-90.15
-99.40
-110.65
-121.77
-129.40
-129.78
-119.85
-98.56
-67.53
-30.76
6.42
38.95
63.34
78.30
84.51
83.82
78.46
70.46
61.60
53.41
47.39
44.78
46.42
52.42
62.02
73.74
85.67
96.01
103.49
107.63
108.71
107.50
104.77
101.04
96.41
90.73
83.94
76.38
68.84
62.29
57.53
54.69
53.09
51.46
48.36
42.74
34.35
23.91
12.84
2.97
-4.03
-7.05
-5.95
-1.72
3.51
6.88
5.39
-3.18
-19.63
-43.10
-71.37
-101.76
-132.01
-160.88
-188.01
-213.29
-235.85
-253.51
-263.02
-261.16
-246.07
-218.46
-181.77
-141.27
-102.59
-70.10
-46.08
-30.71
-22.73
-20.40
-22.09
-26.51
-32.48
-38.77
-43.98
-46.81
-46.30
-42.16
-34.84
-25.43
-15.35
-5.97
1.74
7.35
11.00
13.05
13.89
13.59
12.02
9.03
4.72
-0.24
-4.94
-8.60
-10.99
-12.44
-13.73
-15.68
-18.81
-23.17
-28.14
-32.89
-36.62
-38.94
-39.78
-39.25
-37.50
-34.51
-30.05
-23.43
-14.16
-2.48
10.32
22.22
30.90
34.29
31.00
20.66
5.10
-12.71
-29.25
-41.06
-45.09
-39.24
-23.28
0.63
28.15
56.03
81.13
100.84
113.35
118.45
117.91
114.54
111.22
109.95
114.88
128.47
150.27
176.75
203.46
227.38
247.58
264.83
280.83
301.35
330.55
368.75
412.01
454.67
492.18
521.48
540.43
522.01
450.79
331.41
189.67
56.16
-49.61
-122.29
-166.34
-190.29
-202.60
-205.25
-198.65
-183.91
-164.54
-146.26
-132.29
-124.11
-121.76
-124.25
-126.86
-125.78
-119.35
-108.84
-96.84
-85.43
-76.04
-69.89
-68.58
-68.58
-68.90
-70.20
-74.35
-82.81
-94.94
-108.05
-118.34
-122.28
-116.90
-102.26
-81.01
-57.65
-36.80
-21.41
-12.37
-8.76
-8.77
-10.23
-12.03
-13.74
-15.61
-18.08
-21.40
-25.72
-31.19
-38.23
-47.39
-59.46
-74.73
-92.83
-112.75
-133.16
-152.97
-171.68
-189.52
-207.12
-225.07
-243.16
-260.05
-273.42
-280.48
-278.71
-266.46
-243.45
-210.83
-171.04
-127.38
-83.48
-42.66
-7.39
20.97
42.10
56.42
64.57
67.23
65.20
59.69
52.56
46.19
42.75
43.46
48.01
54.64
60.77
63.87
62.14
54.86
42.52
26.83
10.70
-2.12
-7.79
-3.70
10.36
31.85
56.05
77.76
92.93
99.82
98.96
92.31
82.16
70.36
58.17
46.41
35.75
26.74
19.76
15.00
12.41
11.77
12.57
14.05
15.10
14.70
12.29
8.12
3.25
-1.07
-3.99
-5.45
-6.03
-6.31
-6.27
-5.27
-2.49
2.31
8.46
14.61
19.51
22.71
24.84
27.10
30.52
35.30
40.78
45.87
49.67
51.79
52.25
51.17
48.39
43.57
36.33
26.74
15.42
3.46
-7.95
-18.03
-26.63
-34.25
-41.83
-50.36
-60.57
-72.64
-85.93
-98.75
-108.52
-112.22
-107.27
-92.56
-69.07
-39.84
-9.08
19.08
41.77
57.80
67.44
71.81
72.25
70.07
66.56
63.02
60.59
60.06
61.54
64.63
68.60
72.83
76.98
80.95
84.71
88.10
90.74
92.12
91.73
89.16
84.30
77.37
69.06
60.47
52.84
47.16
43.72
41.96
40.60
38.25
34.00
27.82
20.54
13.40
7.42
2.99
-0.25
-3.12
-6.47
-10.72
-15.77
-21.09
-25.92
-29.58
-31.75
-32.57
-32.71
-33.25
-35.46
-40.35
-48.12
-57.91
-67.59
-74.21
-74.70
-66.85
-50.04
-25.64
3.30
32.94
59.61
80.74
95.21
103.23
105.90
104.70
101.09
96.31
91.29
86.67
82.81
79.88
77.98
77.13
77.37
78.59
80.47
82.51
84.11
84.82
84.33
82.61
79.64
75.46
70.16
63.98
57.40
51.11
45.79
41.81
38.96
36.43
32.97
27.33
18.81
7.54
-5.54
-18.91
-31.14
-41.38
-49.57
-56.39
-62.82
-69.82
-77.96
-87.47
-98.13
-109.31
-119.97
-128.72
-134.20
-135.64
-133.37
-128.80
-124.08
-121.09
-120.65
-122.07
-123.32
-121.70
-114.79
-101.16
-80.85
-55.35
-27.27
0.22
24.08
42.02
52.88
56.79
54.95
49.25
41.72
34.08
27.41
22.17
18.31
15.59
13.95
13.57
14.80
17.80
22.32
27.56
32.39
35.65
36.54
34.85
30.98
25.88
20.75
16.80
14.90
15.28
17.47
20.46
23.09
24.53
24.56
23.57
22.27
21.23
20.68
20.48
20.48
20.76
21.69
23.65
26.73
30.44
33.83
35.90
36.02
34.20
31.01
27.27
23.66
20.44
17.41
13.87
8.88
1.41
-9.31
-23.24
-39.15
-54.45
-65.67
-69.39
-63.53
-48.13
-25.48
0.57
25.77
46.67
61.22
68.83
70.08
66.17
58.55
48.72
38.13
28.10
19.78
14.06
11.44
12.02
15.38
20.72
26.95
33.00
37.96
41.26
42.61
41.88
39.03
34.07
27.20
18.81
9.52
0.07
-8.84
-16.76
-23.51
-29.11
-33.71
-37.39
-40.13
-41.88
-42.63
-42.58
-42.16
-41.92
-42.46
-44.25
-47.46
-51.89
-56.97
-61.80
-65.45
-67.31
-67.40
-66.49
-66.01
-67.55
-72.29
-80.44
-90.82
-100.97
-107.70
-107.94
-99.71
-82.90
-59.44
-32.85
-7.27
13.66
27.73
34.40
34.60
30.02
22.53
13.72
4.84
-3.17
-9.61
-13.99
-16.15
-16.25
-14.73
-12.12
-8.96
-5.62
-2.34
0.69
3.30
5.32
6.61
7.08
6.63
5.21
2.74
-0.73
-5.03
-9.73
-14.33
-18.47
-22.11
-25.54
-29.16
-33.18
-37.34
-40.99
-43.34
-43.92
-42.77
-40.42
-37.59
-34.89
-32.68
-31.18
-30.61
-31.31
-33.73
-38.25
-45.01
-53.80
-63.87
-73.89
-81.84
-85.27
-81.67
-69.36
-48.10
-19.57
12.88
45.12
73.30
94.84
108.80
115.64
116.58
112.99
106.02
96.61
85.77
74.77
65.00
57.68
53.49
52.33
53.48
56.00
59.13
62.48
65.93
69.43
72.67
75.12
76.16
75.42
72.96
69.32
65.32
61.73
59.00
57.16
55.84
54.49
52.69
50.41
48.06
46.44
46.29
47.94
50.99
54.31
56.48
56.33
53.46
48.25
41.54
34.02
25.87
16.67
5.78
-7.27
-22.50
-39.37
-56.75
-72.83
-85.12
-90.67
-86.88
-72.51
-48.59
-18.52
12.64
39.77
59.15
69.31
71.03
66.50
58.31
48.70
39.22
30.75
23.70
18.17
14.09
11.35
9.79
9.20
9.27
9.57
9.51
8.59
6.41
2.84
-2.17
-8.66
-16.76
-26.69
-38.54
-52.13
-66.89
-81.95
-96.36
-109.26
-120.11
-128.58
-134.61
-138.29
-139.85
-139.69
-138.42
-136.81
-135.63
-135.56
-137.00
-139.96
-144.16
-149.15
-154.39
-159.48
-164.05
-167.71
-169.99
-170.34
-168.29
-163.68
-156.81
-148.52
-139.99
-132.48
-126.83
-123.14
-120.38
-116.49
-108.77
-94.73
-72.98
-43.91
-9.87
25.46
58.06
84.69
103.68
115.07
120.17
120.79
118.66
115.07
111.02
107.41
105.21
105.34
108.31
113.92
121.18
128.55
134.53
138.15
139.25
138.34
136.17
133.23
129.55
124.73
118.31
110.02
100.06
89.03
77.73
66.89
57.03
48.33
40.69
33.71
26.85
19.47
11.14
1.72
-8.50
-18.90
-28.91
-38.20
-46.99
-55.85
-65.44
-76.08
-87.54
-99.10
-109.84
-119.03
-126.42
-132.13
-136.52
-139.95
-142.78
-145.52
-148.86
-153.34
-158.70
-163.40
-164.47
-158.35
-142.25
-115.47
-80.05
-40.33
-1.47
32.08
57.78
75.22
85.54
90.51
91.85
90.86
88.57
85.85
83.61
82.65
83.52
86.22
90.24
94.74
98.81
101.83
103.60
104.28
104.19
103.58
102.44
100.53
97.45
92.93
86.91
79.63
71.57
63.34
55.46
48.37
42.22
36.98
32.45
28.30
24.16
19.68
14.62
8.94
2.88
-3.09
-8.47
-12.96
-16.73
-20.36
-24.67
-30.28
-37.34
-45.41
-53.65
-61.19
-67.46
-72.42
-76.42
-80.11
-84.21
-89.38
-95.90
-103.42
-110.63
-115.20
-114.22
-105.05
-86.40
-59.12
-26.21
7.90
38.57
62.19
76.96
82.93
81.63
75.33
66.38
56.81
48.15
41.38
37.00
35.11
35.50
37.73
41.23
45.41
49.68
53.61
56.88
59.36
60.95
61.58
61.14
59.51
56.67
52.75
48.08
43.09
38.19
33.65
29.50
25.55
21.56
17.40
13.15
9.07
5.53
2.82
1.00
-0.00
-0.36
-0.12
0.75
2.32
4.39
6.44
7.67
7.37
5.26
1.80
-1.98
-4.88
-6.12
-5.73
-4.56
-3.97
-5.32
-9.49
-16.53
-25.50
-34.57
-41.27
-42.99
-37.74
-24.82
-5.26
18.41
42.82
64.81
82.29
94.56
102.15
106.28
108.19
108.64
107.67
104.66
98.69
89.01
75.54
59.15
41.48
24.46
9.69
-1.98
-10.49
-16.24
-19.71
-21.25
-21.14
-19.79
-17.80
-15.90
-14.73
-14.73
-16.13
-19.01
-23.35
-28.98
-35.49
-42.41
-49.31
-56.15
-63.32
-71.56
-81.48
-93.33
-106.72
-120.61
-133.68
-144.54
-152.05
-155.33
-153.85
-147.34
-135.99
-120.57
-102.46
-83.59
-65.96
-51.26
-40.38
-33.46
-29.97
-29.20
-30.43
-32.96
-35.82
-37.54
-36.29
-30.28
-18.48
-1.06
20.42
43.54
65.67
84.65
99.26
109.19
114.76
116.60
115.24
111.09
104.48
95.90
86.18
76.44
67.97
61.89
58.81
58.71
60.91
64.30
67.67
69.96
70.49
68.99
65.55
60.53
54.40
47.62
40.56
33.51
26.74
20.57
15.36
11.31
8.39
6.21
4.19
1.73
-1.45
-5.29
-9.34
-13.08
-16.11
-18.33
-19.91
-21.23
-22.67
-24.53
-26.94
-29.79
-32.80
-35.54
-37.60
-38.73
-39.08
-39.25
-40.19
-42.86
-47.67
-54.02
-60.13
-63.39
-61.12
-51.60
-34.73
-12.21
13.08
37.93
59.62
76.34
87.12
91.62
90.01
82.94
71.58
57.51
42.33
27.32
13.28
0.60
-10.32
-18.89
-24.37
-26.24
-24.72
-20.84
-16.15
-12.14
-9.76
-9.28
-10.59
-13.63
-18.63
-25.97
-35.80
-47.60
-60.03
-71.13
-78.87
-81.72
-79.04
-71.25
-59.70
-46.35
-33.34
-22.57
-15.29
-11.78
-11.44
-12.99
-15.06
-16.66
-17.51
-18.10
-19.39
-22.39
-27.83
-35.91
-46.13
-57.26
-67.40
-74.26
-75.71
-70.43
-58.48
-41.49
-22.17
-3.51
12.09
23.30
29.80
31.81
29.60
23.42
13.69
1.44
-11.47
-22.57
-29.43
-30.39
-25.14
-14.67
-0.86
14.24
28.95
42.16
53.25
61.87
67.89
71.56
73.64
75.12
76.71
78.16
78.07
74.48
65.95
52.74
37.06
22.30
11.57
6.17
5.16
5.96
5.85
3.34
-1.25
-6.26
-9.77
-10.69
-9.24
-6.72
-4.84
-5.01
-8.01
-13.95
-22.46
-32.65
-43.03
-51.34
-54.84
-51.00
-38.48
-17.93
7.94
35.10
59.46
78.03
89.57
94.40
93.87
89.70
83.54
76.75
70.28
64.51
59.26
53.92
47.97
41.38
34.80
29.24
25.50
23.57
22.58
21.27
18.59
14.25
8.64
2.46
-3.78
-9.95
-16.13
-22.32
-28.30
-33.70
-38.29
-42.11
-45.48
-48.73
-52.00
-55.26
-58.39
-61.40
-64.37
-67.42
-70.54
-73.54
-76.26
-78.73
-81.29
-84.43
-88.65
-94.17
-100.90
-108.26
-115.16
-119.98
-120.69
-115.33
-102.71
-83.11
-58.53
-32.28
-8.04
11.27
24.21
30.95
32.72
31.06
27.19
21.83
15.40
8.31
1.26
-4.83
-9.03
-10.67
-9.60
-6.11
-0.84
5.46
12.05
18.24
23.48
27.39
29.78
30.71
30.46
29.43
27.93
26.11
23.93
21.32
18.32
15.17
12.23
9.83
8.03
6.64
5.24
3.44
1.04
-1.89
-5.11
-8.29
-11.22
-13.83
-16.20
-18.47
-20.87
-23.70
-27.34
-32.14
-38.21
-45.08
-51.48
-55.37
-54.45
-46.95
-32.42
-12.11
11.27
34.27
53.79
67.81
75.67
77.89
75.62
70.16
62.70
54.28
45.93
38.72
33.68
31.61
32.90
37.32
44.03
51.82
59.35
65.50
69.59
71.38
70.98
68.67
64.73
59.45
53.16
46.28
39.39
33.03
27.59
23.06
19.08
14.99
10.22
4.54
-1.76
-8.00
-13.40
-17.51
-20.34
-22.39
-24.30
-26.58
-29.33
-32.29
-35.04
-37.32
-39.19
-41.10
-43.78
-47.96
-54.14
-62.27
-71.54
-80.28
-86.22
-86.95
-80.68
-66.96
-47.02
-23.55
-0.01
20.34
35.25
43.87
46.62
44.71
39.61
32.70
25.07
17.64
11.23
6.54
4.10
4.11
6.37
10.29
15.08
19.97
24.44
28.28
31.48
34.14
36.22
37.49
37.59
36.20
33.25
28.99
24.04
19.16
15.06
12.15
10.41
9.48
8.86
8.11
7.08
5.88
4.76
3.89
3.20
2.38
1.02
-1.16
-4.18
-7.77
-11.52
-15.01
-17.99
-20.43
-22.47
-24.45
-26.81
-30.09
-34.71
-40.69
-47.40
-53.31
-56.28
-54.14
-45.45
-30.23
-10.05
12.28
33.57
51.17
63.54
70.38
72.33
70.52
66.11
60.08
53.26
46.43
40.40
35.97
33.77
34.08
36.71
41.02
46.09
50.98
55.01
57.83
59.46
60.07
59.87
58.95
57.24
54.64
51.17
47.06
42.79
39.02
36.34
35.02
34.86
35.26
35.42
34.77
33.26
31.37
29.85
29.35
29.98
31.22
32.03
31.20
27.71
21.00
11.05
-1.63
-16.10
-31.06
-45.06
-56.81
-65.61
-71.74
-76.37
-81.24
-87.72
-96.02
-104.79
-111.48
-113.29
-108.40
-96.72
-80.00
-61.18
-43.25
-28.46
-17.89
-11.65
-9.27
-10.11
-13.53
-18.81
-25.04
-31.09
-35.84
-38.38
-38.21
-35.36
-30.22
-23.42
-15.63
-7.46
0.60
8.07
14.54
19.60
22.92
24.26
23.52
20.87
16.75
11.93
7.38
4.02
2.43
2.59
3.93
5.49
6.33
5.94
4.38
2.22
0.25
-0.94
-1.20
-0.87
-0.63
-1.22
-3.11
-6.33
-10.48
-14.93
-19.04
-22.38
-24.80
-26.50
-27.93
-29.82
-32.99
-38.17
-45.54
-54.35
-62.73
-68.00
-67.43
-59.26
-43.54
-22.27
1.11
22.85
40.05
51.30
56.66
57.07
53.67
47.33
38.68
28.41
17.59
7.57
-0.21
-4.81
-6.00
-4.28
-0.62
4.04
8.94
13.63
17.83
21.26
23.65
24.69
24.21
22.16
18.69
14.11
8.85
3.40
-1.77
-6.33
-10.18
-13.42
-16.27
-18.96
-21.62
-24.28
-26.92
-29.55
-32.13
-34.61
-36.87
-38.76
-40.24
-41.42
-42.62
-44.29
-46.92
-50.89
-56.33
-62.91
-69.66
-74.92
-76.58
-72.62
-61.85
-44.50
-22.42
1.44
23.82
42.09
54.80
61.74
63.52
61.16
55.71
48.16
39.54
30.97
23.61
18.45
16.10
16.65
19.67
24.45
30.13
35.90
41.10
45.23
47.97
49.15
48.74
46.85
43.66
39.45
34.49
29.10
23.58
18.21
13.20
8.70
4.71
1.20
-1.92
-4.64
-6.98
-8.96
-10.72
-12.54
-14.75
-17.60
-21.10
-25.05
-29.10
-33.00
-36.73
-40.63
-45.36
-51.61
-59.73
-69.40
-79.34
-87.36
-90.84
-87.49
-76.18
-57.50
-33.78
-8.44
14.98
33.79
46.65
53.62
55.72
54.37
50.93
46.53
42.03
38.07
35.15
33.55
33.38
34.48
36.52
39.06
41.67
44.01
45.89
47.20
47.80
47.50
46.05
43.27
39.24
34.38
29.39
25.04
21.85
19.84
18.49
16.95
14.42
10.54
5.57
0.27
-4.50
-8.22
-10.92
-13.23
-15.95
-19.71
-24.66
-30.45
-36.35
-41.64
-45.80
-48.73
-50.81
-52.91
-56.13
-61.42
-69.08
-78.24
-86.88
-92.18
-91.42
-82.93
-66.80
-44.88
-20.31
3.50
23.80
39.04
48.97
54.27
56.01
55.19
52.58
48.78
44.49
40.54
37.89
37.32
39.16
43.21
48.75
54.89
60.78
65.87
69.84
72.51
73.67
73.03
70.29
65.32
58.32
49.82
40.69
31.86
24.14
17.90
13.00
8.88
4.75
0.00
-5.61
-11.86
-18.13
-23.67
-27.89
-30.67
-32.41
-34.01
-36.51
-40.73
-46.93
-54.68
-63.11
-71.25
-78.48
-84.76
-90.60
-96.72
-103.72
-111.72
-120.07
-127.31
-131.28
-129.60
-120.31
-102.70
-77.78
-48.20
-17.59
10.59
34.05
52.08
65.31
74.88
81.61
85.61
86.53
84.03
78.38
70.52
61.81
53.58
46.64
41.23
37.11
33.84
30.98
28.17
25.19
21.81
17.86
13.17
7.65
1.31
-5.61
-12.63
-19.00
-23.87
-26.49
-26.41
-23.61
-18.52
-11.93
-4.77
2.05
7.83
12.16
14.90
16.14
15.99
14.53
11.72
7.48
1.75
-5.32
-13.38
-21.90
-30.22
-37.71
-43.88
-48.55
-51.98
-54.87
-58.17
-62.84
-69.48
-77.97
-87.29
-95.54
-100.11
-98.32
-88.19
-69.21
-42.78
-12.09
18.76
45.87
66.61
80.09
86.98
88.74
86.93
82.81
77.32
71.39
66.02
62.22
60.66
61.41
63.89
67.17
70.39
73.04
75.06
76.57
77.68
78.26
78.06
76.76
74.19
70.41
65.63
60.16
54.38
48.69
43.51
39.16
35.79
33.24
31.17
29.13
26.88
24.49
22.27
20.54
19.32
18.24
16.63
13.91
9.87
4.89
-0.26
-4.78
-8.16
-10.49
-12.35
-14.68
-18.48
-24.48
-32.92
-43.44
-55.10
-66.67
-76.92
-85.04
-90.88
-94.97
-98.37
-102.28
-107.59
-114.50
-122.12
-128.59
-131.41
-128.14
-117.26
-98.83
-74.76
-48.35
-23.54
-3.76
8.82
13.65
11.65
4.72
-4.94
-15.21
-24.30
-30.79
-33.69
-32.58
-27.78
-20.30
-11.60
-3.20
3.79
8.79
11.70
12.50
11.03
6.94
-0.03
-9.68
-21.11
-32.69
-42.39
-48.23
-48.73
-43.24
-32.18
-17.31
-1.56
11.47
18.57
17.92
9.83
-3.46
-18.67
-32.73
-43.82
-51.69
-57.25
-61.87
-66.65
-72.12
-78.35
-85.13
-92.27
-99.67
-107.41
-115.64
-124.55
-134.06
-143.55
-151.54
-155.74
-153.39
-141.81
-119.24
-85.60
-43.09
3.84
49.33
87.59
114.48
128.68
131.81
127.52
120.05
112.84
107.80
105.46
105.48
107.42
110.93
115.71
121.33
127.08
132.19
136.06
138.48
139.55
139.52
138.43
136.07
131.96
125.64
116.97
106.30
94.48
82.48
71.19
61.01
51.84
43.25
34.84
26.43
18.19
10.51
3.62
-2.56
-8.45
-14.59
-21.30
-28.50
-35.76
-42.54
-48.45
-53.38
-57.50
-61.11
-64.64
-68.64
-73.90
-81.22
-91.08
-103.02
-115.31
-125.01
-128.69
-123.57
-108.65
-85.20
-56.57
-27.17
-1.16
18.66
31.38
37.75
39.56
38.80
37.02
35.18
33.71
32.91
33.14
34.87
38.42
43.74
50.21
56.75
62.08
65.07
65.13
62.25
56.93
49.89
41.90
33.63
25.73
18.91
14.00
11.85
12.95
17.20
23.71
30.85
36.73
39.79
39.33
35.72
30.23
24.41
19.54
16.15
13.95
12.09
9.65
6.05
1.23
-4.38
-10.21
-15.82
-21.08
-26.25
-31.84
-38.39
-46.29
-55.52
-65.50
-74.94
-81.99
-84.57
-80.93
-70.23
-53.02
-31.20
-7.63
14.59
32.92
45.85
53.10
55.31
53.63
49.34
43.61
37.44
31.70
27.16
24.36
23.58
24.75
27.46
31.17
35.24
39.19
42.61
45.29
47.13
48.06
48.07
47.10
45.12
42.15
38.39
34.20
30.05
26.37
23.35
20.84
18.45
15.74
12.50
8.85
5.22
2.06
-0.33
-2.00
-3.30
-4.71
-6.59
-9.03
-11.82
-14.63
-17.20
-19.51
-21.91
-24.92
-29.12
-34.80
-41.83
-49.48
-56.45
-61.05
-61.55
-56.68
-46.05
-30.50
-11.98
6.87
23.45
35.84
43.19
45.68
44.16
39.71
33.24
25.48
17.02
8.60
1.13
-4.35
-6.97
-6.29
-2.53
3.45
10.35
16.82
21.80
24.79
25.84
25.33
23.68
21.19
17.89
13.72
8.68
2.95
-3.05
-8.77
-13.74
-17.79
-21.00
-23.64
-25.99
-28.27
-30.55
-32.84
-35.15
-37.44
-39.59
-41.42
-42.80
-43.79
-44.77
-46.37
-49.21
-53.54
-58.93
-64.15
-67.44
-66.98
-61.42
-50.42
-34.74
-16.18
2.83
19.86
32.99
41.18
44.45
43.59
39.88
34.71
29.24
24.30
20.42
17.83
16.64
16.78
18.12
20.34
23.05
25.80
28.25
30.26
31.81
32.92
33.50
33.32
32.04
29.45
25.58
20.77
15.57
10.52
6.01
2.16
-1.16
-4.12
-6.91
-9.59
-12.16
-14.62
-17.04
-19.55
-22.28
-25.28
-28.44
-31.52
-34.23
-36.38
-38.00
-39.42
-41.21
-44.06
-48.42
-54.24
-60.69
-66.19
-68.63
-66.08
-57.42
-42.85
-23.99
-3.47
15.88
31.76
42.87
49.07
51.02
49.78
46.47
42.01
37.14
32.53
28.72
26.20
25.30
26.03
28.14
31.14
34.45
37.54
40.06
41.86
42.92
43.27
42.90
41.70
39.59
36.61
33.01
29.23
25.71
22.78
20.47
18.53
16.60
14.36
11.74
8.91
6.21
3.94
2.29
1.16
0.30
-0.59
-1.73
-3.13
-4.59
-5.75
-6.30
-6.09
-5.21
-3.96
-2.83
-2.29
-2.77
-4.53
-7.49
-11.11
-14.22
-15.18
-12.37
-4.84
7.08
21.65
36.22
48.14
55.61
58.21
56.59
51.93
45.26
37.22
28.18
18.54
8.92
0.13
-7.19
-12.74
-16.64
-19.30
-21.19
-22.68
-23.90
-24.76
-25.01
-24.37
-22.74
-20.46
-18.27
-17.22
-18.22
-21.59
-26.92
-33.14
-39.03
-43.70
-46.90
-48.97
-50.56
-52.24
-54.27
-56.63
-59.18
-61.83
-64.65
-67.77
-71.22
-74.77
-77.89
-79.89
-80.24
-78.88
-76.43
-74.12
-73.36
-75.08
-79.18
-84.20
-87.65
-86.84
-79.82
-66.16
-47.21
-25.55
-4.22
14.19
28.13
37.19
41.80
42.85
41.33
38.14
34.06
29.78
25.87
22.76
20.78
20.11
20.81
22.81
25.88
29.66
33.72
37.65
41.13
43.94
45.93
46.96
46.82
45.36
42.61
38.84
34.61
30.60
27.39
25.22
23.90
22.94
21.83
20.28
18.37
16.46
14.95
14.06
13.62
13.17
12.15
10.11
6.92
2.77
-1.84
-6.33
-10.17
-13.10
-15.28
-17.26
-19.92
-24.15
-30.39
-38.33
-46.69
-53.44
-56.25
-53.21
-43.48
-27.63
-7.56
13.97
34.08
50.42
61.62
67.38
68.25
65.34
59.90
53.13
46.11
39.75
34.77
31.71
30.84
32.15
35.35
39.99
45.60
51.77
58.19
64.53
70.36
74.96
77.49
77.11
73.43
66.66
57.71
47.96
38.80
31.22
25.54
21.41
18.02
14.47
10.03
4.31
-2.69
-10.66
-19.13
-27.58
-35.62
-43.05
-49.74
-55.63
-60.60
-64.48
-67.23
-68.96
-70.05
-70.96
-72.18
-74.08
-76.91
-80.77
-85.51
-90.55
-94.67
-96.02
-92.64
-83.12
-67.33
-46.68
-23.83
-1.85
16.60
29.96
37.91
41.00
40.23
36.62
31.04
24.28
17.18
10.68
5.75
3.18
3.37
6.21
11.06
17.02
23.08
28.43
32.54
35.27
36.67
36.92
36.21
34.64
32.22
28.93
24.81
19.99
14.77
9.55
4.74
0.64
-2.76
-5.71
-8.60
-11.76
-15.33
-19.10
-22.71
-25.75
-27.96
-29.45
-30.56
-31.84
-33.82
-36.95
-41.39
-47.03
-53.29
-59.04
-62.69
-62.44
-56.83
-45.30
-28.57
-8.61
11.79
29.89
43.64
52.14
55.66
55.15
51.86
46.86
41.02
35.00
29.44
24.93
21.98
20.82
21.33
23.06
25.40
27.81
29.96
31.75
33.17
34.20
34.71
34.45
33.17
30.74
27.25
23.00
18.41
13.83
9.54
5.58
1.93
-1.45
-4.55
-7.29
-9.58
-11.48
-13.15
-14.88
-16.96
-19.52
-22.48
-25.57
-28.45
-30.87
-32.81
-34.48
-36.31
-38.84
-42.52
-47.58
-53.77
-60.21
-65.34
-67.22
-64.05
-54.81
-39.78
-20.65
-0.08
18.99
34.22
44.32
49.18
49.60
46.77
41.95
36.17
30.24
24.76
20.22
17.00
15.36
15.39
16.98
19.78
23.30
27.01
30.40
33.12
34.95
35.78
35.56
34.24
31.84
28.48
24.43
20.06
15.80
11.98
8.70
5.85
3.13
0.24
-2.93
-6.27
-9.43
-12.05
-13.93
-15.17
-16.12
-17.24
-18.86
-21.06
-23.68
-26.39
-28.87
-30.95
-32.64
-34.19
-36.07
-38.83
-42.91
-48.35
-54.41
-59.59
-61.85
-59.25
-50.70
-36.46
-18.17
1.55
19.91
34.69
44.67
49.69
50.33
47.56
42.37
35.62
28.09
20.53
13.72
8.45
5.37
4.82
6.76
10.68
15.75
21.04
25.70
29.19
31.24
31.85
31.16
29.31
26.46
22.76
18.36
13.49
8.34
3.11
-2.01
-6.79
-10.97
-14.31
-16.69
-18.16
-18.98
-19.58
-20.39
-21.65
-23.44
-25.60
-27.93
-30.23
-32.44
-34.65
-37.11
-40.18
-44.27
-49.56
-55.84
-62.22
-67.15
-68.70
-65.08
-55.42
-40.19
-21.23
-1.29
16.80
30.92
40.03
44.22
44.31
41.42
36.67
31.04
25.40
20.48
16.88
14.96
14.77
16.13
18.60
21.70
24.94
27.96
30.53
32.52
33.86
34.43
34.06
32.55
29.80
25.88
21.11
16.00
11.09
6.81
3.33
0.58
-1.69
-3.78
-5.91
-8.12
-10.29
-12.18
-13.63
-14.64
-15.44
-16.46
-18.20
-20.99
-24.85
-29.42
-34.05
-38.07
-41.05
-43.00
-44.48
-46.39
-49.63
-54.61
-60.90
-67.08
-71.00
-70.39
-63.70
-50.66
-32.57
-11.95
8.21
25.28
37.60
44.73
47.21
46.17
42.84
38.33
33.51
29.03
25.42
23.11
22.35
23.16
25.25
28.09
31.04
33.57
35.44
36.73
37.69
38.53
39.20
39.33
38.46
36.25
32.71
28.25
23.51
19.13
15.53
12.81
10.80
9.15
7.45
5.43
2.95
0.13
-2.73
-5.26
-7.18
-8.45
-9.30
-10.18
-11.52
-13.68
-16.71
-20.43
-24.52
-28.59
-32.35
-35.59
-38.30
-40.60
-42.82
-45.43
-48.98
-53.88
-60.00
-66.41
-71.35
-72.58
-68.11
-57.01
-39.91
-18.99
2.65
21.94
36.63
45.80
49.69
49.34
46.09
41.11
35.38
29.61
24.42
20.37
17.94
17.45
18.90
21.94
25.95
30.16
33.90
36.77
38.68
39.74
40.09
39.79
38.69
36.56
33.23
28.71
23.30
17.54
12.06
7.40
3.87
1.45
-0.18
-1.47
-2.81
-4.42
-6.26
-8.14
-9.90
-11.54
-13.31
-15.60
-18.79
-23.02
-28.07
-33.41
-38.32
-42.23
-44.87
-46.43
-47.46
-48.77
-51.18
-55.27
-61.20
-68.44
-75.77
-81.29
-82.84
-78.57
-67.66
-50.71
-29.76
-7.78
12.18
27.75
37.82
42.43
42.55
39.52
34.70
29.27
24.20
20.33
18.32
18.54
21.03
25.43
31.12
37.38
43.59
49.33
54.44
58.92
62.73
65.75
67.73
68.35
67.39
64.83
60.85
55.84
50.24
44.45
38.79
33.48
28.67
24.37
20.55
17.00
13.47
9.71
5.65
1.39
-2.83
-6.74
-10.22
-13.42
-16.71
-20.54
-25.28
-31.03
-37.52
-44.23
-50.43
-55.51
-59.09
-61.28
-62.68
-64.28
-67.17
-72.07
-78.90
-86.44
-92.54
-94.57
-90.20
-78.18
-58.70
-33.50
-5.53
21.55
44.13
59.46
66.42
65.80
60.04
52.30
45.47
41.22
39.84
40.49
41.96
43.39
44.47
45.26
45.91
46.48
46.97
47.44
47.75
47.49
46.19
43.36
38.69
32.24
24.51
16.33
9.00
3.70
1.28
1.85
4.24
5.86
3.16
-5.79
-20.81
-38.11
-52.17
-58.65
-56.47
-47.56
-35.26
-22.60
-11.10
-0.94
8.59
17.30
24.63
29.89
32.80
33.70
33.38
32.91
32.28
32.13
31.58
29.78
26.25
21.02
14.54
7.42
0.46
-5.78
-11.09
-16.90
-24.23
-33.67
-45.28
-58.64
-73.20
-88.17
-103.80
-115.84
-124.16
-129.29
-132.32
-134.70
-137.84
-142.97
-149.67
-156.44
-160.93
