1565108348.00
64.000000
-0.00
-0.00
-0.00
-0.00
-0.00
-0.00
-0.00
-0.00
-0.00
-0.00
0.00
0.01
0.01
-0.00
-0.03
-0.05
-0.05
0.00
0.13
0.36
0.66
1.01
1.37
1.72
2.06
2.40
2.79
3.24
3.80
4.42
5.07
5.69
6.25
6.77
7.31
7.94
8.72
9.74
10.93
12.18
13.37
14.44
15.45
16.55
17.96
19.83
22.39
25.42
28.68
31.85
34.78
37.56
40.49
44.03
48.50
54.29
61.05
68.26
75.34
81.96
88.20
94.57
101.80
110.45
121.07
133.16
145.93
158.50
170.30
181.39
192.46
204.87
217.37
232.23
250.08
271.00
293.75
315.45
331.77
338.12
331.20
310.15
277.40
236.79
192.65
148.17
104.85
62.94
22.26
-16.91
-53.80
-87.04
-115.94
-140.17
-160.16
-176.36
-188.99
-197.92
-202.76
-203.37
-199.79
-192.84
-183.70
-173.73
-164.08
-155.49
-148.22
-141.73
-135.46
-128.87
-121.81
-114.44
-107.20
-100.58
-95.02
-90.70
-87.47
-84.91
-82.32
-79.05
-74.74
-69.56
-64.33
-60.26
-58.56
-59.88
-64.03
-69.90
-75.91
-80.74
-83.98
-86.44
-89.73
-95.48
-104.31
-115.33
-126.29
-134.49
-138.21
-137.48
-134.33
-131.75
-132.40
-137.48
-146.74
-159.34
-174.42
-191.10
-207.45
-219.69
-222.88
-213.31
-191.35
-163.04
-138.03
-125.19
-127.48
-140.00
-152.47
-155.24
-145.19
-127.42
-112.16
-108.00
-116.29
-129.89
-137.50
-130.59
-108.24
-77.68
-49.53
-31.05
-22.14
-15.97
-4.07
17.72
46.28
72.91
88.58
89.34
78.34
63.71
53.22
49.70
49.72
46.46
35.03
16.54
-1.35
-8.20
3.45
33.39
72.93
108.68
128.77
128.28
111.03
86.90
66.06
53.40
47.01
40.21
26.66
5.48
-17.85
-34.23
-36.47
-23.66
-2.24
17.57
27.33
24.87
14.76
4.96
1.49
4.78
9.47
7.87
-5.23
-28.94
-56.17
-76.93
-83.32
-73.40
-52.29
-29.30
-13.08
-7.20
-8.54
-9.56
-3.26
11.93
30.93
44.44
44.29
28.67
3.65
-19.62
-31.19
-27.72
-14.69
-3.29
-4.08
-20.52
-46.26
-68.00
-72.61
-54.70
-20.19
16.39
39.42
40.63
23.78
2.16
-9.26
-2.53
18.50
41.08
51.57
44.07
24.45
6.79
4.65
22.30
51.75
76.90
82.96
65.31
32.23
0.65
-13.26
-2.72
26.41
59.95
83.57
90.70
85.35
78.15
79.13
91.11
107.68
117.69
112.49
91.67
64.11
42.78
37.30
48.17
66.41
78.97
76.74
60.11
39.19
27.94
35.77
61.73
94.45
118.23
121.59
103.74
74.75
49.64
39.93
47.26
62.96
74.00
71.06
54.35
33.31
20.47
23.36
39.70
58.23
65.51
54.01
26.72
-4.18
-24.42
-25.91
-11.48
6.69
14.04
2.56
-24.10
-51.62
-62.43
-45.31
-2.04
52.02
95.10
109.05
88.02
41.10
-12.61
-53.14
-68.87
-60.88
-40.31
-21.49
-14.42
-20.76
-34.85
-48.50
-55.86
-55.92
-51.27
-45.09
-38.22
-28.91
-14.85
3.88
23.47
37.52
40.24
30.04
11.03
-8.17
-18.52
-15.10
0.15
18.68
29.72
25.77
6.95
-18.58
-38.46
-42.22
-26.85
1.23
29.40
44.99
41.45
21.44
-5.36
-27.75
-39.06
-39.39
-33.97
-28.30
-23.68
-16.45
-1.14
24.37
55.60
81.94
92.10
80.43
50.87
15.51
-11.80
-22.84
-19.13
-10.42
-8.48
-19.63
-40.66
-60.13
-64.45
-45.39
-4.74
45.65
89.09
111.21
106.03
78.09
39.49
4.17
-18.33
-26.10
-24.21
-20.19
-18.66
-18.01
-11.75
6.54
37.69
74.04
101.49
105.35
77.14
18.86
-57.54
-135.10
-198.43
-238.72
-255.29
-253.24
-238.86
-215.35
-181.29
-133.05
-69.01
6.62
83.18
146.77
186.16
197.69
186.13
161.19
131.87
102.25
71.42
36.69
-2.26
-40.98
-71.38
-85.35
-77.92
-48.98
-2.97
52.60
108.32
153.50
177.56
172.12
134.26
69.56
-7.39
-76.16
-116.62
-116.12
-74.50
-4.30
73.46
136.66
168.97
164.16
126.50
67.86
3.73
-50.63
-82.95
-85.81
-58.03
-5.37
60.35
124.24
172.88
198.30
200.02
183.83
157.70
127.45
94.51
56.58
10.79
-42.76
-99.49
-151.44
-190.33
-210.62
-210.56
-191.64
-157.15
-111.40
-59.66
-8.70
33.46
58.81
61.32
38.68
-6.53
-67.29
-133.54
-194.34
-240.06
-264.32
-265.05
-244.11
-206.07
-156.61
-101.72
-47.65
-1.40
29.29
37.46
19.97
-19.96
-72.29
-122.83
-158.02
-169.45
-155.79
-121.23
-72.12
-13.70
50.85
118.76
185.29
242.66
281.31
292.99
274.17
227.57
161.43
87.03
15.74
-42.99
-82.65
-99.47
-92.28
-62.77
-15.67
40.99
96.56
139.31
159.15
150.62
114.91
60.03
-1.68
-57.38
-97.49
-117.45
-117.11
-98.71
-65.39
-21.50
26.42
68.78
94.77
96.27
72.39
31.48
-11.10
-39.51
-44.71
-28.76
-3.39
16.77
22.01
12.66
-2.04
-10.55
-6.82
5.21
13.95
6.96
-20.80
-62.95
-104.06
-127.17
-122.11
-90.00
-42.08
6.56
44.13
66.22
75.41
76.99
74.50
67.53
53.32
30.59
2.45
-23.32
-37.91
-36.46
-21.27
-1.17
13.00
14.41
4.07
-9.70
-16.12
-8.56
11.34
33.58
45.20
37.28
10.12
-26.16
-56.41
-67.69
-55.61
-26.15
7.57
32.04
39.80
32.48
19.13
10.40
12.50
23.76
36.20
40.34
31.21
11.59
-9.50
-21.94
-20.44
-7.54
8.03
16.94
14.91
5.06
-4.72
-7.48
-2.04
5.94
7.91
-1.41
-19.80
-37.92
-44.72
-34.21
-9.52
18.05
34.68
31.79
10.39
-19.29
-43.19
-50.67
-39.86
-18.47
0.90
7.14
-3.42
-25.26
-46.71
-56.17
-48.06
-25.42
2.04
23.47
32.83
31.66
27.47
28.25
36.98
49.20
55.47
47.20
22.83
-9.90
-37.10
-45.69
-30.37
3.25
41.19
68.22
75.24
63.01
40.26
17.89
2.42
-7.00
-16.53
-32.24
-54.74
-77.38
-89.51
-82.58
-55.69
-16.84
21.00
46.45
55.49
52.50
46.72
45.79
50.63
54.99
49.58
28.28
-6.85
-45.23
-72.50
-77.50
-58.13
-22.77
13.59
36.34
38.17
21.76
-2.45
-22.39
-30.68
-27.66
-19.76
-14.46
-15.11
-18.90
-19.37
-11.33
4.67
21.81
30.78
25.60
7.66
-14.58
-30.55
-34.00
-27.06
-19.20
-21.37
-39.12
-68.61
-98.05
-114.21
-109.90
-88.55
-62.76
-47.99
-54.70
-82.90
-122.74
-159.51
-180.62
-180.60
-161.69
-130.21
-91.63
-47.37
4.44
65.24
132.08
196.24
246.32
273.25
275.25
258.56
234.86
215.42
205.77
203.34
198.84
181.49
144.21
87.49
19.23
-48.02
-101.79
-133.44
-140.03
-123.50
-88.32
-39.64
17.37
76.76
132.33
178.27
211.23
231.45
241.56
246.11
248.69
252.47
256.57
257.85
251.64
235.02
207.47
170.54
127.50
82.17
38.12
-2.19
-37.25
-66.05
-87.80
-102.29
-110.60
-115.69
-122.30
-135.19
-157.17
-186.78
-218.14
-242.97
-253.78
-246.63
-221.72
-182.68
-135.26
-87.04
-47.22
-26.23
-33.29
-72.46
-138.93
-218.08
-289.11
-331.93
-334.71
-298.16
-234.51
-162.56
-100.96
-62.45
-51.00
-62.07
-85.21
-108.22
-121.13
-119.38
-104.63
-82.98
-61.58
-45.26
-34.79
-27.68
-20.43
-10.61
2.50
18.58
37.57
60.38
88.23
121.22
157.04
191.10
218.05
233.93
237.51
230.84
218.14
203.87
191.23
181.16
172.59
163.40
151.81
137.31
120.92
104.70
90.74
80.48
74.06
70.55
68.39
66.23
63.27
59.53
55.59
52.05
49.34
47.39
45.67
43.40
39.84
34.55
27.50
19.37
10.36
0.84
-8.79
-18.11
-26.84
-34.67
-41.27
-46.39
-49.80
-51.43
-51.22
-49.18
-45.39
-40.14
-33.76
-26.52
-18.69
-10.47
-2.06
6.44
15.01
23.65
32.14
40.34
48.17
55.57
62.52
68.99
75.02
80.67
86.06
90.95
95.14
98.46
100.73
101.71
101.09
98.39
93.04
86.56
79.66
72.95
66.93
62.04
58.69
57.15
57.63
60.21
64.84
71.01
78.13
85.58
92.74
99.03
103.95
107.17
108.55
108.13
105.86
101.90
96.48
89.95
82.65
74.92
67.12
59.50
52.31
45.51
39.10
33.05
27.34
22.01
17.08
12.62
8.70
5.32
2.35
-0.35
-2.94
-5.52
-8.12
-10.72
-13.21
-15.54
-17.69
-19.77
-21.93
-24.33
-27.06
-30.03
-33.08
-35.93
-38.39
-40.47
-42.40
-44.59
-47.48
-51.31
-55.99
-61.11
-66.12
-70.61
-74.59
-78.58
-83.48
-90.20
-99.28
-110.58
-123.34
-136.46
-149.09
-161.05
-173.06
-186.46
-202.62
-222.32
-245.29
-270.41
-296.08
-320.99
-344.63
-367.46
-390.70
-416.09
-445.68
-481.43
-524.47
-573.81
-625.33
-671.79
-704.45
-715.84
-702.63
-666.96
-615.53
-556.89
-498.34
-444.00
-394.74
-349.66
-307.79
-268.96
-233.59
-201.92
-173.36
-146.58
-120.23
-93.52
-66.59
-40.30
-15.71
6.49
26.19
43.84
60.12
75.67
90.89
105.97
121.00
136.13
151.52
167.18
182.83
198.00
212.07
224.88
236.97
249.76
265.23
285.16
310.07
338.58
367.37
392.15
408.94
415.28
410.63
396.27
374.60
348.44
320.88
294.87
272.87
256.05
243.63
232.84
220.08
202.77
181.07
158.20
138.87
126.69
121.93
121.36
120.08
114.66
105.31
95.84
91.15
93.77
101.75
109.37
110.23
101.18
84.49
66.84
55.48
54.11
60.42
67.38
67.31
56.22
36.41
15.09
0.25
-3.87
0.79
7.55
9.18
2.27
-10.70
-23.05
-28.24
-24.03
-14.03
-5.57
-5.34
-15.38
-31.64
-46.40
-52.53
-47.63
-35.37
-23.27
-18.34
-23.16
-34.41
-44.82
-47.66
-40.50
-26.71
-13.69
-8.43
-13.73
-26.39
-39.16
-44.96
-40.85
-29.83
-18.80
-14.54
-19.54
-30.56
-40.31
-41.71
-31.65
-12.74
8.34
24.66
32.83
34.48
34.74
38.76
48.32
60.63
70.04
71.50
63.78
50.27
37.40
30.78
31.91
37.27
40.10
34.48
18.70
-3.46
-24.60
-37.77
-39.87
-33.25
-23.94
-18.09
-18.70
-24.15
-29.81
-31.17
-26.77
-19.15
-13.25
-13.21
-19.64
-29.03
-35.77
-35.47
-27.65
-16.33
-7.93
-7.64
-16.30
-29.95
-41.70
-45.64
-39.96
-27.67
-14.82
-6.89
-5.82
-9.27
-12.38
-10.92
-3.70
6.78
16.00
20.24
18.70
13.78
9.43
8.42
10.72
13.59
13.41
8.25
-0.72
-9.59
-13.85
-10.91
-1.39
11.38
23.70
34.31
45.56
62.25
88.87
126.31
170.26
211.73
240.31
248.40
234.96
206.20
172.92
145.76
130.62
126.61
126.92
122.35
105.57
74.41
32.93
-11.28
-51.43
-84.60
-111.56
-134.42
-154.01
-169.22
-177.85
-178.40
-171.74
-160.98
-150.49
-143.84
-142.58
-145.95
-151.49
-156.43
-158.77
-158.40
-156.92
-156.71
-159.68
-166.56
-176.75
-188.71
-200.66
-211.10
-219.33
-225.39
-229.60
-231.92
-231.66
-227.60
-218.46
-204.59
-185.56
-161.43
-133.30
-102.97
-72.48
-43.73
-18.19
3.26
20.53
34.18
45.78
57.24
70.62
87.90
110.55
139.38
174.21
214.15
255.25
294.56
329.62
358.60
380.36
394.39
400.64
399.46
391.65
377.81
359.48
338.40
316.21
294.13
272.63
251.21
228.70
206.25
181.63
153.54
121.81
87.25
51.09
14.43
-22.26
-60.07
-98.05
-135.44
-170.33
-200.37
-223.17
-236.53
-238.38
-227.39
-202.38
-163.58
-114.75
-62.60
-15.83
17.68
33.47
33.32
24.49
16.39
15.95
24.51
38.70
52.83
62.00
63.77
58.04
44.23
21.29
-11.20
-51.37
-93.56
-129.41
-151.09
-153.59
-139.29
-116.60
-95.94
-85.35
-87.68
-100.28
-117.37
-133.15
-143.93
-149.22
-150.58
-149.69
-147.50
-144.00
-138.34
-129.27
-115.89
-96.22
-68.33
-30.69
17.02
72.48
129.99
181.17
217.36
232.19
225.87
204.80
178.84
157.30
144.90
140.89
140.88
140.00
135.42
127.08
116.02
101.57
81.87
55.67
24.09
-9.12
-39.36
-63.30
-80.22
-91.89
-100.21
-106.38
-110.12
-110.78
-108.80
-106.21
-105.61
-108.37
-113.91
-120.21
-125.42
-129.23
-133.14
-138.86
-146.67
-154.46
-158.42
-153.99
-137.64
-106.99
-62.70
-9.52
43.41
84.47
103.26
95.27
65.06
25.76
-5.47
-14.64
3.20
42.08
88.13
125.96
145.11
143.17
125.24
100.47
77.67
62.36
56.34
58.89
67.91
81.08
95.43
106.85
110.33
101.76
80.38
50.42
20.02
-2.55
-13.67
-16.45
-19.05
-29.15
-48.39
-70.05
-81.99
-73.63
-43.09
0.15
38.81
56.19
44.69
10.04
-30.60
-56.83
-54.75
-23.47
24.54
69.29
92.49
85.77
53.63
10.63
-25.93
-42.97
-36.67
-12.93
16.71
41.07
54.00
55.74
50.23
40.77
26.91
4.66
-29.98
-76.59
-127.95
-171.56
-194.59
-189.21
-155.79
-102.27
-41.01
14.92
54.87
72.44
66.37
40.72
4.34
-30.97
-53.71
-56.41
-38.36
-5.82
30.43
59.26
73.53
72.45
61.05
46.93
35.81
28.23
19.53
3.18
-24.04
-58.28
-88.86
-103.06
-92.71
-59.13
-13.07
30.45
59.19
68.66
62.41
48.07
31.98
16.41
0.35
-17.12
-33.74
-43.89
-41.26
-22.87
8.34
43.69
71.88
83.34
73.83
46.04
8.54
-27.40
-51.86
-59.69
-51.96
-34.80
-16.02
-1.51
6.85
10.68
12.54
13.31
11.64
5.80
-3.47
-11.70
-12.74
-3.22
13.54
27.24
25.09
-1.01
-48.83
-105.21
-150.95
-168.78
-150.34
-99.02
-27.71
46.82
110.03
153.70
176.81
183.82
181.51
175.76
169.57
162.67
152.58
136.03
110.56
75.57
32.73
-14.14
-59.31
-95.80
-116.98
-118.80
-101.92
-72.53
-40.82
-18.13
-13.28
-30.20
-67.10
-117.45
-171.99
-220.80
-255.02
-267.87
-255.82
-219.76
-165.74
-104.62
-49.81
-13.81
-4.41
-22.25
-59.86
-103.38
-136.16
-144.10
-120.45
-67.94
2.25
75.23
137.75
183.27
212.28
230.17
243.23
254.74
263.51
265.39
259.09
245.64
228.99
213.55
201.60
192.14
180.95
164.03
139.18
106.80
69.88
33.66
4.73
-10.56
-8.19
11.73
44.44
81.59
113.88
133.69
137.01
124.22
98.89
65.52
27.64
-12.48
-53.00
-91.55
-125.14
-150.90
-167.37
-175.28
-177.31
-177.24
-178.28
-182.14
-188.76
-196.75
-204.31
-210.27
-214.55
-218.28
-223.17
-230.68
-241.50
-255.37
-271.37
-288.24
-305.05
-321.24
-336.57
-350.80
-363.17
-372.06
-375.02
-370.05
-354.20
-324.76
-279.71
-218.44
-141.89
-52.59
45.63
147.90
248.66
342.39
423.83
488.72
533.87
557.43
558.99
539.45
500.77
445.54
376.85
296.66
208.40
116.25
24.86
-61.09
-137.34
-200.46
-248.80
-282.10
-301.28
-307.70
-302.82
-287.93
-264.12
-232.46
-194.35
-152.00
-108.07
-65.37
-26.03
8.98
39.95
68.15
95.82
125.93
161.59
205.22
257.30
314.79
371.57
419.71
452.14
464.73
458.90
440.74
418.29
398.18
383.48
373.37
364.74
354.19
339.81
321.43
299.63
274.63
246.03
213.32
176.44
137.83
99.43
63.35
31.69
6.18
-12.09
-23.62
-28.88
-28.81
-24.79
-18.41
-11.42
-5.39
-1.60
-1.42
-6.24
-17.57
-36.98
-65.72
-104.66
-152.95
-208.94
-270.40
-334.10
-394.85
-445.15
-476.38
-481.30
-457.22
-407.76
-342.28
-272.82
-210.09
-160.44
-125.22
-102.49
-89.32
-83.70
-84.68
-91.62
-103.22
-117.39
-131.94
-145.63
-158.71
-172.42
-188.55
-208.15
-230.88
-254.95
-277.63
-296.14
-308.41
-314.13
-313.56
-307.38
-296.21
-280.33
-259.71
-234.33
-204.58
-171.55
-137.01
-102.95
-71.24
-43.15
-19.09
1.30
18.83
34.36
48.46
61.26
72.67
82.50
90.68
97.39
102.86
107.30
110.70
112.75
113.04
111.29
107.60
102.52
96.97
92.03
88.60
87.20
87.93
90.68
95.24
101.57
109.89
120.43
133.29
148.49
166.23
186.94
211.06
238.20
266.33
291.76
309.91
317.13
312.23
296.95
275.02
250.37
225.59
201.46
177.85
154.99
134.15
117.21
105.28
97.67
92.00
85.41
76.21
64.72
52.75
42.31
34.16
27.49
20.63
12.36
2.94
-6.06
-12.65
-15.83
-16.22
-15.87
-17.21
-21.77
-29.51
-38.88
-47.59
-53.69
-56.35
-56.17
-54.85
-54.44
-56.29
-60.51
-65.86
-70.17
-71.10
-66.76
-56.25
-40.01
-19.93
0.97
19.13
31.63
37.29
37.06
34.09
32.54
36.06
46.55
63.82
86.04
110.70
135.32
157.66
175.75
187.68
191.83
187.37
174.56
154.80
130.28
103.37
76.03
49.51
24.30
0.41
-22.24
-43.52
-62.97
-79.94
-93.82
-104.32
-111.57
-116.10
-118.64
-119.88
-120.27
-119.97
-118.91
-116.93
-113.96
-110.08
-105.54
-100.66
-95.75
-90.98
-86.40
-81.96
-77.56
-73.12
-68.63
-64.14
-59.73
-55.50
-51.49
-47.71
-44.17
-40.83
-37.67
-34.68
-31.86
-29.20
-26.69
-24.34
-22.13
-20.07
-18.16
-16.39
-14.73
-13.20
-11.80
-10.53
-9.40
-8.39
-7.50
-6.71
-6.01
-5.40
-4.87
-4.41
-4.00
-3.65
-3.34
-3.06
-2.82
-2.60
-2.41
-2.23
-2.09
-1.95
-1.83
-1.72
-1.62
-1.52
-1.44
-1.36
-1.28
-1.22
-1.16
-1.11
-1.05
-1.01
-0.96
-0.92
-0.88
-0.84
-0.81
-0.78
-0.75
-0.72
-0.70
-0.67
-0.64
-0.62
-0.60
-0.58
-0.57
-0.55
-0.53
-0.51
-0.50
-0.48
-0.47
-0.46
-0.44
-0.44
-0.44
-0.44
-0.45
-0.46
-0.46
-0.46
-0.46
-0.44
-0.41
-0.36
-0.31
-0.23
-0.16
-0.06
0.03
0.13
0.23
0.32
0.41
0.49
0.57
0.65
0.72
0.79
0.88
0.99
1.11
1.25
1.37
1.45
1.48
1.46
1.42
1.45
1.56
1.79
2.13
2.53
2.91
3.26
3.57
3.88
4.29
4.85
5.59
6.49
7.44
8.34
9.12
9.77
10.40
11.19
12.28
13.69
15.33
16.98
18.36
19.38
20.11
20.95
22.51
25.33
29.57
35.02
40.96
46.43
50.54
52.65
52.56
50.45
46.52
40.78
32.84
22.08
8.02
-8.99
-27.97
-47.13
-64.30
-77.86
-86.98
-92.03
-94.23
-95.31
-96.34
-98.36
-102.15
-107.80
-114.23
-118.68
-117.30
-106.55
-85.16
-55.31
-22.55
6.39
26.41
35.89
36.86
33.21
28.49
24.40
20.74
16.53
11.35
5.89
1.39
-1.23
-2.09
-2.18
-2.62
-4.18
-6.62
-8.84
-9.53
-7.59
-2.85
3.92
11.28
17.64
21.86
23.51
22.99
21.10
18.65
16.15
13.75
11.17
8.09
4.36
0.05
-4.43
-8.62
-12.13
-14.73
-16.42
-17.26
-17.36
-16.74
-15.37
-13.17
-10.17
-6.62
-2.82
0.75
3.68
5.65
6.55
6.35
5.18
3.20
0.56
-2.51
-5.92
-9.56
-13.25
-16.86
-20.34
-23.72
-27.22
-31.31
-36.38
-42.95
-51.40
-61.87
-74.22
-88.02
-102.70
-117.67
-132.50
-146.64
-159.55
-170.73
-179.43
-184.79
-185.92
-181.94
-172.04
-157.52
-139.54
-119.38
-98.34
-77.36
-56.96
-37.21
-17.70
2.24
23.34
46.13
70.01
93.06
112.46
125.57
131.43
131.69
130.43
132.85
143.45
164.18
193.99
229.48
266.48
301.47
332.46
358.58
379.22
393.60
400.47
398.65
387.17
365.58
333.40
290.15
235.59
170.81
99.32
27.22
-37.86
-89.39
-124.20
-143.92
-154.23
-162.24
-173.28
-188.99
-207.62
-225.81
-240.95
-252.26
-260.58
-267.17
-272.33
-275.20
-274.44
-269.46
-260.67
-249.01
-234.75
-217.07
-194.66
-166.64
-133.54
-97.16
-59.80
-23.21
11.63
44.66
75.68
104.17
129.91
153.46
176.33
200.09
225.39
251.14
275.68
296.79
312.48
321.82
324.70
321.40
312.22
297.60
278.43
257.36
237.02
218.79
202.80
188.13
173.40
157.34
139.25
118.94
98.01
77.36
56.40
34.18
10.29
-14.66
-39.21
-61.67
-89.66
-124.86
-163.56
-198.79
-223.96
-235.76
-234.32
-221.88
-201.65
-177.23
-150.94
-123.27
-97.68
-77.72
-65.41
-60.94
-62.74
-68.09
-74.07
-77.14
-75.15
-67.97
-58.61
-49.01
-40.63
-34.14
-29.39
-25.46
-20.25
-12.03
-0.20
14.88
32.33
50.53
67.66
81.95
92.12
97.99
99.95
98.87
95.84
92.15
88.62
85.59
82.95
80.18
76.66
71.80
65.48
58.48
52.33
48.10
45.07
40.06
28.49
6.65
-25.68
-64.10
-100.63
-126.73
-136.82
-130.36
-111.38
-86.22
-60.87
-39.26
-22.97
-11.54
-2.59
8.28
26.77
58.22
104.86
163.35
224.41
275.33
304.46
305.41
279.39
233.60
177.65
119.61
63.58
9.73
-43.99
-99.73
-158.34
-218.93
-279.10
-335.03
-381.54
-412.43
-421.90
-406.67
-367.88
-311.67
-247.80
-186.49
-135.22
-96.82
-69.72
-49.87
-33.20
-17.16
-1.01
15.04
30.72
45.94
60.40
73.01
82.16
86.53
86.12
82.55
78.08
74.25
70.75
65.54
56.33
42.38
25.58
9.83
-0.90
-5.22
-5.53
-7.43
-17.04
-37.75
-68.13
-102.15
-131.67
-150.00
-154.62
-147.65
-134.25
-119.72
-107.19
-97.07
-87.93
-78.50
-68.69
-59.52
-51.76
-45.16
-38.18
-29.07
-17.36
-4.47
6.57
12.82
12.73
7.04
-1.82
-11.01
-18.21
-22.38
-23.67
-23.04
-21.86
-21.53
-22.98
-26.39
-30.78
-34.20
-34.31
-29.37
-19.06
-4.76
10.94
25.30
36.37
43.63
48.02
51.20
54.83
59.98
66.72
74.37
81.85
88.38
93.79
98.87
105.03
113.87
126.42
142.42
159.99
175.96
186.81
189.95
184.95
173.83
160.41
148.77
141.51
138.49
137.11
133.34
123.64
106.42
82.33
53.61
23.03
-7.04
-34.89
-59.24
-79.52
-96.15
-111.07
-127.78
-150.08
-179.86
-215.04
-248.86
-271.79
-275.39
-256.36
-218.05
-169.12
-119.33
-75.55
-39.78
-10.03
16.62
41.36
62.75
78.28
86.28
87.99
87.27
88.54
94.49
104.96
117.14
127.57
133.82
135.31
133.63
132.07
134.18
142.63
158.20
179.54
203.70
227.22
246.50
259.31
265.01
264.04
257.01
243.75
223.26
194.55
157.37
111.00
55.41
-8.61
-79.74
-155.92
-234.08
-309.29
-374.78
-423.48
-452.97
-463.89
-458.82
-440.86
-413.18
-379.06
-341.53
-303.32
-266.89
-238.64
-223.14
-220.03
-223.62
-226.23
-222.58
-211.74
-196.89
-183.72
-183.50
-203.97
-245.09
-298.96
-354.70
-403.58
-440.87
-465.11
-442.24
-354.32
-210.88
-47.47
98.18
206.27
276.42
319.60
349.79
377.95
402.55
416.38
412.77
390.48
354.50
313.21
275.54
248.37
234.57
228.39
222.79
214.36
205.20
200.45
203.36
213.65
227.60
239.98
243.38
233.21
209.47
176.23
139.25
103.68
71.82
44.24
20.77
-0.00
-18.77
-34.88
-48.88
-57.65
-60.05
-56.76
-49.20
-38.95
-27.83
-17.97
-11.87
-11.14
-16.38
-28.04
-45.65
-67.12
-89.07
-107.72
-120.62
-127.71
-130.09
-129.45
-128.48
-130.19
-138.02
-156.05
-181.03
-203.05
-213.89
-206.02
-175.66
-125.44
-63.62
-1.38
51.15
88.28
109.21
116.81
116.28
112.13
106.77
101.11
95.46
90.61
87.79
87.45
88.51
89.71
89.79
88.04
84.93
81.61
79.29
78.71
79.47
80.22
80.01
78.08
74.55
70.53
68.04
69.03
74.29
81.90
87.16
84.16
67.54
35.55
-8.47
-56.59
-99.67
-130.96
-148.72
-157.26
-160.15
-160.35
-158.26
-152.06
-139.35
-119.12
-92.85
-64.10
-36.72
-13.36
4.09
14.62
17.85
14.22
5.72
-2.92
-6.95
-2.58
11.22
31.36
52.08
67.55
74.43
72.95
66.09
57.40
49.06
41.74
34.89
28.42
23.05
19.94
19.81
22.18
25.52
27.95
28.04
25.51
21.30
17.01
14.19
13.70
15.30
17.87
20.01
20.70
19.64
17.31
14.67
12.47
11.36
11.37
11.93
12.26
11.76
10.24
7.93
5.32
2.92
1.01
-0.49
-1.94
-3.78
-6.33
-9.71
-13.79
-18.34
-23.15
-28.13
-33.41
-39.22
-45.76
-53.14
-61.30
-70.06
-79.24
-88.77
-98.77
-109.67
-122.00
-136.22
-152.49
-170.52
-189.52
-208.32
-225.58
-239.95
-250.30
-255.98
-255.97
-249.14
-234.31
-210.60
-177.90
-137.34
-91.48
-43.99
1.14
40.59
72.48
96.91
115.58
130.87
144.67
157.52
168.53
176.18
179.26
177.79
173.53
169.47
168.80
173.90
185.77
203.56
224.47
243.59
254.43
250.87
229.24
190.27
139.60
86.22
38.26
1.57
-22.51
-38.21
-51.38
-65.45
-79.03
-86.31
-80.25
-56.60
-16.45
33.33
82.68
122.21
146.22
154.01
149.22
137.61
124.62
113.39
103.84
93.22
77.79
54.34
21.52
-19.19
-63.38
-104.67
-136.39
-153.49
-153.72
-137.82
-109.00
-72.14
-32.50
5.51
39.24
68.21
93.70
117.64
141.20
163.78
182.78
194.45
195.17
183.11
158.97
125.80
87.98
49.79
14.54
-16.02
-41.67
-63.55
-83.64
-103.83
-124.71
-144.72
-160.33
-167.37
-163.29
-149.09
-129.34
-110.67
-98.87
-96.57
-102.30
-111.62
-119.45
-122.30
-119.39
-112.55
-105.31
-101.63
-104.84
-116.27
-134.22
-153.54
-166.61
-165.97
-147.75
-114.35
-74.45
-39.97
-21.13
-22.23
-40.11
-65.86
-88.95
-100.95
-98.05
-80.74
-51.79
-14.28
29.24
76.17
122.92
164.68
196.73
215.94
222.02
217.67
207.51
196.37
187.67
182.61
180.15
178.33
175.26
170.08
163.15
155.59
148.45
141.87
135.93
128.42
116.96
99.85
76.65
48.19
16.28
-17.11
-50.28
-82.07
-112.12
-140.02
-165.21
-186.88
-203.91
-215.08
-219.44
-216.51
-206.38
-190.08
-168.85
-144.32
-118.38
-92.91
-69.82
-50.69
-36.80
-28.38
-25.28
-25.86
-27.61
-27.59
-22.83
-11.40
6.89
30.47
56.59
82.08
104.90
124.26
140.78
155.99
171.07
186.17
200.08
210.71
215.83
214.53
208.71
199.86
189.15
176.76
161.23
139.85
109.75
68.92
17.28
-42.66
-106.45
-168.84
-223.35
-262.56
-279.44
-271.00
-241.18
-201.16
-169.46
-157.72
-169.81
-200.41
-237.38
-266.63
-278.00
-268.03
-235.00
-184.97
-124.45
-58.53
9.33
75.44
135.39
184.26
218.30
236.81
242.24
240.33
236.67
235.59
235.78
233.06
222.27
199.79
164.86
120.05
71.29
24.75
-15.25
-47.55
-72.76
-92.67
-109.05
-123.48
-136.34
-146.17
-150.53
-146.69
-132.76
-108.16
-75.02
-35.15
3.56
32.17
45.10
41.75
25.57
1.29
-26.80
-56.16
-85.63
-114.40
-140.56
-161.11
-173.25
-175.12
-168.86
-156.05
-139.33
-123.32
-113.20
-111.47
-115.29
-116.55
-104.69
-71.62
-15.37
59.43
142.85
223.96
295.37
354.22
400.51
434.48
455.05
452.85
423.33
367.50
291.99
207.15
123.17
47.02
-18.61
-74.26
-122.05
-162.96
-197.34
-224.86
-245.03
-258.30
-266.32
-271.49
-276.24
-282.14
-288.16
-291.93
-292.07
-285.20
-268.69
-241.58
-204.21
-158.23
-105.72
-48.28
12.52
74.77
136.26
193.71
243.30
281.59
306.23
316.49
313.69
300.33
279.16
252.92
223.69
191.72
158.08
123.82
89.08
52.71
12.98
-30.97
-77.40
-122.27
-160.78
-189.93
-210.00
-224.01
-235.41
-244.31
-247.35
-238.67
-213.36
-170.64
-115.22
-55.34
0.79
47.75
83.99
110.07
127.29
136.41
140.25
140.10
137.64
135.84
137.67
145.38
158.67
174.94
190.36
201.57
206.72
205.83
200.34
190.11
175.84
158.60
140.52
124.64
113.97
109.51
107.77
103.30
89.97
63.51
23.24
-26.98
-80.35
-129.62
-169.82
-200.22
-224.89
-249.67
-279.43
-316.19
-357.77
-397.99
-428.95
-440.32
-426.40
-386.88
-326.40
-252.36
-172.39
-92.66
-17.66
49.05
104.35
145.20
170.28
180.72
179.91
172.48
162.95
154.35
147.72
142.47
136.61
128.55
117.88
105.43
92.83
81.74
73.16
67.09
62.76
58.75
53.96
47.98
41.08
34.07
27.77
22.74
19.04
16.39
14.14
11.77
9.03
5.98
2.87
0.04
-2.29
-4.07
-5.36
-6.35
-7.23
-8.10
-8.99
-9.87
-10.65
-11.28
-11.75
-12.05
-12.17
-12.14
-11.97
-11.70
-11.35
-10.95
-10.38
-9.77
-9.17
-8.59
-8.04
-7.52
-7.04
-6.59
-6.17
-5.77
-5.41
-5.07
-4.76
-4.49
-4.27
-4.13
-4.01
-3.88
-3.73
-3.52
-3.27
-3.01
-2.76
-2.60
-2.53
-2.53
-2.59
-2.65
-2.70
-2.69
-2.64
-2.60
-2.61
-2.74
-2.93
-3.15
-3.30
-3.28
-3.10
-2.86
-2.71
-2.83
-3.28
-3.99
-4.74
-5.26
-5.36
-5.01
-4.46
-4.09
-4.25
-5.15
-6.63
-8.31
-9.67
-10.31
-10.13
-9.45
-8.88
-9.00
-10.17
-12.35
-15.00
-17.41
-19.04
-19.60
-19.22
-18.42
-17.73
-17.82
-19.45
-23.23
-29.16
-35.85
-40.41
-39.40
-30.80
-15.49
2.10
15.61
19.62
12.18
-4.55
-25.71
-46.01
-61.47
-69.66
-69.11
-58.84
-38.76
-10.75
20.84
50.01
71.29
81.93
82.84
77.32
69.39
62.02
56.44
52.82
50.99
50.86
52.19
54.33
56.11
56.46
55.13
52.65
50.55
50.49
53.51
59.32
66.72
73.92
79.68
83.23
85.03
85.86
86.36
86.28
84.29
78.93
69.60
56.24
40.67
24.02
6.47
-12.24
-31.43
-48.80
-60.96
-65.37
-62.79
-57.89
-57.28
-66.10
-84.95
-109.24
-131.73
-146.56
-152.12
-150.86
-146.27
-139.93
-129.41
-111.65
-84.92
-51.75
-18.61
6.81
19.86
21.03
14.96
7.43
2.39
0.11
-1.88
-6.52
-14.96
-25.64
-35.09
-40.04
-38.67
-30.74
-17.09
0.21
18.22
33.40
42.78
45.43
43.55
41.91
45.41
56.23
72.11
87.15
94.39
90.44
76.36
56.93
37.77
22.30
10.76
1.22
-8.15
-17.59
-25.45
-30.03
-30.55
-27.69
-23.50
-20.47
-20.15
-22.76
-27.22
-31.58
-34.30
-34.76
-33.38
-31.43
-30.43
-31.45
-34.79
-39.96
-45.95
-51.93
-57.34
-61.97
-65.77
-68.71
-70.29
-69.64
-65.71
-57.52
-44.56
-27.08
-6.01
17.29
40.94
63.13
82.15
96.67
105.81
109.11
106.64
98.88
86.85
71.77
55.21
38.76
23.92
12.08
4.11
0.43
0.85
4.70
10.77
17.67
23.94
28.20
29.61
27.61
22.24
12.88
1.08
-11.94
-24.93
-36.31
-45.79
-52.68
-56.50
-56.90
-53.92
-47.83
-39.49
-29.67
-19.35
-9.38
-0.20
7.96
15.11
21.33
26.79
31.37
35.39
39.09
42.67
46.43
50.58
55.12
59.94
65.12
71.03
79.04
89.92
103.38
117.62
129.56
136.07
135.35
128.39
114.94
98.95
84.52
74.01
67.53
63.59
60.50
57.00
52.01
43.62
29.43
6.68
-25.49
-64.32
-103.97
-137.95
-162.35
-177.78
-188.65
-200.00
-214.94
-233.03
-250.79
-264.02
-269.73
-267.27
-257.85
-243.22
-224.54
-202.42
-177.41
-150.53
-123.40
-97.67
-74.62
-54.75
-37.74
-22.58
-8.36
5.23
17.89
28.78
37.07
42.37
44.85
45.21
44.46
43.65
43.58
44.81
47.54
51.53
56.22
60.79
64.52
67.00
68.29
68.84
69.24
69.99
71.46
73.71
76.59
79.71
82.48
84.29
84.59
83.18
80.22
76.24
71.86
67.49
63.19
58.74
53.79
48.14
41.86
35.29
28.78
22.72
17.30
12.61
8.72
5.74
3.69
2.37
1.18
-0.80
-4.30
-9.45
-15.55
-21.23
-25.05
-26.16
-24.51
-20.68
-15.32
-8.63
-0.28
10.22
23.13
38.14
54.52
71.42
88.06
103.85
118.32
131.21
142.58
152.86
162.73
172.85
183.67
195.28
207.53
220.25
233.16
245.61
256.04
261.79
259.55
246.28
220.47
182.82
136.25
84.90
32.81
-17.34
-64.51
-108.79
-150.40
-188.74
-222.18
-248.57
-266.46
-276.08
-279.86
-282.13
-288.11
-302.87
-329.59
-368.16
-414.26
-459.83
-494.81
-510.37
-501.90
-471.15
-425.86
-377.16
-335.72
-308.05
-294.97
-292.05
-292.16
-288.24
-275.54
-252.49
-220.18
-181.61
-140.54
-100.64
-64.90
-35.40
-13.19
1.87
11.01
16.55
21.54
29.29
42.51
62.42
87.95
115.78
141.43
160.74
171.57
174.56
172.93
171.00
172.97
181.94
199.54
225.78
258.59
293.82
325.77
348.75
358.82
354.99
339.28
315.40
287.20
257.38
227.55
198.88
172.79
150.98
134.62
123.35
115.03
106.54
95.21
80.16
62.46
44.64
29.40
18.64
13.03
12.35
16.16
24.18
36.32
51.91
69.36
86.00
98.83
105.69
105.99
101.02
93.39
85.97
81.04
79.72
82.11
87.46
94.61
102.28
109.17
114.10
116.22
114.88
109.90
101.41
89.71
75.20
58.06
38.32
15.95
-8.89
-35.63
-63.05
-89.46
-113.13
-132.91
-148.82
-161.85
-173.61
-185.50
-197.95
-210.16
-220.38
-226.42
-226.63
-220.58
-209.56
-196.10
-183.24
-173.44
-167.85
-165.92
-165.44
-163.08
-155.14
-138.27
-110.15
-70.06
-19.22
39.06
99.91
157.91
208.28
247.97
275.99
293.18
301.54
303.68
302.21
299.52
297.34
296.31
295.70
293.36
286.69
274.11
256.06
234.95
213.75
194.52
177.30
160.20
140.42
115.71
85.55
51.02
13.21
-27.56
-72.00
-121.15
-175.63
-235.43
-299.45
-364.74
-426.34
-477.91
-512.47
-523.48
-506.35
-460.51
-391.02
-307.98
-223.99
-151.49
-100.49
-76.86
-81.13
-105.56
-136.85
-159.90
-165.14
-151.64
-123.70
-86.98
-46.88
-8.57
22.02
41.90
47.92
39.10
19.10
-4.13
-20.85
-22.82
-5.20
33.61
89.64
151.81
203.32
229.99
227.68
203.23
167.97
131.56
99.06
71.32
46.92
25.09
7.12
-4.92
-9.68
-8.39
-3.58
1.99
6.88
11.05
15.74
23.01
34.52
51.06
71.69
94.47
117.14
137.52
153.72
164.99
172.53
175.17
173.79
168.64
158.30
139.80
110.02
67.89
16.08
-38.88
-88.82
-126.42
-148.36
-155.75
-152.66
-143.63
-131.86
-118.68
-104.18
-88.65
-72.88
-58.77
-48.39
-42.88
-41.65
-42.79
-43.99
-43.76
-42.16
-40.18
-39.33
-40.46
-43.04
-45.36
-45.38
-41.61
-33.87
-23.46
-12.54
-3.73
0.87
0.30
-4.84
-12.69
-20.82
-27.06
-30.41
-30.92
-29.56
-27.49
-25.38
-23.45
-21.65
-20.02
-18.88
-18.57
-19.14
-20.24
-21.38
-22.40
-23.78
-26.47
-31.31
-38.39
-46.59
-53.73
-57.32
-55.29
-46.80
-32.34
-13.57
7.19
27.41
44.61
56.63
61.84
59.49
50.03
35.08
17.14
-0.87
-16.54
-28.31
-35.63
-38.87
-38.97
-37.29
-35.48
-35.30
-38.13
-44.39
-53.20
-62.43
-69.43
-71.88
-68.82
-60.82
-49.63
-37.51
-26.28
-16.90
-9.43
-3.37
2.08
7.61
13.81
21.02
29.38
38.71
48.40
57.32
63.85
66.35
63.69
55.79
43.88
30.12
16.85
5.80
-2.46
-8.55
-13.66
-18.79
-24.08
-28.73
-31.40
-30.79
-26.20
-17.73
-6.24
6.93
20.15
31.81
40.53
45.36
46.01
42.99
37.61
31.54
26.43
23.40
22.80
24.29
27.08
30.36
33.52
36.30
38.56
40.24
41.21
41.32
40.54
39.02
37.09
35.02
32.93
30.65
27.91
24.46
20.31
15.76
11.23
7.12
3.54
0.42
-2.41
-5.09
-7.63
-9.91
-11.79
-13.15
-13.92
-14.19
-14.11
-13.89
-13.81
-14.21
-15.23
-16.86
-18.66
-19.84
-19.48
-16.74
-11.19
-3.04
6.87
17.33
27.03
34.78
39.95
42.30
42.00
39.54
35.50
30.61
25.65
21.39
18.35
16.84
16.71
17.48
18.55
19.38
19.69
19.54
19.05
18.37
17.51
16.28
14.53
12.19
9.30
6.01
2.49
-1.12
-4.70
-8.06
-10.97
-13.12
-14.26
-14.41
-13.81
-12.90
-12.16
-11.98
-12.51
-13.68
-15.23
-16.82
-18.17
-19.17
-19.82
-20.38
-21.23
-22.76
-25.28
-28.86
-33.27
-37.93
-42.05
-44.63
-44.74
-41.67
-35.15
-25.58
-13.98
-1.84
9.25
18.01
23.80
26.63
27.12
26.10
24.40
22.67
21.32
20.63
20.60
21.10
21.89
22.70
23.28
23.52
23.41
22.98
22.28
21.28
20.08
18.82
17.71
16.92
16.51
16.29
15.94
15.10
13.54
11.29
8.57
5.63
2.69
-0.16
-2.84
-5.30
-7.39
-9.02
-10.13
-10.79
-11.20
-11.52
-11.92
-12.48
-13.27
-14.27
-15.51
-16.93
-18.50
-20.18
-21.92
-23.81
-25.92
-28.39
-31.22
-34.22
-36.94
-38.78
-39.00
-36.88
-32.05
-24.53
-14.94
-4.35
5.99
14.93
21.72
26.06
28.15
28.50
27.67
26.18
24.44
22.78
21.39
20.36
19.66
19.09
18.40
17.40
16.09
14.61
13.27
12.25
11.68
11.46
11.37
11.10
10.46
9.45
8.16
6.78
5.50
4.39
3.50
2.79
2.16
1.52
0.83
0.04
-0.87
-1.86
-2.97
-4.20
-5.62
-7.22
-9.00
-10.90
-12.83
-14.64
-16.25
-17.64
-18.86
-20.13
-21.64
-23.56
-25.95
-28.61
-31.08
-32.69
-32.75
-30.65
-26.09
-19.32
-11.00
-2.19
5.92
12.35
16.54
18.47
18.55
17.42
15.74
14.05
12.74
12.05
12.06
12.66
13.61
14.56
15.14
15.15
14.61
13.67
12.67
11.80
11.12
10.56
9.98
9.14
7.93
6.35
4.42
2.31
0.26
-1.51
-2.82
-3.58
-3.86
-3.80
-3.68
-3.71
-4.00
-4.52
-5.18
-5.82
-6.36
-6.87
-7.45
-8.32
-9.63
-11.38
-13.45
-15.61
-17.65
-19.46
-21.10
-22.70
-24.45
-26.41
-28.45
-30.34
-31.73
-32.18
-31.33
-28.90
-24.65
-18.60
-11.08
-2.76
5.38
12.35
17.40
20.17
20.77
19.79
17.92
15.85
14.09
12.92
12.42
12.61
13.38
14.46
15.63
16.58
17.04
16.97
16.46
15.76
15.17
14.84
14.70
14.46
13.77
12.38
10.26
7.60
4.80
2.24
0.16
-1.27
-2.14
-2.57
-2.77
-2.88
-3.03
-3.22
-3.43
-3.60
-3.68
-3.72
-3.87
-4.32
-5.23
-6.73
-8.80
-11.34
-14.19
-17.11
-19.85
-22.22
-24.07
-25.41
-26.32
-27.03
-27.71
-28.37
-28.87
-28.81
-27.73
-25.05
-20.61
-14.53
-7.46
-0.32
5.99
10.69
13.54
14.70
14.73
14.21
13.69
13.56
14.01
15.04
16.44
17.89
18.98
19.42
19.09
18.12
16.85
15.68
14.87
14.47
14.38
14.32
14.00
13.25
12.01
10.34
8.35
6.19
4.07
2.14
0.49
-0.90
-2.03
-2.97
-3.71
-4.30
-4.68
-4.76
-4.51
-4.02
-3.40
-2.85
-2.56
-2.61
-3.03
-3.80
-4.87
-6.20
-7.78
-9.54
-11.34
-13.04
-14.38
-15.30
-15.84
-16.19
-16.71
-17.67
-19.26
-21.41
-23.81
-25.81
-26.72
-25.82
-22.70
-17.42
-10.45
-2.77
4.40
10.02
13.56
14.98
14.82
13.85
12.68
11.73
11.14
10.88
10.89
11.14
11.53
11.96
12.30
12.41
12.25
11.86
11.36
10.85
10.36
9.89
9.44
9.02
8.57
8.04
7.24
6.04
4.34
2.19
-0.17
-2.51
-4.57
-6.27
-7.58
-8.52
-9.07
-9.14
-8.64
-7.58
-6.13
-4.62
-3.49
-3.07
-3.52
-4.79
-6.58
-8.55
-10.41
-12.08
-13.66
-15.40
-17.49
-20.04
-22.92
-25.75
-27.98
-29.01
-28.35
-25.78
-21.38
-15.56
-8.93
-2.17
4.03
9.16
12.87
15.11
16.06
16.10
15.62
14.88
14.03
13.16
12.83
14.17
18.65
27.37
40.21
55.42
70.02
80.83
85.56
83.62
76.03
64.66
51.31
37.31
23.45
10.28
-1.48
-11.15
-18.15
-22.36
-24.10
-23.93
-22.48
-20.30
-17.92
-15.66
-13.84
-12.57
-11.88
-11.77
-12.14
-12.97
-14.20
-15.72
-17.23
-18.36
-18.73
-18.12
-16.64
-14.50
-12.15
-9.95
-8.19
-6.95
-6.17
-5.65
-5.04
-3.92
-1.77
1.78
6.85
13.31
20.83
29.05
37.57
46.09
54.20
61.31
66.48
68.57
66.36
58.85
45.68
27.29
5.16
-18.33
-40.26
-57.88
-69.31
-74.00
-72.81
-67.55
-60.25
-52.59
-45.62
-39.81
-35.29
-32.12
-30.22
-29.29
-28.78
-27.85
-25.89
-22.72
-18.80
-14.99
-12.24
-11.15
-11.77
-13.59
-15.79
-17.61
-18.54
-18.52
-17.89
-17.07
-16.49
-16.36
-16.65
-17.09
-17.43
-17.55
-17.46
-17.43
-17.74
-18.63
-20.20
-22.41
-25.10
-28.05
-31.11
-34.09
-36.91
-39.44
-41.53
-42.95
-43.40
-42.61
-40.36
-36.58
-31.40
-25.09
-18.00
-10.60
-3.39
3.05
8.08
11.12
11.82
10.19
6.63
1.87
-3.28
-8.05
-11.93
-14.67
-16.38
-17.44
-18.13
-18.51
-18.14
-16.23
-11.96
-4.97
4.33
14.77
24.84
33.10
38.87
42.17
43.61
44.07
44.23
44.47
44.90
45.42
45.89
46.21
46.28
46.12
45.87
45.70
45.78
46.06
46.18
45.58
43.75
40.46
36.01
31.07
26.42
22.62
19.77
17.60
15.74
13.93
12.10
10.37
8.81
7.34
5.75
3.83
1.55
-0.90
-3.19
-5.00
-6.22
-6.91
-7.24
-7.27
-6.92
-5.87
-3.74
-0.32
4.22
9.31
14.13
17.87
19.97
20.26
19.02
16.84
14.29
11.87
9.93
8.71
8.42
9.25
11.17
14.05
17.47
21.02
24.32
27.13
29.34
30.90
31.77
31.93
31.43
30.34
28.79
26.96
24.93
22.77
20.50
18.20
15.97
13.94
12.15
10.68
9.58
8.86
8.41
8.04
7.46
6.31
4.28
1.19
-3.03
-8.19
-14.00
-20.08
-26.02
-31.38
-35.85
-39.21
-41.31
-42.22
-42.10
-41.29
-40.19
-39.19
-38.56
-38.38
-38.49
-38.51
-37.91
-36.16
-32.84
-27.76
-21.07
-13.28
-5.15
2.33
8.30
12.14
13.68
13.14
10.97
7.79
4.15
0.52
-2.80
-5.59
-7.79
-9.37
-10.29
-10.56
-10.12
-8.95
-7.10
-4.68
-1.82
1.26
4.34
7.21
9.63
11.27
11.79
10.92
8.52
4.72
-0.06
-5.27
-10.20
-14.33
-17.34
-19.16
-19.95
-19.99
-19.56
-18.87
-18.11
-17.38
-16.91
-16.92
-17.55
-18.85
-20.56
-22.12
-22.76
-21.75
-18.57
-13.15
-5.85
2.62
11.26
18.94
24.60
27.52
27.41
24.62
19.98
14.68
9.82
6.23
4.25
3.85
4.68
6.25
8.14
9.93
11.32
12.14
12.33
11.98
11.27
10.32
9.23
8.08
6.73
5.12
3.19
1.04
-1.18
-3.23
-4.91
-6.12
-6.81
-7.10
-7.11
-6.94
-6.63
-6.21
-5.72
-5.27
-4.99
-5.10
-5.83
-7.24
-9.31
-11.85
-14.57
-17.22
-19.66
-21.88
-23.87
-25.70
-27.24
-28.21
-28.22
-26.75
-23.53
-18.59
-12.41
-5.68
0.69
6.01
9.87
12.28
13.56
14.14
14.44
14.69
15.01
15.33
15.63
15.81
15.81
15.59
15.15
14.64
14.22
14.04
14.12
14.24
14.13
13.41
11.96
10.03
8.21
7.29
8.03
10.66
14.79
19.55
23.73
26.23
26.46
24.39
20.54
15.75
10.76
6.17
2.27
-0.92
-3.42
-5.37
-6.92
-8.17
-9.20
-10.15
-11.14
-12.24
-13.50
-14.84
-16.13
-17.29
-18.24
-19.02
-19.80
-20.68
-21.63
-22.50
-22.72
-21.71
-18.96
-14.27
-7.87
-0.60
6.34
11.48
13.49
11.81
6.66
-0.58
-7.71
-12.29
-12.48
-7.74
0.92
11.21
20.49
26.54
28.35
26.29
21.67
16.19
11.24
7.65
5.59
4.81
4.86
5.24
5.50
5.25
4.21
2.31
-0.20
-2.84
-4.93
-5.89
-5.40
-3.45
-0.44
3.10
6.59
9.54
11.66
12.88
13.31
13.14
12.60
11.90
11.05
9.97
8.46
6.39
3.81
1.06
-1.48
-3.46
-4.74
-5.37
-5.50
-5.30
-4.92
-4.47
-4.11
-4.09
-4.70
-6.07
-8.05
-10.07
-11.33
-10.99
-8.50
-3.88
2.25
8.59
13.71
16.33
15.75
12.18
6.68
0.88
-3.48
-5.16
-3.86
-0.30
3.95
7.22
8.23
6.68
3.31
-0.49
-3.18
-3.75
-2.04
1.28
5.02
7.85
8.81
7.54
4.32
0.00
-4.22
-7.10
-7.60
-5.25
-0.30
6.31
13.19
18.96
22.69
24.14
23.82
22.47
20.80
18.93
16.38
12.42
6.55
-0.91
-8.70
-14.90
-17.57
-15.69
-9.63
-1.26
6.68
11.53
11.77
7.53
0.62
-6.15
-10.05
-9.30
-3.61
5.83
16.93
27.44
35.49
39.98
40.50
37.24
30.82
22.24
12.89
4.37
-1.77
-4.46
-3.51
0.38
5.81
11.18
15.35
17.81
18.80
18.99
19.07
19.45
20.13
20.73
20.75
19.84
17.79
14.79
11.21
7.51
4.16
1.37
-0.91
-2.83
-4.71
-6.76
-9.01
-11.26
-13.15
-14.31
-14.58
-14.05
-12.97
-11.78
-10.84
-10.34
-10.25
-10.37
-10.47
-10.37
-10.09
-9.91
-10.31
-11.90
-15.16
-20.04
-25.89
-31.28
-34.42
-33.71
-28.41
-18.97
-7.05
4.91
14.49
19.90
20.50
16.82
10.25
2.52
-4.83
-10.69
-14.60
-16.69
-17.39
-17.29
-16.93
-16.67
-16.67
-16.90
-17.15
-17.13
-16.55
-15.20
-13.06
-10.36
-7.63
-5.55
-4.70
-5.36
-7.44
-10.49
-13.96
-17.29
-20.17
-22.46
-24.21
-25.50
-26.42
-26.99
-27.27
-27.30
-27.18
-26.94
-26.56
-26.01
-25.18
-24.01
-22.34
-20.10
-17.15
-13.38
-8.77
-3.41
2.37
8.04
12.94
16.56
18.56
18.98
18.13
16.52
14.67
13.05
11.96
11.66
12.25
13.74
15.98
18.64
21.24
23.34
24.67
25.16
24.93
24.20
23.16
21.98
20.70
19.27
17.62
15.69
13.48
11.03
8.42
5.77
3.18
0.74
-1.53
-3.64
-5.63
-7.43
-9.01
-10.30
-11.30
-12.06
-12.65
-13.18
-13.69
-14.17
-14.50
-14.65
-14.58
-14.47
-14.53
-15.05
-16.26
-18.20
-20.86
-24.02
-27.26
-30.02
-31.62
-31.41
-28.93
-24.06
-17.07
-8.74
-0.10
7.67
13.69
17.49
18.96
18.45
16.54
13.91
11.27
9.14
7.77
7.26
7.42
7.95
8.54
8.97
9.18
9.16
8.92
8.46
7.68
6.54
5.07
3.37
1.60
-0.13
-1.80
-3.46
-5.20
-7.06
-9.00
-10.91
-12.63
-14.00
-14.89
-15.14
-14.69
-13.48
-11.68
-9.63
-7.77
-6.56
-6.29
-6.90
-8.04
-9.25
-9.98
-10.00
-9.40
-8.53
-8.03
-8.54
-10.44
-13.68
-17.62
-20.97
-22.07
-19.37
-11.90
0.09
15.06
30.47
43.42
51.59
53.93
50.79
43.77
35.00
26.34
19.07
13.63
9.96
7.73
6.59
6.07
5.66
4.83
2.96
-0.10
-3.93
-7.49
-9.40
-8.26
-3.47
4.52
14.27
23.61
30.44
33.37
32.07
27.23
20.23
12.43
4.78
-2.25
-8.58
-14.10
-18.59
-21.63
-23.03
-22.88
-21.75
-20.45
-19.55
-19.19
-18.97
-18.27
-16.65
-14.12
-11.17
-8.61
-7.26
-7.61
-9.83
-13.63
-18.18
-22.28
-24.37
-22.99
-17.33
-7.63
4.63
16.87
26.23
30.36
28.18
20.28
8.79
-3.28
-12.93
-17.96
-17.72
-12.96
-5.54
2.24
8.52
12.23
13.19
11.95
9.37
6.25
3.27
0.84
-0.86
-1.85
-2.28
-2.53
-2.98
-3.88
-5.25
-6.77
-7.89
-8.14
-7.28
-5.47
-3.26
-1.39
-0.44
-0.70
-1.94
-3.47
-4.43
-4.03
-1.96
1.55
5.80
9.85
12.80
14.19
13.96
12.38
9.93
7.02
3.82
0.44
-3.15
-6.95
-10.77
-14.41
-17.61
-20.18
-22.08
-23.52
-24.76
-26.00
-27.25
-28.20
-28.35
-27.15
-24.19
-19.36
-13.06
-6.01
0.87
6.76
11.16
13.82
14.88
14.62
13.42
11.72
9.96
8.62
8.15
8.83
10.53
12.90
15.27
17.06
17.90
17.81
17.10
16.18
15.43
15.08
15.17
15.55
16.00
16.26
16.17
15.64
14.74
13.57
12.41
11.47
10.90
10.67
10.68
10.65
10.33
9.49
8.11
6.36
4.53
2.77
1.11
-0.53
-2.41
-4.65
-7.24
-9.97
-12.55
-14.63
-15.93
-16.26
-15.51
-13.73
-11.10
-7.93
-4.68
-1.76
0.53
2.07
2.91
3.13
2.62
1.03
-2.06
-6.96
-13.50
-20.79
-27.33
-31.46
-31.96
-28.57
-22.10
-14.12
-6.38
-0.16
4.02
6.44
7.83
8.93
10.15
11.56
13.00
14.19
15.04
15.65
16.28
17.11
18.25
19.59
20.83
21.55
21.20
19.31
15.74
10.77
5.32
0.77
-1.40
-0.26
4.24
10.99
18.12
23.71
26.45
26.16
23.64
20.25
17.25
15.37
14.74
14.95
15.53
16.15
16.59
16.72
16.37
15.35
13.68
11.73
10.22
9.94
11.50
14.84
19.27
23.62
26.73
27.85
26.88
24.27
20.79
17.21
14.08
11.61
9.63
7.79
5.53
2.48
-1.45
-5.99
-10.40
-13.83
-15.47
-14.93
-12.25
-8.01
-3.09
1.54
5.07
7.03
7.29
5.96
3.34
-0.21
-4.39
-8.92
-13.66
-18.47
-23.21
-27.58
-31.11
-33.22
-33.46
-31.74
-28.40
-24.17
-19.95
-16.41
-13.88
-12.28
-11.32
-10.79
-10.65
-10.90
-11.38
-11.71
-11.21
-9.10
-4.94
1.19
8.45
15.54
20.92
23.33
21.91
16.55
7.92
-2.51
-12.62
-19.96
-22.46
-19.09
-10.44
1.21
12.42
19.66
20.45
14.36
3.15
-9.77
-20.40
-25.42
-23.07
-13.70
0.55
16.18
29.51
37.62
39.26
35.21
28.03
21.25
18.07
20.25
27.32
36.80
45.00
48.43
45.10
35.17
20.97
6.24
-5.21
-10.66
-9.23
-2.29
7.17
15.49
19.55
17.73
10.46
-0.02
-10.64
-18.46
-21.65
-19.96
-14.48
-7.17
-0.26
4.34
5.35
2.26
-4.62
-14.06
-24.14
-32.63
-37.60
-38.11
-34.58
-28.66
-22.66
-18.67
-17.86
-20.01
-23.83
-27.57
-29.74
-29.65
-27.64
-24.80
-22.39
-21.37
-22.00
-23.81
-26.03
-27.87
-28.78
-28.63
-27.47
-25.38
-22.44
-18.74
-14.41
-9.74
-5.07
-0.74
2.97
5.81
7.42
7.24
4.75
-0.11
-6.57
-12.84
-16.59
-15.74
-9.33
1.88
15.44
28.12
36.89
40.00
37.33
30.20
20.63
10.68
1.96
-4.70
-8.95
-10.96
-11.20
-10.37
-9.33
-8.96
-9.75
-11.70
-14.17
-16.09
-16.30
-14.12
-9.51
-3.34
2.97
7.90
10.26
9.70
6.69
2.35
-2.17
-5.91
-8.64
-10.78
-13.23
-17.00
-22.71
-30.24
-38.58
-46.17
-51.20
-52.31
-48.84
-41.00
-29.60
-15.91
-1.22
13.17
26.14
36.67
43.97
47.53
47.17
43.05
35.55
25.34
13.43
1.35
-8.95
-15.41
-16.40
-11.30
-0.85
12.92
27.33
39.77
48.37
52.34
52.01
48.44
43.03
37.14
31.86
27.82
25.11
23.35
21.83
19.73
16.47
11.74
5.75
-0.85
-7.10
-11.91
-14.34
-13.84
-10.54
-5.28
0.51
5.28
7.85
7.72
5.22
1.27
-3.00
-6.72
-9.44
-11.19
-12.23
-12.86
-13.30
-13.63
-13.88
-14.10
-14.40
-14.85
-15.52
-16.32
-17.05
-17.53
-17.53
-16.85
-15.32
-12.81
-9.12
-4.27
1.60
8.03
14.41
19.97
23.98
25.88
25.48
23.02
19.04
14.40
9.89
6.15
3.48
1.81
0.76
-0.11
-1.17
-2.63
-4.42
-6.36
-8.16
-9.45
-10.06
-9.95
-9.20
-8.11
-7.00
-6.10
-5.65
-5.72
-6.21
-6.96
-7.69
-8.20
-8.40
-8.25
-7.79
-7.22
-6.82
-6.84
-7.57
-9.02
-11.05
-13.32
-15.32
-16.63
-17.19
-17.24
-17.20
-17.52
-18.39
-19.76
-21.42
-22.86
-23.62
-23.33
-21.67
-18.59
-14.30
-9.24
-4.01
0.76
4.63
7.40
9.11
10.02
10.43
10.53
10.40
10.05
9.49
8.89
8.48
8.53
9.24
10.51
11.89
12.65
12.07
9.67
5.66
0.91
-3.19
-5.22
-4.22
-0.09
6.41
13.98
21.14
26.73
30.10
31.14
30.22
27.90
24.62
20.39
14.83
7.14
-3.20
-15.73
-28.80
-39.70
-45.66
-44.99
-37.82
-26.32
-14.10
-4.96
-1.83
-6.12
-17.38
-33.59
-51.43
-66.68
-74.99
-72.99
-59.39
-35.72
-6.46
22.36
44.83
56.81
57.16
47.44
31.01
11.91
-6.23
-20.75
-29.87
-32.69
-29.32
-20.65
-8.55
4.65
16.71
25.95
31.63
34.02
34.08
32.94
31.64
30.70
30.02
29.18
27.52
24.58
20.33
15.19
9.81
4.91
0.83
-2.52
-5.50
-8.63
-12.19
-16.10
-20.01
-23.43
-25.83
-26.91
-26.71
-25.42
-23.55
-21.66
-20.26
-19.74
-20.13
-21.18
-22.44
-23.51
-24.10
-24.34
-24.58
-25.27
-26.76
-29.07
-31.83
-34.36
-35.82
-35.34
-32.39
-26.91
-19.38
-10.88
-2.73
3.80
7.74
8.88
7.74
5.49
3.56
3.35
5.66
10.57
17.36
24.75
31.37
36.09
38.47
38.66
37.38
35.44
33.65
32.49
32.10
32.40
32.96
33.32
32.87
31.19
28.01
23.44
18.00
12.43
7.69
4.50
3.20
3.73
5.60
8.04
10.34
11.99
12.65
12.35
11.24
9.54
7.57
5.63
3.93
2.56
1.47
0.41
-0.88
-2.73
-5.28
-8.49
-12.15
-15.83
-19.09
-21.62
-23.37
-24.46
-25.20
-25.91
-26.73
-27.76
-28.88
-29.92
-30.70
-30.96
-30.35
-28.47
-24.88
-19.40
-12.21
-3.93
4.53
12.17
18.15
22.04
23.81
23.81
22.57
20.66
18.59
16.72
15.25
14.19
13.50
13.01
12.58
12.15
11.82
11.68
11.91
12.58
13.66
15.02
16.41
17.53
18.24
18.57
18.62
18.57
18.60
18.69
18.60
17.99
16.43
13.84
10.37
6.43
2.61
-0.53
-2.65
-3.71
-3.81
-3.18
-1.90
-0.11
2.09
4.57
7.10
9.31
10.85
11.31
10.40
7.96
4.03
-1.11
-6.90
-12.69
-17.78
-21.58
-23.88
-24.85
-24.99
-24.82
-24.76
-24.75
-24.46
-23.27
-20.53
-15.90
-9.38
-1.31
7.75
17.00
25.60
32.68
37.52
39.76
39.51
37.51
35.02
33.45
33.76
36.04
39.30
41.81
41.97
39.25
34.82
31.40
32.22
39.55
53.42
71.27
88.44
99.81
101.39
91.61
71.81
45.68
18.34
-5.17
-20.91
-27.23
-24.92
-16.91
-7.40
-0.49
1.02
-3.47
-12.38
-22.48
-30.32
-33.33
-30.60
-23.06
-12.92
-2.77
5.26
9.89
10.92
8.74
4.09
-2.14
-9.17
-16.23
-22.78
-28.51
-33.47
-37.95
-42.32
-46.80
-51.10
-54.65
-56.60
-56.17
-53.00
-47.26
-39.54
-30.79
-21.94
-13.69
-6.51
-0.60
4.18
7.93
10.74
12.54
13.12
12.21
9.82
6.16
1.82
-2.34
-5.59
-7.39
-7.70
-6.80
-5.18
-3.26
-1.31
0.68
2.85
5.33
8.19
11.28
14.31
16.90
18.63
19.12
18.26
16.10
12.89
9.10
5.26
1.88
-0.72
-2.44
-3.44
-3.96
-4.31
-4.73
-5.28
-5.92
-6.58
-7.23
-7.92
-8.72
-9.63
-10.66
-11.73
-12.77
-13.82
-15.07
-16.73
-18.96
-21.74
-24.87
-28.05
-30.85
-32.84
-33.66
-33.00
-30.61
-26.47
-20.76
-14.04
-7.06
-0.64
4.54
8.10
10.01
10.60
10.30
9.54
8.72
8.18
8.09
8.45
9.09
9.72
10.04
9.76
8.78
7.22
5.35
3.52
2.08
1.24
1.09
1.47
2.07
2.49
2.46
1.86
0.85
-0.26
-1.27
-2.09
-2.84
-3.69
-4.91
-6.48
-8.32
-10.20
-11.81
-13.08
-14.04
-14.84
-15.48
-15.99
-16.18
-15.99
-15.49
-14.79
-14.11
-13.55
-13.16
-12.83
-12.44
-11.91
-11.23
-10.44
-9.42
-8.09
-6.41
-4.52
-2.77
-1.40
-0.49
0.21
1.17
2.99
5.77
9.19
12.42
14.45
14.68
13.12
10.50
7.89
6.39
6.53
8.41
11.60
15.41
19.24
22.57
25.03
26.25
25.88
23.60
19.36
13.48
6.57
-0.47
-6.78
-11.72
-14.99
-16.66
-16.96
-16.17
-14.57
-12.53
-10.37
-8.61
-7.79
-8.40
-10.66
-14.44
-19.23
-24.41
-29.39
-33.78
-37.50
-40.52
-42.64
-43.51
-42.49
-39.04
-33.01
-24.84
-15.50
-6.29
1.56
7.29
10.68
12.01
11.80
10.63
9.01
7.26
5.63
4.23
3.15
2.43
2.00
1.74
1.56
1.43
1.31
1.36
1.68
2.43
3.56
5.00
6.56
7.98
9.09
9.79
10.12
10.19
10.16
10.11
10.10
10.10
10.01
9.71
9.07
8.01
6.51
4.68
2.70
0.84
-0.65
-1.66
-2.22
-2.57
-2.95
-3.59
-4.56
-5.72
-6.98
-8.21
-9.41
-10.70
-12.13
-13.76
-15.54
-17.40
-19.21
-20.82
-21.86
-21.84
-20.22
-16.66
-11.20
-4.39
2.81
9.31
14.33
17.41
18.60
18.35
17.20
15.72
14.39
13.55
13.41
14.03
15.30
16.95
18.63
19.98
20.68
20.64
20.01
19.02
18.06
17.39
17.12
17.12
17.13
16.84
16.03
14.53
12.25
9.30
5.86
2.24
-1.15
-4.01
-6.06
-7.21
-7.63
-7.65
-7.58
-7.65
-7.93
-8.27
-8.55
-8.49
-8.02
-7.16
-6.04
-4.88
-3.99
-3.69
-4.20
-5.70
-8.12
-11.33
-14.95
-18.56
-21.79
-24.43
-26.36
-27.60
-28.29
-28.36
-27.66
-25.84
-22.43
-17.16
-10.11
-1.74
7.08
15.21
21.56
25.37
26.35
24.85
21.63
17.75
14.28
12.11
11.64
12.82
15.11
17.66
19.57
20.17
19.27
17.18
14.66
12.61
11.71
12.11
13.48
15.07
16.00
15.73
14.22
11.92
9.49
7.65
6.63
6.35
6.48
6.63
6.57
6.25
5.69
4.81
3.61
2.08
0.45
-0.87
-1.49
-1.23
-0.16
1.25
2.38
2.69
1.86
-0.04
-2.70
-5.68
-8.55
-11.02
-12.98
-14.57
-16.00
-17.54
-19.30
-21.19
-23.02
-24.33
-24.74
-23.78
-21.12
-16.58
-10.26
-2.63
5.63
13.49
20.07
24.69
27.15
27.80
27.42
26.84
26.69
27.32
28.70
30.61
32.70
34.68
36.39
37.80
38.94
39.79
40.36
40.55
40.34
39.76
38.90
37.83
36.66
35.41
34.00
32.40
30.55
28.43
26.13
23.71
21.20
18.48
15.50
12.19
8.67
5.09
1.70
-1.26
-3.67
-5.55
-7.07
-8.48
-9.91
-11.40
-12.95
-14.40
-15.69
-16.83
-17.88
-18.97
-20.35
-22.26
-24.85
-28.29
-32.28
-36.29
-39.45
-40.87
-39.90
-36.67
-31.99
-27.06
-23.08
-20.58
-19.32
-18.34
-16.52
-13.04
-7.83
-1.54
4.71
9.84
13.21
14.67
14.57
13.36
11.29
8.36
4.51
-0.06
-4.61
-7.85
-8.53
-5.88
0.00
8.31
17.95
28.10
38.23
48.05
57.04
64.25
68.63
69.46
66.80
61.41
54.33
46.26
37.13
26.20
12.72
-3.37
-21.02
-38.17
-52.50
-62.35
-67.24
-68.30
-67.63
-67.42
-69.07
-72.85
-77.85
-82.68
-86.14
-87.69
-87.62
-86.74
-85.93
-85.62
-85.76
-85.67
-84.37
-80.89
-74.61
-65.51
-54.09
-41.38
-28.64
-17.03
-7.36
0.17
6.15
11.76
18.25
26.63
37.00
48.50
59.81
69.60
76.97
81.77
84.35
85.15
84.56
82.69
79.50
74.98
69.09
61.72
52.76
42.10
29.79
16.25
2.18
-11.53
-24.06
-34.79
-43.28
-49.10
-51.96
-51.71
-48.39
-42.53
-35.15
-27.55
-21.01
-16.42
-14.01
-13.52
-14.36
-15.90
-17.72
-19.63
-21.53
-23.46
-25.39
-27.21
-28.89
-30.44
-31.93
-33.48
-35.16
-36.94
-38.75
-40.52
-42.05
-43.08
-43.26
-42.20
-39.59
-35.22
-29.12
-21.62
-13.37
-5.20
2.02
7.50
10.90
12.20
11.86
10.54
8.87
7.31
6.15
5.59
5.85
7.23
9.88
13.75
18.45
23.34
27.72
30.98
32.72
32.70
30.94
27.80
23.97
20.49
18.53
18.96
21.99
27.01
32.69
37.57
40.46
40.94
39.31
36.48
33.56
31.44
30.55
30.78
31.68
32.41
32.21
30.51
27.32
23.22
19.40
17.06
17.15
19.93
24.76
30.31
35.00
37.36
36.41
31.99
24.53
15.12
5.10
-4.03
-11.09
-15.38
-16.99
-16.69
-15.61
-14.72
-14.41
-14.44
-13.89
-11.74
-7.38
-1.08
6.16
12.82
17.57
19.72
19.39
17.36
14.76
12.49
10.96
10.10
9.55
8.90
7.97
6.67
4.90
2.55
-0.48
-4.21
-8.33
-12.19
-15.08
-16.44
-16.14
-14.63
-12.83
-11.88
-12.65
-15.40
-19.55
-23.77
-26.32
-25.81
-21.57
-14.15
-5.19
3.27
9.32
11.90
10.94
7.19
1.61
-4.95
-11.98
-19.29
-26.64
-33.56
-39.45
-43.73
-46.01
-46.59
-46.25
-45.91
-46.36
-47.82
-49.73
-51.03
-50.44
-46.84
-39.79
-29.65
-17.39
-4.50
7.50
17.36
24.27
27.98
28.67
26.77
22.77
17.24
10.76
4.07
-1.97
-6.51
-8.76
-8.38
-5.43
-0.39
5.96
12.70
19.05
24.40
28.39
30.89
31.96
31.67
30.32
28.18
25.56
22.72
19.86
17.08
14.50
12.23
10.35
9.04
8.34
8.21
8.50
9.04
9.61
10.10
10.48
10.67
10.61
10.07
8.90
6.91
4.08
0.56
-3.28
-6.95
-10.04
-12.25
-13.69
-14.75
-15.93
-17.89
-20.95
-25.08
-29.67
-33.69
-35.82
-34.90
-30.25
-21.83
-10.44
2.50
15.25
26.13
33.87
37.85
38.14
35.36
30.53
24.76
19.05
14.12
10.47
8.25
7.38
7.59
8.42
9.52
10.53
11.38
12.15
12.99
14.05
15.30
16.59
17.62
18.18
18.00
16.95
15.04
12.27
8.83
4.98
1.13
-2.38
-5.27
-7.42
-8.86
-9.62
-9.77
-9.33
-8.31
-6.82
-5.15
-3.71
-2.99
-3.37
-4.97
-7.64
-10.98
-14.56
-18.04
-21.29
-24.41
-27.58
-30.98
-34.54
-37.99
-40.76
-42.16
-41.46
-38.09
-31.86
-23.01
-12.32
-0.97
9.69
18.41
24.25
26.87
26.47
23.75
19.69
15.33
11.53
8.79
7.28
6.83
7.15
7.86
8.66
9.35
9.80
10.02
10.09
10.14
10.32
10.77
11.53
12.45
13.28
13.68
13.37
12.28
10.56
8.54
6.58
4.91
3.51
2.25
0.91
-0.71
-2.56
-4.48
-6.33
-7.98
-9.38
-10.55
-11.50
-12.28
-12.99
-13.70
-14.57
-15.71
-17.19
-18.94
-20.83
-22.66
-24.32
-25.86
-27.46
-29.38
-31.84
-34.96
-38.58
-42.31
-45.41
-46.92
-45.93
-41.76
-34.23
-23.88
-11.76
0.77
12.28
21.62
28.14
31.61
32.21
30.59
27.51
23.95
20.88
18.99
18.60
19.67
21.74
24.19
26.39
27.79
28.14
27.53
26.25
24.68
23.20
22.00
21.10
20.35
19.46
18.11
16.12
13.33
9.82
5.81
1.47
-2.89
-6.98
-10.64
-13.78
-16.36
-18.48
-20.26
-21.69
-22.95
-24.06
-25.13
-26.31
-27.82
-29.88
-32.69
-36.21
-40.12
-43.72
-46.09
-46.10
-42.93
-36.19
-26.23
-14.06
-1.24
10.67
20.29
26.93
30.59
31.81
31.51
30.54
29.57
28.98
28.91
29.19
29.64
29.98
29.93
29.31
27.99
25.96
23.41
20.59
17.84
15.47
13.68
12.47
11.66
11.01
10.32
9.57
8.89
8.46
8.38
8.52
8.54
8.07
6.78
4.63
1.83
-1.32
-4.38
-7.06
-9.29
-11.19
-12.94
-14.86
-17.17
-20.01
-23.44
-27.22
-31.00
-34.44
-37.31
-39.68
-41.96
-44.61
-47.99
-52.11
-56.45
-60.07
-61.77
-60.41
-55.18
-45.98
-33.41
-18.81
-3.95
9.40
19.86
26.67
29.84
29.96
27.95
24.91
21.79
19.34
18.04
17.97
19.01
20.84
23.08
25.39
27.48
29.11
30.13
30.51
30.35
29.92
29.53
29.48
29.88
30.44
30.65
29.84
27.59
23.86
19.15
14.21
9.88
6.67
4.68
3.70
3.31
3.18
2.94
2.41
1.39
-0.13
-2.07
-4.20
-6.18
-7.75
-8.79
-9.50
-10.23
-11.47
-13.52
-16.47
-20.11
-23.87
-27.13
-29.37
-30.37
-30.29
-29.66
-29.20
-29.66
-31.46
-34.54
-38.23
-41.32
-42.32
-40.02
-33.72
-23.66
-10.96
2.65
15.23
25.14
31.47
34.07
33.61
31.28
28.37
26.00
24.83
24.96
26.07
27.62
29.02
29.88
30.09
29.76
29.13
28.51
28.02
27.66
27.30
26.72
25.78
24.39
22.53
20.29
17.92
15.53
13.28
11.28
9.61
8.35
7.48
6.91
6.50
6.15
5.71
5.05
4.20
3.18
2.04
0.75
-0.77
-2.55
-4.56
-6.81
-9.20
-11.63
-14.05
-16.33
-18.48
-20.50
-22.43
-24.38
-26.44
-28.60
-30.73
-32.67
-34.28
-35.47
-36.40
-37.26
-38.22
-39.06
-39.19
-37.69
-33.58
-26.26
-15.67
-2.68
11.27
24.34
34.82
41.55
44.07
42.77
38.77
33.61
28.83
25.64
24.64
25.73
28.19
30.90
32.68
32.77
31.04
27.95
24.46
21.53
19.85
19.53
20.10
20.76
20.65
19.16
16.13
11.80
6.78
1.74
-2.66
-5.97
-7.91
-8.52
-7.97
-6.63
-4.94
-3.28
-1.94
-1.02
-0.43
-0.02
0.41
0.97
1.67
2.42
3.01
3.19
2.77
1.61
-0.24
-2.64
-5.42
-8.36
-11.44
-14.72
-18.23
-21.88
-25.52
-28.83
-31.57
-33.74
-35.52
-37.28
-39.29
-41.53
-43.41
-44.03
-42.43
-37.92
-30.49
-20.79
-10.00
0.48
9.40
15.98
19.98
21.59
21.42
20.23
18.87
17.98
17.97
18.92
20.58
22.52
24.29
25.55
26.18
26.33
26.16
25.85
25.43
24.83
23.95
22.76
21.39
19.97
18.67
17.56
16.62
15.79
14.94
14.06
13.15
12.28
11.43
10.64
9.90
9.23
8.65
8.14
7.81
7.54
7.31
6.92
6.24
5.14
3.64
1.95
0.36
-0.76
-1.43
-1.82
-2.41
-3.67
-5.81
-8.70
-11.79
-14.44
-16.08
-16.64
-16.37
-15.91
-15.98
-17.25
-20.09
-24.43
-29.75
-34.95
-38.66
-39.45
-36.40
-29.35
-19.11
-7.23
4.40
14.10
20.94
24.84
26.49
26.95
27.22
28.11
30.02
33.00
36.83
41.14
45.47
49.39
52.59
54.86
56.27
57.08
57.66
58.21
58.80
59.15
58.79
57.18
53.89
48.73
41.90
33.99
25.68
17.80
10.89
5.36
1.22
-1.65
-3.54
-4.84
-5.94
-7.22
-8.96
-11.45
-14.74
-18.86
-23.67
-28.89
-34.21
-39.23
-43.59
-46.92
-49.10
-50.23
-50.70
-51.03
-51.62
-52.79
-54.50
-56.53
-58.51
-60.13
-61.19
-61.61
-61.55
-61.06
-60.39
-59.43
-57.91
-55.32
-51.03
-44.61
-36.05
-25.93
-15.17
-5.01
3.56
9.85
13.57
14.86
14.14
12.07
9.33
6.65
4.44
3.01
2.28
2.04
2.13
2.34
2.61
3.02
3.69
4.68
6.07
7.87
9.90
11.97
13.67
14.60
14.48
13.24
11.04
8.18
5.00
1.77
-1.29
-4.08
-6.48
-8.48
-10.15
-11.65
-13.09
-14.54
-15.95
-17.07
-17.69
-17.63
-16.96
-15.97
-15.04
-14.51
-14.76
-16.01
-18.28
-21.48
-25.24
-29.04
-32.13
-33.70
-32.93
-29.37
-22.94
-14.14
-3.97
6.28
15.19
21.70
25.17
25.67
23.75
20.35
16.45
12.86
10.17
8.61
8.29
9.01
10.56
12.60
14.77
16.80
18.50
19.87
20.86
21.48
21.58
20.99
19.66
17.64
15.23
12.80
10.67
8.84
7.10
5.00
2.13
-1.48
-5.53
-9.28
-11.96
-13.06
-12.46
-10.50
-7.85
-5.34
-3.48
-2.61
-2.66
-3.52
-5.00
-6.97
-9.30
-11.80
-14.27
-16.40
-18.15
-19.58
-20.85
-22.18
-23.62
-25.12
-26.63
-28.10
-29.54
-31.10
-32.77
-34.30
-35.19
-34.77
-32.43
-27.77
-20.80
-11.99
-2.27
7.22
15.42
21.50
25.06
26.22
25.54
23.83
22.04
20.90
20.96
22.36
24.78
27.61
30.10
31.55
31.63
30.40
28.29
25.97
24.19
23.39
23.60
24.55
25.63
26.12
25.50
23.51
20.26
16.29
12.29
8.86
6.42
5.01
4.28
3.70
2.72
1.00
-1.39
-4.15
-6.79
-8.83
-9.97
-10.16
-9.56
-8.52
-7.54
-7.14
-7.83
-9.90
-13.23
-17.36
-21.43
-24.48
-25.91
-25.66
-24.23
-22.53
-21.51
-21.72
-23.33
-25.91
-28.60
-30.39
-30.33
-27.73
-22.33
-14.50
-5.10
4.59
13.18
19.55
23.09
23.75
22.10
19.04
15.47
12.22
9.92
8.91
9.36
11.22
14.17
17.75
21.37
24.36
26.29
27.01
26.77
26.06
25.33
24.86
24.62
24.37
23.74
22.57
20.89
19.00
17.23
15.90
15.08
14.71
14.74
15.14
16.01
17.49
19.59
22.17
24.96
27.61
29.82
31.51
32.71
33.61
34.28
34.78
35.00
34.82
34.00
32.19
29.12
24.59
18.61
11.32
3.04
-5.90
-15.21
-24.66
-33.94
-42.54
-49.73
-54.63
-56.41
-54.68
-49.68
-42.21
-33.55
-25.06
-17.92
-12.95
-10.55
-10.67
-13.00
-16.89
-21.58
-26.24
-30.26
-33.16
-34.67
-34.67
-33.14
-30.20
-26.07
-21.18
-16.01
-11.13
-6.97
-3.80
-1.61
-0.20
0.72
1.38
1.89
2.21
2.26
2.04
1.56
0.99
0.47
-0.00
-0.59
-1.57
-3.26
-5.79
-9.03
-12.67
-16.24
-19.30
-21.54
-22.75
-23.01
-22.56
-21.83
-21.34
-21.56
-22.71
-24.58
-26.40
-27.06
-25.52
-21.16
-14.05
-5.04
4.56
13.45
20.53
25.29
27.73
28.18
27.00
24.65
21.48
17.86
14.32
11.38
9.47
8.89
9.62
11.35
13.63
15.86
17.53
18.37
18.35
17.71
16.89
16.29
16.09
16.17
16.17
15.61
14.26
12.06
9.27
6.37
3.78
1.85
0.73
0.29
0.17
-0.12
-1.17
-3.39
-6.80
-11.04
-15.28
-18.56
-20.20
-19.85
-17.75
-14.53
-11.12
-8.32
-6.82
-7.03
-8.99
-12.48
-16.97
-21.58
-25.23
-26.86
-25.53
-20.86
-13.14
-3.23
7.53
17.62
25.86
31.49
34.29
34.50
32.69
29.58
26.02
22.80
20.64
20.06
21.23
24.01
27.93
32.45
36.98
41.16
44.60
47.17
48.79
49.48
49.25
48.16
46.20
43.30
39.49
34.75
29.17
22.93
16.34
9.73
3.54
-1.82
-6.05
-8.99
-10.68
-11.40
-11.57
-11.65
-12.03
-12.93
-14.42
-16.36
-18.51
-20.63
-22.55
-24.14
-25.19
-25.47
-24.75
-22.96
-20.30
-17.26
-14.54
-12.95
-13.09
-15.25
-19.33
-24.85
-30.98
-36.71
-40.96
-42.78
-41.76
-38.04
-32.27
-25.52
-18.89
-13.37
-9.58
-7.68
-7.37
-8.11
-9.26
-10.35
-11.10
-11.46
-11.46
-11.09
-10.14
-8.38
-5.68
-2.14
1.82
5.62
8.71
10.79
11.78
11.88
11.36
10.37
9.04
7.55
6.00
4.66
3.64
2.98
2.50
2.02
1.42
0.75
0.12
-0.35
-0.78
-1.52
-2.96
-5.45
-8.93
-12.90
-16.63
-19.49
-21.20
-21.96
-22.39
-23.13
-24.66
-26.90
-29.32
-31.11
-31.55
-30.20
-26.91
-21.93
-15.76
-8.98
-2.28
3.69
8.29
11.10
11.94
10.97
8.57
5.32
1.87
-1.15
-3.16
-3.88
-3.21
-1.43
0.93
3.14
4.62
5.00
4.30
2.93
1.39
0.18
-0.42
-0.39
0.06
0.58
0.81
0.44
-0.59
-2.19
-4.11
-6.04
-7.60
-8.53
-8.75
-8.35
-7.70
-7.16
-7.05
-7.47
-8.32
-9.31
-10.11
-10.60
-10.84
-11.07
-11.56
-12.49
-13.85
-15.48
-17.13
-18.61
-19.78
-20.67
-21.47
-22.51
-24.09
-26.40
-29.42
-32.71
-35.46
-36.66
-35.24
-30.61
-22.78
-12.61
-1.58
8.67
16.84
22.38
25.46
26.79
27.18
27.23
27.28
27.32
27.26
27.09
26.82
26.41
25.87
25.02
23.75
22.17
20.47
19.04
18.25
18.28
19.07
20.39
21.71
22.55
22.66
21.85
20.26
18.09
15.63
13.15
10.88
8.85
7.04
5.37
3.65
1.79
-0.20
-2.22
-3.96
-5.02
-5.12
-4.10
-2.14
0.14
2.00
2.66
1.47
-1.73
-6.62
-12.39
-17.98
-22.30
-24.70
-25.02
-23.77
-22.02
-20.78
-20.87
-22.42
-24.89
-27.23
-28.34
-27.35
-23.96
-18.39
-11.22
-3.39
4.09
10.32
14.64
16.80
17.07
16.00
14.39
12.98
12.28
12.48
13.55
15.33
17.58
20.03
22.37
24.38
25.81
26.61
26.84
26.66
26.15
25.33
24.18
22.57
20.51
18.01
15.24
12.43
9.85
7.62
5.84
4.44
3.28
2.22
1.13
-0.10
-1.49
-2.97
-4.43
-5.75
-6.79
-7.54
-7.96
-8.05
-7.85
-7.39
-6.86
-6.39
-6.13
-6.23
-6.85
-7.98
-9.53
-11.36
-13.28
-15.27
-17.35
-19.70
-22.41
-25.53
-28.72
-31.33
-32.54
-31.58
-28.00
-21.87
-13.78
-4.67
4.29
12.09
17.94
21.47
22.84
22.54
21.43
20.40
20.30
21.55
24.13
27.56
31.11
34.10
36.05
36.84
36.62
35.77
34.63
33.48
32.46
31.62
30.88
30.20
29.45
28.49
27.32
25.89
24.36
23.02
22.12
21.82
22.16
22.94
23.81
24.40
24.45
23.94
23.15
22.34
21.92
22.07
22.73
23.54
24.06
23.88
22.68
20.62
17.97
15.19
12.58
10.06
7.09
3.01
-2.98
-11.28
-21.56
-32.84
-43.51
-51.77
-56.21
-56.11
-51.61
-43.77
-34.23
-24.70
-16.78
-11.43
-9.01
-9.36
-11.89
-15.79
-20.24
-24.55
-28.12
-30.72
-32.26
-32.85
-32.74
-32.18
-31.20
-29.66
-27.28
-23.77
-19.19
-13.88
-8.46
-3.70
-0.17
1.89
2.57
2.20
1.24
-0.10
-1.68
-3.42
-5.39
-7.58
-9.98
-12.61
-15.37
-18.12
-20.80
-23.28
-25.51
-27.57
-29.56
-31.62
-33.78
-35.87
-37.45
-37.96
-36.66
-32.87
-26.23
-16.72
-4.99
7.85
20.36
31.07
38.81
43.03
43.85
41.98
38.45
34.22
30.00
26.18
22.88
20.15
18.14
16.95
16.69
17.29
18.48
19.91
21.18
21.93
21.94
21.14
19.55
17.48
15.39
13.63
12.52
12.01
11.73
11.19
10.03
8.06
5.52
2.86
0.44
-1.60
-3.30
-4.91
-6.71
-8.76
-11.15
-13.71
-16.33
-18.86
-21.13
-22.96
-24.21
-24.87
-25.10
-25.32
-25.88
-27.13
-29.03
-31.09
-32.46
-32.10
-29.13
-23.20
-14.72
-4.65
5.51
14.25
20.45
23.58
23.75
21.66
18.25
14.41
10.89
8.21
6.64
6.42
7.55
9.94
13.30
17.07
20.59
23.25
24.69
24.93
24.35
23.46
22.77
22.55
22.87
23.51
24.17
24.57
24.61
24.36
23.89
23.33
22.76
22.21
21.75
21.44
21.38
21.76
22.75
24.33
26.41
28.68
30.72
32.20
32.88
32.64
31.60
29.94
27.69
24.87
21.37
17.01
11.74
5.60
-1.28
-8.68
-16.36
-24.02
-31.08
-36.73
-39.95
-39.87
-36.15
-29.23
-20.38
-11.32
-3.79
0.95
2.31
0.45
-3.98
-10.19
-17.32
-24.56
-31.25
-36.82
-40.88
-43.35
-44.27
-43.73
-42.03
-39.41
-36.02
-31.95
-27.30
-22.23
-16.99
-11.92
-7.41
-3.91
-1.73
-1.07
-1.85
-3.77
-6.37
-9.10
-11.50
-13.33
-14.68
-15.83
-17.17
-18.96
-21.11
-23.29
-25.08
-26.17
-26.61
-26.76
-27.02
-27.70
-28.69
-29.35
-28.72
-25.91
-20.37
-12.12
-1.91
8.99
19.03
26.78
31.35
32.53
30.76
26.99
22.44
18.25
15.28
13.87
14.00
15.25
17.03
18.64
19.65
19.73
18.81
17.23
15.30
13.56
12.32
11.76
11.71
11.85
11.74
10.94
9.27
6.80
3.79
0.56
-2.50
-5.11
-7.13
-8.52
-9.45
-10.11
-10.76
-11.65
-12.97
-14.78
-16.96
-19.40
-21.83
-24.17
-26.36
-28.62
-31.10
-33.81
-36.47
-38.30
-38.35
-35.68
-29.75
-20.64
-9.23
3.04
14.56
23.85
30.01
32.81
32.69
30.48
27.20
23.74
20.84
18.92
18.20
18.77
20.48
23.12
26.18
29.08
31.24
32.33
32.29
31.27
29.53
27.31
24.82
22.16
19.39
16.56
13.85
11.37
9.23
7.56
6.44
5.92
5.94
6.23
6.48
6.43
5.93
4.98
3.77
2.53
1.40
0.49
-0.25
-0.95
-1.65
-2.47
-3.54
-4.92
-6.72
-8.97
-11.56
-14.26
-16.85
-19.20
-21.28
-23.31
-25.46
-27.81
-30.17
-31.96
-32.37
-30.65
-26.42
-19.82
-11.63
-3.05
4.69
10.58
14.19
15.63
15.32
14.04
12.47
11.18
10.58
10.85
11.94
13.80
16.24
19.03
21.97
24.85
27.44
29.66
31.47
32.88
33.98
34.86
35.53
35.94
35.98
35.54
34.63
33.43
32.21
31.19
30.45
29.80
29.02
27.90
26.42
24.85
23.48
22.60
22.28
22.43
22.89
23.62
24.55
25.57
26.40
26.63
25.78
23.44
19.53
14.18
7.83
0.93
-6.09
-12.95
-19.40
-25.32
-30.65
-35.31
-39.26
-42.38
-44.49
-45.28
-44.47
-41.91
-37.65
-32.06
-25.77
-19.57
-14.26
-10.44
-8.45
-8.33
-9.87
-12.60
-16.02
-19.54
-22.72
-25.22
-26.79
-27.39
-27.15
-26.34
-25.11
-23.61
-21.74
-19.48
-16.79
-13.79
-10.82
-8.28
-6.59
-5.89
-6.15
-7.11
-8.49
-10.08
-11.66
-13.18
-14.57
-15.77
-16.72
-17.45
-18.00
-18.60
-19.35
-20.20
-20.95
-21.32
-21.04
-20.06
-18.63
-17.14
-16.04
-15.82
-16.71
-18.74
-21.65
-24.93
-27.88
-29.72
-29.72
-27.28
-22.35
-15.28
-6.94
1.62
9.26
15.07
18.64
20.07
19.87
18.68
17.16
15.69
14.48
13.51
12.71
12.11
11.80
11.92
12.49
13.44
14.38
14.95
14.79
13.80
12.23
10.49
9.06
8.18
7.85
7.70
7.21
6.03
4.08
1.67
-0.72
-2.51
-3.45
-3.52
-3.00
-2.40
-2.14
-2.46
-3.37
-4.71
-6.07
-7.12
-7.70
-7.82
-7.76
-8.03
-9.14
-11.47
-15.14
-19.74
-24.47
-28.27
-30.11
-29.46
-26.47
-22.08
-17.62
-14.27
-12.51
-11.90
-11.22
-9.07
-4.52
2.42
10.77
18.95
25.45
29.32
30.43
29.41
27.36
25.37
24.27
24.47
25.99
28.49
31.67
35.26
39.14
43.33
47.75
52.17
56.19
59.37
61.31
61.92
61.35
59.88
57.81
55.25
52.20
48.53
44.22
39.27
33.74
27.50
20.38
12.26
3.31
-5.69
-13.64
-19.37
-22.20
-22.25
-20.50
-18.47
-17.51
-18.52
-21.64
-26.31
-31.75
-37.22
-42.10
-46.10
-49.12
-51.13
-52.31
-52.88
-53.14
-53.45
-54.03
-54.99
-56.17
-57.34
-58.11
-58.08
-56.76
-53.76
-48.80
-41.84
-33.24
-23.66
-14.04
-5.30
1.85
7.06
10.36
11.94
12.20
11.45
9.98
8.08
6.13
4.55
3.74
3.96
5.19
7.20
9.49
11.57
13.14
14.22
14.98
15.74
16.66
17.64
18.39
18.41
17.28
14.90
11.50
7.61
3.81
0.61
-1.71
-3.15
-3.86
-4.12
-4.18
-4.28
-4.59
-5.29
-6.50
-8.16
-10.02
-11.65
-12.66
-12.84
-12.40
-11.81
-11.73
-12.73
-15.06
-18.61
-22.98
-27.52
-31.74
-35.17
-37.48
-38.33
-37.41
-34.44
-29.28
-22.00
-13.03
-3.32
6.01
13.84
19.34
22.26
22.75
21.32
18.63
15.28
11.69
8.24
5.25
3.02
1.78
1.69
2.67
4.49
6.81
9.19
11.32
12.95
13.95
14.38
14.31
13.79
12.86
11.49
9.72
7.64
5.40
3.25
1.49
0.26
-0.43
-0.75
-0.94
-1.13
-1.38
-1.59
-1.54
-1.10
-0.22
0.96
2.25
3.45
4.34
4.80
4.66
3.86
2.35
0.14
-2.60
-5.61
-8.61
-11.37
-13.71
-15.66
-17.32
-18.89
-20.59
-22.40
-24.10
-25.29
-25.35
-23.75
-20.14
-14.69
-7.97
-0.88
5.64
10.85
14.41
16.42
17.19
17.26
17.04
16.93
17.14
17.78
18.73
19.84
20.87
21.64
21.97
21.93
21.58
21.12
20.70
20.30
19.89
19.35
18.47
17.10
15.31
13.11
10.73
8.41
6.38
4.85
3.95
3.65
3.80
4.19
4.53
4.62
4.33
3.65
2.69
1.64
0.68
-0.09
-0.66
-1.18
-1.81
-2.71
-4.08
-5.94
-8.30
-11.11
-14.21
-17.39
-20.48
-23.29
-25.83
-28.31
-30.81
-33.27
-35.31
-36.24
-35.23
-31.69
-25.39
-16.81
-6.99
2.84
11.47
18.01
22.11
23.82
23.47
21.61
18.93
16.02
13.45
11.52
10.31
9.78
9.69
9.87
10.17
10.67
11.40
12.48
13.88
15.51
17.23
18.67
19.45
19.27
18.02
15.83
13.15
10.56
8.62
7.65
7.60
8.07
8.58
8.60
7.90
6.57
5.00
3.63
2.92
3.03
3.98
5.53
7.24
8.68
9.46
9.37
8.47
7.11
5.70
4.71
4.39
4.71
5.45
6.32
7.09
7.85
9.02
11.16
14.85
20.35
27.45
35.47
43.46
50.25
54.99
57.33
57.34
55.43
52.12
47.81
42.82
37.44
31.97
26.89
22.68
19.71
18.05
17.48
17.46
17.40
16.70
14.89
11.71
7.18
1.76
-3.70
-8.17
-10.80
-11.24
-9.93
-7.92
-6.45
-6.48
-8.35
-11.62
-15.50
-19.21
-22.34
-24.88
-27.11
-29.37
-31.82
-34.39
-36.84
-38.92
-40.49
-41.61
-42.34
-42.69
-42.64
-42.07
-41.02
-39.68
-38.56
-38.18
-38.88
-40.58
-42.69
-44.22
-44.04
-41.37
-35.92
-28.20
-19.31
-10.70
-3.83
0.24
1.20
-0.32
-2.91
-4.87
-4.76
-2.04
2.81
8.55
13.76
17.40
19.25
19.70
19.45
19.11
18.93
18.94
18.98
19.04
19.04
19.00
18.82
18.35
17.36
15.70
13.36
10.46
7.33
4.40
2.25
1.33
1.89
3.81
6.49
9.07
10.75
11.02
9.81
7.36
3.93
-0.41
-5.71
-12.17
-19.69
-27.64
-34.92
-40.24
-42.71
-42.25
-39.63
-35.95
-32.33
-29.23
-26.48
-23.47
-19.67
-15.06
-10.16
-5.79
-2.43
-0.30
0.97
1.89
2.85
3.92
4.92
5.55
5.63
5.25
4.69
4.35
4.54
5.35
6.60
7.95
8.91
9.05
8.14
6.19
3.47
0.26
-3.28
-7.08
-11.10
-15.32
-19.54
-23.46
-26.70
-28.93
-29.97
-29.86
-28.68
-26.67
-24.18
-21.62
-19.42
-17.87
-17.26
-17.60
-18.86
-20.80
-23.08
-25.08
-26.16
-25.65
-23.12
-18.70
-12.92
-6.75
-1.14
3.14
5.83
7.03
7.14
6.68
6.17
6.07
6.52
7.57
9.04
10.61
12.03
13.08
13.69
13.86
13.67
13.13
12.27
11.18
9.93
8.61
7.24
5.87
4.24
2.25
-0.26
-3.28
-6.64
-10.09
-13.27
-15.93
-17.90
-19.15
-19.80
-19.98
-19.90
-19.90
-20.30
-21.31
-23.06
-25.23
-27.22
-28.27
-27.57
-24.57
-19.01
-11.02
-0.98
10.31
21.87
32.50
40.95
46.33
48.15
46.79
43.17
38.65
34.52
31.84
31.16
32.53
35.65
39.71
43.64
46.27
46.53
43.76
38.22
30.79
23.02
16.71
13.19
13.12
16.35
21.98
28.61
34.91
39.73
42.37
42.64
40.62
36.65
31.15
24.56
17.37
10.18
3.51
-2.24
-6.83
-10.38
-13.19
-15.68
-18.21
-21.00
-24.03
-27.21
-30.33
-33.18
-35.72
-37.81
-39.40
-40.53
-41.26
-41.66
-41.80
-41.43
-40.09
-37.26
-32.44
-25.49
-16.82
-7.38
1.67
9.18
14.49
17.39
18.11
17.12
14.98
12.13
8.99
5.97
3.47
1.79
1.06
1.20
1.86
2.59
3.03
3.14
3.02
3.05
3.45
4.23
5.10
5.63
5.29
3.75
1.02
-2.65
-6.73
-10.77
-14.50
-17.86
-20.94
-23.93
-26.92
-29.78
-32.25
-34.04
-35.05
-35.41
-35.55
-35.94
-36.97
-38.62
-40.44
-41.59
-41.11
-38.28
-32.72
-24.58
-14.48
-3.34
7.70
17.52
25.11
29.80
31.51
30.64
28.04
24.65
21.35
18.72
16.93
15.92
15.44
15.34
15.51
15.85
16.28
16.75
17.28
17.98
19.09
20.78
23.03
25.56
27.72
28.80
28.26
25.89
22.03
17.29
12.35
7.79
3.83
0.43
-2.73
-6.06
-10.02
-14.83
-20.55
-26.87
-33.18
-38.75
-42.87
-45.08
-45.35
-44.20
-42.36
-40.62
-39.47
-38.88
-38.23
-36.52
-32.67
-25.93
-16.34
-4.67
7.75
19.32
28.68
34.93
37.80
37.59
35.17
31.62
28.10
25.67
24.99
26.34
29.49
33.96
38.94
43.63
47.38
49.67
50.36
49.62
48.02
46.14
44.57
43.54
42.92
42.27
41.11
39.05
35.99
32.16
27.98
23.86
20.11
16.96
14.41
12.36
10.54
8.66
6.50
4.06
1.54
-0.74
-2.50
-3.68
-4.67
-6.15
-8.91
-13.49
-19.90
-27.37
-34.63
-40.34
-43.45
-43.68
-41.54
-38.07
-34.47
-31.74
-30.46
-30.78
-32.66
-35.68
-39.20
-42.29
-43.78
-42.54
-37.81
-29.58
-18.71
-6.84
4.24
12.98
18.52
20.88
20.73
19.17
17.24
15.74
15.08
15.47
16.81
18.90
21.53
24.42
27.32
29.95
32.16
33.82
34.93
35.44
35.33
34.68
33.49
31.80
29.67
27.19
24.39
21.27
17.87
14.24
10.58
7.09
3.93
1.29
-0.73
-2.17
-3.22
-3.93
-4.41
-4.72
-4.91
-5.09
-5.35
-5.89
-6.98
-8.86
-11.59
-15.10
-19.21
-23.63
-28.09
-32.33
-36.23
-39.72
-42.76
-45.39
-47.82
-50.27
-52.90
-55.67
-58.19
-59.67
-59.05
-55.18
-47.37
-35.73
-21.19
-5.30
10.06
23.20
33.07
39.29
42.12
42.27
40.58
37.84
34.73
31.81
29.41
27.78
26.93
26.70
26.89
27.29
27.72
28.07
28.37
28.64
28.94
29.18
29.17
28.62
27.26
24.90
21.53
17.45
13.08
8.83
4.89
1.27
-2.20
-5.71
-9.30
-12.79
-15.93
-18.49
-20.40
-21.78
-22.93
-24.15
-25.65
-27.54
-29.67
-31.91
-34.06
-35.97
-37.58
-38.92
-40.12
-41.42
-43.26
-46.02
-49.84
-54.40
-58.71
-61.31
-60.56
-55.16
-44.61
-29.55
-11.63
6.86
23.65
37.07
46.11
50.71
51.47
49.37
45.46
40.82
36.29
32.58
30.17
29.24
29.70
31.13
33.04
35.01
36.81
38.29
39.48
40.35
40.82
40.71
39.82
38.00
35.33
31.91
27.92
23.53
18.94
14.28
9.68
5.34
1.46
-1.68
-3.88
-5.04
-5.37
-5.26
-5.47
-6.78
-9.81
-14.69
-20.87
-27.19
-32.19
-34.64
-34.04
-30.89
-26.42
-22.30
-20.02
-20.60
-24.33
-30.92
-39.68
-49.58
-59.35
-67.41
-72.22
-72.51
-67.71
-58.16
-45.18
-30.70
-16.81
-5.01
3.98
10.29
14.68
18.12
21.37
24.66
27.79
30.30
31.78
32.06
31.40
30.25
29.10
28.22
27.62
27.18
26.84
26.59
26.49
26.58
26.73
26.63
25.88
24.25
21.71
18.58
15.36
12.49
10.18
8.42
6.85
5.02
2.62
-0.47
-4.07
-7.82
-11.27
-14.13
-16.25
-17.79
-19.02
-20.33
-21.97
-24.14
-26.67
-29.42
-32.11
-34.59
-36.89
-39.11
-41.57
-44.52
-48.05
-51.83
-55.19
-57.01
-56.09
-51.43
-42.55
-29.76
-14.05
3.01
19.58
33.95
44.90
51.71
54.44
53.71
50.51
45.93
41.01
36.45
32.74
30.13
28.56
27.81
27.50
27.29
26.91
26.35
25.74
25.34
25.41
25.92
26.58
26.85
26.18
24.23
20.99
16.90
12.73
9.23
6.82
5.65
5.33
5.25
4.85
3.64
1.58
-1.15
-4.21
-7.30
-10.15
-12.70
-14.97
-17.06
-19.17
-21.38
-23.86
-26.59
-29.52
-32.40
-34.99
-37.12
-38.84
-40.48
-42.44
-45.16
-48.73
-52.66
-55.95
-57.28
-55.36
-49.22
-38.70
-24.58
-8.45
7.67
21.77
32.34
38.67
40.93
39.95
36.87
32.75
28.41
24.49
21.29
18.99
17.66
17.20
17.40
18.02
18.92
20.04
21.51
23.43
25.79
28.37
30.74
32.35
32.61
31.22
28.09
23.46
17.88
12.10
6.89
2.86
0.27
-1.12
-1.75
-2.28
-3.26
-4.88
-7.03
-9.25
-11.05
-12.04
-12.24
-11.84
-11.42
-11.58
-12.79
-15.26
-18.88
-23.21
-27.68
-31.75
-35.01
-37.49
-39.46
-41.39
-43.82
-46.99
-50.77
-54.58
-57.41
-58.03
-55.36
-48.69
-37.89
-23.73
-7.62
8.55
22.81
33.68
40.38
42.80
41.54
37.65
32.26
26.53
21.38
17.37
14.78
13.59
13.53
14.24
15.29
16.40
17.45
18.42
19.37
20.33
21.25
22.06
22.69
23.05
23.19
23.19
23.05
22.60
21.61
19.92
17.54
14.80
12.09
9.69
7.76
6.10
4.44
2.59
0.57
-1.44
-3.12
-4.32
-5.08
-5.58
-6.13
-6.88
-8.02
-9.55
-11.61
-14.28
-17.77
-22.13
-27.18
-32.54
-37.50
-41.49
-44.14
-45.56
-46.10
-46.28
-46.42
-46.33
-45.48
-43.01
-38.27
-30.93
-21.21
-9.78
2.36
13.96
23.91
31.26
35.47
36.41
34.51
30.56
25.61
20.73
16.71
14.09
13.01
13.43
14.99
17.27
19.85
22.37
24.65
26.54
28.02
29.09
29.77
30.03
29.68
28.63
26.78
24.20
21.09
17.75
14.44
11.34
8.56
6.02
3.66
1.39
-0.78
-2.80
-4.56
-6.00
-6.98
-7.45
-7.38
-6.92
-6.21
-5.54
-5.17
-5.37
-6.39
-8.29
-11.12
-14.62
-18.51
-22.43
-26.09
-29.29
-32.10
-34.76
-37.48
-40.50
-43.63
-46.47
-48.20
-47.92
-44.68
-38.00
-27.98
-15.35
-1.49
12.04
23.69
32.28
37.12
38.31
36.49
32.54
27.62
22.64
18.39
15.36
13.80
13.71
14.84
16.88
19.35
21.87
24.07
25.80
26.86
27.22
26.82
25.61
23.76
21.37
18.74
16.05
13.49
11.16
9.14
7.51
6.23
5.36
4.76
4.35
3.93
3.36
2.51
1.32
-0.21
-2.20
-4.63
-7.55
-10.73
-13.80
-16.31
-17.93
-18.53
-18.26
-17.64
-17.20
-17.48
-18.69
-20.62
-22.87
-24.92
-26.31
-26.91
-26.97
-26.83
-26.72
-26.54
-25.60
-22.92
-17.65
-9.42
1.22
12.88
23.85
32.46
37.69
39.32
37.85
34.12
29.01
23.21
17.19
11.41
6.32
2.31
-0.24
-1.15
-0.58
1.14
3.62
6.46
9.50
12.60
15.73
18.92
22.11
25.16
27.83
29.77
30.54
29.94
27.95
24.93
21.53
18.30
15.66
13.59
11.70
9.30
5.99
1.63
-3.34
-8.08
-11.76
-13.69
-13.61
-11.79
-8.91
-5.68
-2.81
-0.71
0.56
1.13
1.30
1.38
1.50
1.61
1.55
1.15
0.35
-0.56
-1.13
-0.59
1.83
6.66
14.05
23.54
34.08
44.20
52.44
57.57
59.06
57.04
52.28
45.92
39.07
32.56
26.68
21.37
16.31
11.16
5.84
0.59
-3.92
-6.90
-7.57
-5.64
-1.38
4.34
10.20
14.96
17.51
17.31
14.32
9.06
2.26
-5.14
-12.36
-18.77
-23.90
-27.64
-30.15
-31.68
-32.53
-32.94
-32.93
-32.51
-31.72
-30.56
-29.15
-27.67
-26.21
-24.92
-23.85
-23.11
-22.74
-22.84
-23.49
-24.76
-26.75
-29.46
-32.80
-36.38
-39.49
-41.15
-40.48
-36.89
-30.38
-21.58
-11.51
-1.55
7.05
13.39
16.98
17.89
16.63
14.00
10.80
7.84
5.51
4.03
3.37
3.38
3.87
4.67
5.74
6.90
8.05
9.10
10.00
10.70
11.21
11.46
11.34
10.85
9.88
8.42
6.48
4.12
1.49
-1.31
-4.07
-6.68
-8.93
-10.74
-12.07
-13.00
-13.73
-14.41
-15.30
-16.50
-18.11
-20.12
-22.36
-24.59
-26.61
-28.28
-29.51
-30.39
-31.04
-31.76
-32.66
-33.79
-34.79
-35.02
-33.79
-30.39
-24.59
-16.65
-7.41
1.98
10.33
16.75
20.88
22.65
22.46
20.79
18.20
15.24
12.33
9.79
7.72
6.26
5.37
5.09
5.41
6.28
7.55
9.00
10.37
11.34
11.86
11.82
11.20
9.97
8.07
5.49
2.36
-1.04
-4.50
-7.86
-11.19
-14.67
-18.41
-22.31
-25.86
-28.44
-29.45
-28.71
-26.61
-23.97
-21.80
-20.92
-21.92
-24.81
-29.26
-34.61
-39.91
-44.10
-46.15
-45.23
-40.93
-33.49
-23.78
-13.14
-2.99
5.44
11.45
15.04
16.62
16.95
16.77
16.66
16.91
17.59
18.61
19.81
20.98
21.91
22.47
22.54
22.23
21.60
20.89
20.33
20.15
20.37
20.95
21.68
22.11
21.89
20.64
18.36
15.23
11.77
8.38
5.39
2.83
0.54
-1.72
-4.03
-6.24
-8.13
-9.40
-10.01
-10.13
-10.11
-10.35
-11.15
-12.71
-15.09
-18.25
-21.89
-25.57
-28.66
-30.60
-31.14
-30.45
-29.20
-28.37
-28.51
-29.65
-31.13
-31.76
-30.30
-26.08
-19.09
-10.06
-0.31
8.88
16.49
21.94
25.24
26.87
27.40
27.55
27.98
29.24
31.65
35.27
39.72
44.41
48.53
51.24
52.10
51.14
48.79
45.77
42.74
40.04
37.87
35.90
33.79
31.31
28.39
25.04
21.48
17.93
14.47
11.36
8.72
6.70
5.39
4.85
4.92
5.35
5.87
6.03
5.64
4.61
2.92
0.71
-1.90
-4.69
-7.43
-9.93
-12.12
-13.99
-15.69
-17.39
-19.23
-21.27
-23.27
-24.97
-26.11
-26.63
-26.70
-26.75
-27.24
-28.47
-30.51
-32.97
-35.17
-36.22
-35.36
-32.14
-26.65
-19.41
-11.32
-3.39
3.41
8.49
11.65
13.07
13.24
12.70
11.98
11.45
11.33
11.64
12.37
13.42
14.64
15.78
16.64
17.09
17.03
16.57
15.93
15.29
14.78
14.42
14.04
13.43
12.40
10.81
8.76
6.51
4.37
2.58
1.13
-0.11
-1.39
-2.86
-4.51
-6.21
-7.72
-8.95
-9.85
-10.50
-10.94
-11.24
-11.45
-11.63
-11.87
-12.26
-12.92
-13.77
-14.79
-15.89
-16.97
-17.93
-18.85
-19.83
-21.06
-22.90
-25.46
-28.73
-32.45
-36.14
-39.09
-40.54
-39.77
-36.31
-30.16
-21.82
-12.19
-2.48
6.21
13.07
17.82
20.65
22.06
22.60
22.82
23.06
23.41
24.01
24.84
25.85
26.91
27.89
28.51
28.69
28.42
27.80
27.13
26.59
26.22
25.89
25.32
24.24
22.53
20.26
17.69
15.22
13.18
11.82
10.99
10.41
9.63
8.40
6.66
4.63
2.64
0.93
-0.40
-1.59
-3.04
-5.21
-8.33
-12.35
-16.96
-21.50
-25.19
-27.34
-27.51
-25.76
-22.69
-19.22
-16.34
-14.82
-14.81
-16.17
-18.46
-21.22
-24.15
-27.17
-30.34
-33.67
-37.00
-39.87
-41.81
-42.34
-41.01
-37.69
-32.50
-25.90
-18.39
-10.62
-3.04
3.94
10.10
15.36
19.61
22.68
24.53
25.20
24.86
24.02
23.12
22.61
22.73
23.30
23.92
24.25
23.97
23.10
21.99
21.09
20.84
21.45
22.72
24.12
25.09
25.00
23.50
20.61
16.77
12.69
9.14
6.76
5.80
6.09
7.14
8.26
8.99
8.99
8.20
6.76
4.71
2.19
-0.66
-3.69
-6.66
-9.16
-11.01
-12.15
-12.63
-12.70
-12.55
-12.26
-11.92
-11.62
-11.36
-11.25
-11.45
-11.97
-12.89
-14.28
-16.31
-19.01
-22.31
-25.82
-28.85
-30.74
-30.89
-29.09
-25.43
-20.25
-14.06
-7.33
-0.54
5.81
11.29
15.61
18.56
20.24
20.99
21.10
20.92
20.75
20.71
20.87
21.28
21.90
22.62
23.32
23.82
23.92
23.54
22.64
21.17
19.17
16.67
13.74
10.53
7.21
3.91
0.82
-1.98
-4.33
-6.13
-7.21
-7.64
-7.53
-7.22
-7.12
-7.50
-8.51
-10.03
-11.79
-13.55
-15.13
-16.42
-17.43
-18.19
-18.62
-18.64
-18.29
-17.68
-17.10
-16.89
-17.22
-18.09
-19.39
-20.90
-22.53
-24.33
-26.36
-28.58
-30.60
-31.70
-31.05
-28.02
-22.40
-14.72
-5.98
2.63
9.95
15.27
18.30
19.24
18.51
16.77
14.55
12.35
10.62
9.50
9.00
9.00
9.31
9.74
10.22
10.68
11.21
11.84
12.52
13.18
13.61
13.63
13.18
12.17
10.54
8.42
5.90
3.20
0.56
-1.82
-3.79
-5.22
-6.07
-6.30
-5.92
-5.06
-3.90
-2.85
-2.37
-2.89
-4.63
-7.51
-11.23
-15.41
-19.61
-23.37
-26.35
-28.47
-29.83
-30.66
-31.31
-31.92
-32.29
-32.05
-30.55
-27.20
-21.94
-15.10
-7.44
0.01
6.42
11.24
14.19
15.44
15.45
14.79
14.09
13.86
14.32
15.42
16.79
18.05
18.80
18.99
18.79
18.48
18.33
18.45
18.98
19.96
21.36
23.02
24.63
25.76
26.07
25.39
23.77
21.60
19.38
17.44
16.05
15.20
14.73
14.50
14.29
13.83
12.91
11.42
9.24
6.52
3.46
0.35
-2.48
-4.76
-6.44
-7.66
-8.67
-9.80
-11.14
-12.84
-14.82
-17.00
-19.32
-21.76
-24.33
-27.03
-29.86
-32.63
-35.34
-37.91
-40.29
-42.39
-43.82
-44.01
-42.33
-38.28
-31.71
-23.14
-13.60
-4.37
3.38
9.03
12.58
14.39
15.11
15.33
15.45
15.66
16.03
16.46
17.02
17.70
18.55
19.67
21.11
22.84
24.77
26.66
28.15
28.95
28.85
27.90
26.29
24.33
22.32
20.43
18.62
16.72
14.53
11.80
8.37
4.28
-0.37
-5.27
-9.96
-13.93
-16.74
-18.02
-17.76
-16.34
-14.34
-12.60
-11.92
-12.77
-15.29
-19.26
-24.01
-28.76
-32.84
-35.78
-37.57
-38.56
-39.27
-40.13
-41.29
-42.50
-43.12
-42.42
-39.66
-34.56
-27.24
-18.22
-8.42
1.02
9.14
15.19
18.95
20.72
21.12
20.91
20.90
21.55
23.01
25.20
27.70
30.02
31.72
32.41
31.91
30.35
28.06
25.66
23.84
23.08
23.54
25.03
26.97
28.56
29.22
28.51
26.44
23.42
19.93
16.53
13.62
11.33
9.57
8.19
6.93
5.66
4.33
2.90
1.38
-0.23
-1.93
-3.70
-5.37
-6.83
-7.94
-8.72
-9.34
-10.14
-11.44
-13.46
-16.12
-19.09
-21.98
-24.35
-25.94
-26.69
-26.76
-26.41
-26.02
-26.00
-26.78
-28.55
-31.28
-34.54
-37.50
-39.29
-39.05
-36.36
-31.27
-24.35
-16.46
-8.59
-1.59
4.02
7.99
10.37
11.43
11.49
10.91
10.11
9.49
9.38
9.99
11.35
13.29
15.41
17.22
18.32
18.52
17.90
16.81
15.83
15.57
16.56
19.07
22.77
26.91
30.48
32.47
32.34
30.20
26.72
22.75
18.96
15.46
12.03
8.41
4.53
0.77
-2.18
-3.74
-3.67
-2.27
-0.19
1.76
2.82
2.54
0.90
-1.76
-4.96
-8.15
-10.90
-13.08
-14.76
-16.33
-18.16
-20.42
-23.05
-25.74
-28.09
-29.69
-30.28
-30.01
-29.29
-28.72
-28.86
-29.85
-31.49
-32.97
-33.19
-31.02
-25.81
-17.65
-7.47
3.16
12.62
19.63
23.65
24.91
24.04
21.93
19.45
17.31
15.93
15.54
16.19
17.62
19.47
21.16
22.20
22.38
21.85
20.84
19.77
18.96
18.46
18.28
18.17
18.01
17.78
17.53
17.22
16.83
16.28
15.41
14.25
12.85
11.36
9.94
8.75
7.82
7.11
6.50
5.75
4.78
3.57
2.16
0.63
-1.01
-2.71
-4.51
-6.40
-8.39
-10.52
-12.74
-15.15
-17.68
-20.37
-23.01
-25.39
-27.28
-28.53
-29.18
-29.42
-29.61
-29.97
-30.67
-31.61
-32.43
-32.57
-31.45
-28.46
-23.28
-16.01
-7.17
2.22
10.93
17.84
22.32
24.34
24.49
23.68
22.74
22.22
22.37
23.03
23.88
24.58
24.97
25.02
24.79
24.40
24.07
23.98
24.21
24.71
25.20
25.37
24.88
23.50
21.23
18.38
15.43
12.97
11.36
10.67
10.58
10.60
10.28
9.46
8.31
7.16
6.41
6.23
6.49
6.84
6.86
6.21
4.82
2.86
0.67
-1.35
-2.88
-3.95
-4.80
-5.83
-7.39
-9.62
-12.44
-15.59
-18.73
-21.63
-24.26
-26.62
-28.74
-30.40
-31.27
-30.86
-28.66
-24.36
-18.02
-10.13
-1.59
6.45
12.96
17.27
19.26
19.30
18.07
16.36
14.76
13.66
13.19
13.25
13.71
14.34
14.96
15.26
15.08
14.30
13.01
11.44
9.86
8.64
7.87
7.51
7.28
6.90
6.19
5.17
4.13
3.46
3.46
4.21
5.49
6.93
8.06
8.51
8.14
6.99
5.23
3.08
0.70
-1.75
-4.12
-6.22
-7.87
-8.88
-9.14
-8.76
-7.92
-6.92
-6.00
-5.38
-5.25
-5.73
-7.06
-9.37
-12.62
-16.34
-19.72
-21.80
-21.68
-18.86
-13.48
-6.29
1.55
8.85
14.74
18.88
21.44
22.94
24.00
25.16
26.66
28.57
30.71
32.88
34.82
36.32
37.37
37.99
38.42
38.91
39.65
40.60
41.72
42.75
43.33
43.12
41.82
39.31
35.76
31.55
27.14
22.98
19.24
15.72
12.08
7.97
3.32
-1.60
-6.24
-10.05
-12.70
-14.17
-14.87
-15.26
-15.99
-17.46
-19.91
-23.34
-27.53
-32.21
-37.08
-41.87
-46.26
-50.16
-53.44
-55.98
-57.73
-58.57
-58.30
-56.68
-53.42
-48.38
-41.72
-33.94
-25.86
-18.48
-12.65
-8.87
-7.11
-6.92
-7.57
-8.33
-8.71
-8.51
-7.92
-7.22
-6.77
-6.73
-7.15
-7.86
-8.47
-8.65
-8.14
-6.81
-4.65
-1.91
0.99
3.60
5.35
5.91
5.22
3.56
1.48
-0.54
-2.15
-3.30
-4.30
-5.56
-7.51
-10.24
-13.55
-16.92
-19.87
-22.00
-23.30
-24.14
-25.01
-26.29
-28.02
-29.86
-31.12
-31.20
-29.65
-26.27
-21.40
-15.54
-9.29
-3.28
1.93
6.03
8.81
10.28
10.70
10.29
9.43
8.49
7.74
7.35
7.38
7.78
8.33
8.89
9.21
9.33
9.35
9.54
10.12
11.14
12.41
13.44
13.87
13.28
11.56
8.84
5.40
1.68
-1.99
-5.33
-8.21
-10.57
-12.49
-14.08
-15.36
-16.45
-17.29
-17.99
-18.56
-19.07
-19.51
-19.90
-20.22
-20.43
-20.62
-20.70
-20.61
-20.02
-18.48
-15.59
-11.10
-5.28
1.33
7.75
13.20
17.13
19.53
20.83
21.58
22.33
23.24
24.19
24.87
25.16
25.07
24.80
24.59
24.58
24.75
24.92
24.95
24.81
24.65
24.63
24.75
25.02
25.18
25.12
24.74
24.13
23.54
23.16
23.08
23.08
22.97
22.32
21.03
19.03
16.54
13.88
11.23
8.71
6.23
3.81
1.31
-1.04
-3.06
-4.45
-5.07
-5.00
-4.50
-3.94
-3.58
-3.59
-3.99
-4.71
-5.53
-6.16
-6.39
-5.93
-4.61
-2.27
0.92
4.60
8.09
10.65
11.79
11.18
8.94
5.36
1.02
-3.62
-8.10
-12.10
-15.42
-17.84
-19.39
-20.05
-19.95
-19.15
-17.81
-16.08
-14.17
-12.37
-10.88
-9.88
-9.24
-8.84
-8.56
-8.32
-8.06
-7.79
-7.58
-7.44
-7.42
-7.62
-8.11
-8.92
-9.91
-10.69
-10.85
-10.20
-8.72
-6.76
-4.84
-3.49
-3.13
-3.90
-5.67
-8.16
-11.04
-13.82
-15.99
-16.90
-15.88
-12.49
-6.57
1.54
11.01
20.73
29.59
36.68
41.58
44.32
45.31
45.13
44.46
43.77
43.33
43.24
43.44
43.79
44.13
44.28
44.09
43.36
41.92
39.59
36.30
32.08
27.12
21.70
16.14
10.75
5.77
1.40
-2.26
-5.22
-7.59
-9.52
-11.30
-13.12
-15.08
-17.12
-19.12
-20.92
-22.40
-23.57
-24.41
-24.90
-25.06
-24.93
-24.57
-24.13
-23.81
-23.70
-23.89
-24.39
-25.13
-26.19
-27.60
-29.40
-31.45
-33.32
-34.38
-33.97
-31.64
-27.30
-21.42
-14.68
-7.98
-2.08
2.57
5.81
7.64
8.19
7.72
6.43
4.72
2.88
1.20
-0.07
-0.77
-0.96
-0.80
-0.49
-0.24
-0.17
-0.28
-0.47
-0.59
-0.55
-0.41
-0.23
-0.18
-0.37
-0.76
-1.31
-1.87
-2.43
-2.97
-3.55
-4.11
-4.52
-4.71
-4.52
-3.95
-3.13
-2.34
-1.97
-2.24
-3.28
-4.85
-6.76
-8.75
-10.79
-12.97
-15.48
-18.47
-21.84
-25.41
-28.73
-31.37
-32.79
-32.62
-30.45
-26.12
-19.77
-11.85
-3.34
4.80
11.61
16.50
19.33
20.33
20.08
19.12
18.03
17.11
16.57
16.43
16.59
16.91
17.15
17.14
16.83
16.38
15.98
15.92
16.26
16.97
17.80
18.36
18.33
17.49
15.93
13.75
11.31
8.90
6.74
4.95
3.50
2.26
1.13
-0.02
-1.28
-2.64
-4.03
-5.35
-6.47
-7.28
-7.75
-7.91
-7.93
-8.08
-8.64
-9.82
-11.64
-13.93
-16.45
-18.90
-21.20
-23.27
-25.16
-26.95
-28.60
-29.95
-30.62
-30.22
-28.28
-24.55
-19.00
-11.96
-4.15
3.50
10.01
14.61
16.95
17.15
15.86
13.82
11.68
9.95
8.84
8.35
8.39
8.91
9.87
11.28
13.08
15.20
17.51
19.85
21.96
23.59
24.54
24.56
23.55
21.50
18.62
15.12
11.29
7.44
3.87
0.91
-1.25
-2.52
-2.98
-2.80
-2.33
-1.95
-1.92
-2.40
-3.44
-4.99
-6.96
-9.23
-11.68
-14.23
-16.85
-19.40
-21.74
-23.71
-25.08
-25.72
-25.60
-24.86
-23.78
-22.64
-21.76
-21.47
-21.96
-23.24
-24.97
-26.58
-27.30
-26.44
-23.55
-18.65
-12.29
-5.33
1.28
6.78
10.71
13.15
14.33
14.80
15.08
15.61
16.61
18.11
19.89
21.63
22.93
23.40
22.91
21.41
19.18
16.62
14.15
12.19
10.96
10.61
11.00
11.97
13.18
14.35
15.27
15.71
15.64
14.95
13.67
11.79
9.41
6.70
3.89
1.29
-0.90
-2.64
-3.97
-5.06
-6.04
-7.05
-8.13
-9.26
-10.38
-11.50
-12.58
-13.65
-14.76
-16.01
-17.51
-19.33
-21.38
-23.39
-25.11
-26.25
-26.80
-26.95
-27.10
-27.67
-28.86
-30.64
-32.56
-33.97
-34.04
-32.04
-27.52
-20.53
-11.62
-1.80
7.69
15.72
21.62
25.16
26.66
26.64
25.69
24.28
22.67
20.96
19.20
17.47
15.79
14.30
13.01
12.06
11.42
11.06
10.90
10.96
11.33
11.99
12.91
13.77
14.27
13.98
12.60
10.16
6.94
3.34
-0.30
-3.71
-6.84
-9.61
-12.01
-14.06
-15.63
-16.68
-17.20
-17.33
-17.10
-16.71
-16.36
-16.16
-16.29
-16.72
-17.37
-18.17
-19.00
-19.95
-21.12
-22.77
-24.90
-27.50
-30.29
-32.90
-34.89
-35.74
-35.05
-32.39
-27.58
-20.62
-11.99
-2.46
6.88
15.03
21.39
25.69
28.07
28.98
28.96
28.36
27.54
26.78
26.28
26.26
26.83
27.89
29.29
30.71
31.88
32.56
32.66
32.09
30.96
29.40
27.50
25.42
23.17
20.79
18.32
15.77
13.11
10.45
7.77
5.14
2.70
0.54
-1.21
-2.39
-3.00
-3.23
-3.23
-3.27
-3.57
-4.14
-5.01
-6.09
-7.36
-8.94
-11.05
-13.89
-17.49
-21.65
-25.93
-29.86
-33.05
-35.32
-36.87
-37.98
-39.04
-40.40
-42.08
-43.85
-45.21
-45.48
-43.91
-40.08
-33.92
-25.93
-17.14
-8.77
-1.87
2.81
5.08
5.35
4.27
2.70
1.33
0.58
0.63
1.37
2.54
3.80
4.88
5.68
6.33
7.10
8.35
10.33
12.99
16.08
19.12
21.63
23.20
23.61
22.99
21.61
19.99
18.63
17.95
18.04
18.75
19.66
20.31
20.33
19.51
17.89
15.66
13.17
10.74
8.65
7.15
6.24
5.77
5.46
4.92
3.92
2.33
0.18
-2.37
-5.07
-7.73
-10.20
-12.46
-14.64
-16.85
-19.25
-21.93
-24.80
-27.62
-29.95
-31.12
-30.33
-26.95
-20.65
-11.68
-0.86
10.46
20.75
28.74
33.69
35.70
35.32
33.57
31.45
29.69
28.70
28.43
28.83
29.77
31.22
33.03
35.06
37.08
38.78
39.99
40.64
40.79
40.70
40.49
40.09
39.34
37.98
35.88
33.16
30.05
26.85
23.75
20.74
17.70
14.51
11.15
7.73
4.49
1.58
-0.97
-3.14
-5.02
-6.52
-7.67
-8.52
-9.31
-10.19
-11.44
-13.17
-15.36
-17.88
-20.42
-22.75
-24.74
-26.46
-28.05
-29.78
-31.94
-34.69
-37.96
-41.38
-44.32
-45.89
-45.28
-41.93
-35.69
-27.04
-16.90
-6.53
2.92
10.50
15.78
18.82
19.98
19.74
18.63
17.12
15.45
13.87
12.55
11.61
11.19
11.35
12.05
13.20
14.76
16.63
18.68
20.77
22.63
24.04
24.71
24.44
22.97
20.29
16.56
12.22
7.74
3.53
-0.08
-3.12
-5.64
-7.86
-9.95
-12.01
-13.99
-15.85
-17.60
-19.25
-20.82
-22.36
-24.02
-25.96
-28.29
-30.89
-33.35
-35.03
-35.17
-33.20
-28.92
-22.68
-15.24
-7.52
-0.34
5.82
10.72
14.29
16.44
17.23
16.77
15.38
13.48
11.67
10.34
9.66
9.55
9.74
10.01
10.25
10.53
10.85
11.24
11.67
11.97
12.01
11.67
10.88
9.55
7.60
4.94
1.54
-2.49
-6.91
-11.35
-15.52
-19.21
-22.32
-24.80
-26.71
-28.13
-29.25
-30.25
-31.22
-32.23
-33.04
-33.25
-32.28
-29.66
-25.17
-19.08
-12.08
-4.98
1.45
6.67
10.53
13.09
14.47
14.90
14.47
13.28
11.47
9.28
7.03
5.03
3.51
2.57
2.22
2.37
2.73
3.05
2.96
2.22
0.75
-1.33
-3.69
-5.96
-7.83
-9.19
-10.10
-10.77
-11.34
-11.84
-12.20
-12.36
-12.29
-12.08
-11.90
-11.88
-12.31
-13.46
-15.56
-18.68
-22.68
-27.04
-30.93
-33.52
-33.98
-31.90
-27.36
-20.82
-13.11
-5.17
2.15
8.29
12.81
15.69
17.10
17.49
17.39
17.43
18.00
19.33
21.43
23.94
26.52
28.71
30.18
30.73
30.29
28.96
26.91
24.41
21.78
19.31
17.20
15.48
14.13
12.97
11.77
10.30
8.45
6.29
4.08
2.21
0.93
0.41
0.56
1.04
1.38
1.13
-0.09
-2.32
-5.38
-8.96
-12.61
-16.02
-19.02
-21.69
-24.21
-26.90
-29.94
-33.27
-36.65
-39.56
-41.30
-41.16
-38.53
-33.23
-25.54
-16.29
-6.65
2.11
8.96
13.47
15.78
16.47
16.24
15.70
15.30
15.36
16.04
17.49
19.70
22.58
25.74
28.85
31.60
33.88
35.75
37.36
38.94
40.59
42.36
44.21
46.06
47.61
48.57
48.67
47.71
45.80
43.08
39.89
36.45
32.96
29.33
25.51
21.52
17.48
13.61
10.13
7.14
4.61
2.41
0.26
-2.13
-4.90
-8.08
-11.53
-14.96
-18.06
-20.60
-22.58
-24.21
-25.86
-27.87
-30.53
-33.80
-37.32
-40.56
-42.69
-43.14
-41.50
-37.77
-32.37
-26.06
-19.72
-14.12
-9.85
-7.02
-5.52
-4.92
-4.66
-4.27
-3.47
-2.13
-0.27
1.95
4.48
7.16
9.75
11.95
13.43
13.89
13.33
12.12
10.68
9.57
9.10
9.24
9.73
10.07
9.86
8.84
7.03
4.67
2.12
-0.28
-2.34
-3.97
-5.40
-6.77
-8.33
-10.30
-12.77
-15.77
-19.15
-22.69
-25.98
-28.79
-30.76
-31.73
-31.80
-31.31
-30.69
-30.46
-30.94
-31.92
-32.80
-32.58
-30.20
-25.07
-17.31
-7.83
1.92
10.29
16.12
18.79
18.47
15.94
12.21
8.27
4.80
2.22
0.68
0.20
0.58
1.60
2.95
4.38
5.72
6.87
7.85
8.67
9.32
9.72
9.89
9.85
9.64
9.40
9.19
8.92
8.46
7.73
6.66
5.39
4.14
3.07
2.23
1.55
0.76
-0.40
-1.92
-3.65
-5.27
-6.49
-7.19
-7.48
-7.62
-7.86
-8.51
-9.61
-11.13
-12.85
-14.47
-15.70
-16.44
-16.93
-17.60
-18.84
-20.70
-22.76
-24.04
-23.43
-20.09
-13.87
-5.36
4.23
13.46
21.05
26.01
28.02
27.24
24.28
20.09
15.61
11.73
9.05
7.86
7.93
8.87
10.18
11.39
12.30
12.84
13.08
13.14
13.08
12.92
12.65
12.25
11.72
11.16
10.66
10.34
10.17
10.08
9.92
9.53
8.72
7.46
5.84
4.00
2.16
0.33
-1.46
-3.19
-4.82
-6.19
-7.07
-7.18
-6.43
-4.99
-3.28
-1.89
-1.41
-2.14
-4.02
-6.61
-9.33
-11.76
-13.78
-15.86
-18.65
-22.74
-28.15
-34.25
-39.75
-43.18
-43.36
-39.69
-32.51
-22.79
-11.98
-1.42
7.81
15.15
20.45
23.96
25.96
26.88
27.27
27.52
27.95
28.63
29.44
30.13
30.47
30.29
29.67
28.95
28.46
28.39
28.76
29.46
30.24
30.84
31.09
30.92
30.44
29.82
29.18
28.58
28.08
27.72
27.49
27.49
27.71
28.15
28.73
29.43
30.11
30.75
31.38
31.99
32.55
32.84
32.60
31.50
29.33
25.99
21.64
16.65
11.55
6.83
2.74
-0.81
-4.12
-7.68
-11.86
-16.73
-22.08
-27.41
-32.05
-35.41
-37.09
-36.77
-34.51
-30.52
-25.32
-19.68
-14.42
-10.26
-7.64
-6.64
-6.88
-7.95
-9.26
-10.43
-11.23
-11.60
-11.54
-11.08
-10.29
-9.19
-7.93
-6.56
-5.17
-3.91
-2.79
-1.80
-0.97
-0.32
0.06
0.02
-0.56
-1.67
-3.24
-5.01
-6.66
-7.94
-8.80
-9.36
-9.76
-10.18
-10.76
-11.53
-12.32
-13.11
-13.81
-14.43
-15.06
-15.80
-16.76
-18.05
-19.81
-21.98
-24.44
-26.88
-28.88
-29.99
-29.76
-27.84
-24.08
-18.61
-11.89
-4.63
2.26
8.01
12.06
14.29
14.87
14.31
13.13
11.72
10.39
9.25
8.26
7.33
6.44
5.52
4.62
3.82
3.21
2.81
2.76
3.15
4.03
5.39
7.03
8.68
9.96
10.56
10.27
9.18
7.43
5.22
2.68
-0.04
-2.88
-5.69
-8.32
-10.74
-12.94
-15.08
-17.29
-19.58
-21.80
-23.71
-25.07
-25.84
-26.11
-26.06
-25.99
-26.00
-26.19
-26.56
-27.06
-27.55
-27.72
-27.10
-25.29
-21.96
-17.14
-11.24
-4.94
0.97
5.84
9.29
11.34
12.30
12.57
12.57
12.59
12.78
13.18
13.79
14.46
15.08
15.59
15.87
15.95
15.85
15.60
15.26
14.85
14.44
13.95
13.30
12.42
11.13
9.40
7.40
5.23
3.08
1.07
-0.81
-2.56
-4.15
-5.45
-6.35
-6.75
-6.77
-6.65
-6.64
-6.98
-7.73
-8.81
-10.10
-11.49
-12.93
-14.49
-16.20
-18.14
-20.37
-22.90
-25.79
-28.94
-32.15
-34.98
-36.91
-37.32
-35.84
-32.35
-26.96
-20.16
-12.58
-5.07
1.61
6.76
9.99
11.27
10.88
9.44
7.57
5.84
4.58
3.98
4.11
4.96
6.51
8.61
11.09
13.66
16.12
18.29
20.12
21.68
22.91
23.69
23.66
22.46
19.86
15.99
11.32
6.49
2.36
-0.46
-1.62
-1.24
0.19
1.99
3.37
3.83
3.17
1.60
-0.40
-2.28
-3.80
-4.87
-5.61
-6.21
-6.80
-7.43
-8.17
-9.12
-10.38
-12.05
-14.04
-16.16
-18.20
-20.07
-21.72
-23.23
-24.67
-25.87
-26.40
-25.73
-23.35
-18.95
-12.74
-5.37
2.18
8.95
14.22
17.74
19.74
20.73
21.29
21.88
22.72
23.82
25.08
26.44
27.73
28.80
29.54
29.88
29.77
29.22
28.34
27.24
26.01
24.76
23.51
22.33
21.33
20.46
19.59
18.58
17.26
15.50
13.34
10.97
8.50
6.13
3.92
1.83
-0.18
-2.06
-3.75
-5.10
-5.98
-6.43
-6.54
-6.50
-6.48
-6.69
-7.17
-7.96
-9.01
-10.27
-11.74
-13.30
-14.97
-16.62
-18.15
-19.53
-20.84
-22.26
-24.01
-26.14
-28.30
-29.95
-30.29
-28.67
-24.85
-19.18
-12.50
-5.73
0.26
4.96
8.19
10.04
10.77
10.73
10.37
10.09
10.16
10.67
11.54
12.48
13.26
13.75
13.93
14.03
14.17
14.41
14.68
14.84
14.81
14.54
13.99
13.18
12.21
11.07
9.84
8.58
7.38
6.36
5.51
4.70
3.87
2.95
1.94
0.87
-0.19
-1.26
-2.36
-3.54
-4.85
-6.29
-7.79
-9.37
-11.14
-13.02
-15.05
-17.11
-19.05
-20.75
-22.21
-23.48
-24.75
-26.18
-27.88
-29.88
-32.11
-34.37
-36.33
-37.48
-37.36
-35.46
-31.48
-25.54
-18.01
-9.63
-1.23
6.22
12.09
16.06
18.18
18.80
18.38
17.40
16.27
15.35
14.75
14.64
15.11
16.16
17.66
19.41
21.18
22.83
24.34
25.68
26.89
27.85
28.40
28.29
27.37
25.69
23.36
20.64
17.69
14.61
11.39
8.01
4.60
1.27
-1.74
-4.32
-6.44
-8.15
-9.47
-10.40
-11.01
-11.18
-11.01
-10.55
-9.92
-9.31
-8.86
-8.75
-9.05
-9.87
-11.07
-12.55
-14.08
-15.48
-16.81
-18.15
-19.69
-21.52
-23.75
-26.34
-29.26
-32.20
-34.77
-36.30
-36.10
-33.76
-29.15
-22.67
-15.08
-7.33
-0.20
5.81
10.43
13.80
16.07
17.45
18.12
18.17
17.74
16.92
15.98
15.12
14.68
14.82
15.54
16.61
17.67
18.37
18.47
18.00
17.05
15.89
14.58
13.16
11.49
9.47
7.09
4.52
2.06
0.10
-1.11
-1.55
-1.30
-0.65
0.08
0.52
0.50
-0.05
-1.00
-2.19
-3.43
-4.69
-6.02
-7.58
-9.67
-12.54
-16.33
-20.92
-25.92
-30.69
-34.38
-36.19
-35.70
-33.04
-28.92
-24.43
-20.48
-17.46
-15.06
-12.48
-8.79
-3.72
2.41
8.63
13.72
16.81
17.65
16.51
14.12
11.30
8.67
6.68
5.67
5.87
7.32
9.92
13.23
16.61
19.47
21.36
22.21
22.28
21.96
21.58
21.39
21.38
21.53
21.70
21.79
21.71
21.48
20.96
20.14
18.92
17.16
14.75
11.68
8.02
4.08
0.20
-3.38
-6.51
-9.20
-11.51
-13.57
-15.42
-17.05
-18.38
-19.36
-20.03
-20.55
-21.07
-21.82
-23.01
-24.68
-26.79
-29.18
-31.42
-32.92
-32.99
-30.92
-26.43
-19.63
-11.17
-2.14
6.23
13.00
17.53
19.76
20.02
18.88
17.00
15.01
13.34
12.12
11.48
11.34
11.52
11.99
12.66
13.49
14.48
15.57
16.55
17.26
17.53
17.20
16.29
14.75
12.62
9.98
6.97
3.77
0.68
-1.99
-3.99
-5.11
-5.43
-5.05
-4.24
-3.38
-2.82
-2.86
-3.72
-5.44
-7.79
-10.56
-13.35
-15.75
-17.68
-19.14
-20.37
-21.76
-23.72
-26.31
-29.32
-32.14
-33.95
-33.98
-31.62
-26.77
-19.88
-11.86
-3.78
3.32
8.70
12.07
13.55
13.66
12.98
12.02
11.18
10.60
10.25
10.09
10.04
10.16
10.62
11.47
12.65
14.14
15.76
17.31
18.70
19.77
20.39
20.45
19.78
18.29
16.03
13.13
9.77
6.42
3.38
0.79
-1.28
-2.98
-4.43
-5.55
-6.26
-6.47
-6.21
-5.83
-5.81
-6.62
-8.51
-11.46
-15.17
-19.23
-23.27
-27.17
-30.98
-34.85
-38.98
-43.63
-48.75
-54.01
-58.72
-61.82
-62.21
-58.99
-51.81
-40.97
-27.60
-13.27
0.45
12.12
20.93
26.62
29.42
29.99
29.22
27.92
26.94
26.78
27.69
29.60
32.17
34.89
37.24
38.86
39.59
39.56
38.98
38.13
37.20
36.22
35.14
33.80
32.09
29.96
27.49
24.85
22.21
19.68
17.38
15.35
13.66
12.30
11.20
10.23
9.27
8.23
7.13
6.08
5.19
4.41
3.51
2.22
0.30
-2.23
-5.07
-7.62
-9.47
-10.52
-11.22
-12.33
-14.50
-18.10
-22.91
-28.42
-33.94
-39.02
-43.62
-48.02
-52.54
-57.23
-61.71
-65.23
-66.83
-65.52
-60.78
-52.49
-41.17
-27.86
-13.92
-0.80
10.19
18.16
22.82
24.42
23.86
22.28
20.82
20.22
20.83
22.53
25.00
27.65
30.05
31.92
33.17
33.87
34.23
34.47
34.72
35.06
35.34
35.36
34.96
34.03
32.59
30.81
28.82
26.77
24.72
22.67
20.56
18.47
16.48
14.69
13.23
12.09
11.23
10.59
10.06
9.46
8.89
8.26
7.73
7.30
6.89
6.41
5.82
5.04
4.02
2.81
1.45
0.13
-0.97
-1.70
-1.91
-1.64
-1.28
-1.57
-3.26
-6.84
-11.98
-17.50
-21.58
-22.31
-18.35
-9.52
3.07
17.32
30.71
41.12
47.10
48.25
45.03
38.54
30.16
21.20
12.77
5.50
-0.29
-4.58
-7.48
-9.12
-9.70
-9.48
-8.65
-7.56
-6.56
-5.92
-5.79
-6.18
-7.03
-8.25
-9.71
-11.28
-12.78
-14.08
-15.02
-15.53
-15.58
-15.37
-15.18
-15.23
-15.66
-16.49
-17.64
-18.98
-20.41
-21.83
-23.17
-24.34
-25.22
-25.75
-26.10
-26.53
-27.40
-29.11
-31.77
-35.13
-38.51
-40.94
-41.35
-39.00
-33.55
-25.36
-15.34
-4.69
5.35
13.84
20.20
24.22
26.09
26.19
24.98
22.88
20.41
17.98
16.05
14.94
14.78
15.50
16.88
18.48
19.88
20.90
21.29
21.03
20.14
18.65
16.58
14.11
11.43
8.81
6.57
4.82
3.49
2.35
1.16
-0.26
-1.90
-3.52
-4.78
-5.41
-5.18
-4.23
-2.76
-1.25
-0.18
-0.07
-1.25
-3.77
-7.44
-11.79
-16.19
-20.02
-22.99
-25.10
-26.78
-28.56
-30.85
-33.53
-35.91
-36.76
-34.77
-28.90
-18.88
-5.28
10.42
26.34
40.65
52.00
59.75
63.94
65.11
63.92
61.11
57.24
52.76
48.01
43.43
39.45
36.51
34.97
34.82
35.79
37.33
38.69
39.16
38.27
35.85
32.06
27.24
21.83
16.19
10.64
5.35
0.32
-4.33
-8.56
-12.17
-15.06
-17.11
-18.43
-19.24
-19.83
-20.55
-21.55
-22.95
-24.51
-26.00
-27.22
-28.16
-28.90
-29.69
-30.69
-31.95
-33.57
-35.45
-37.53
-39.80
-42.19
-44.51
-46.44
-47.61
-47.60
-46.14
-43.03
-38.15
-31.54
-23.27
-13.68
-3.32
6.97
16.28
23.71
28.61
30.76
30.39
28.07
24.50
20.35
16.14
12.18
8.60
5.56
3.20
1.79
1.55
2.52
4.51
7.09
9.63
11.52
12.43
12.35
11.58
10.61
9.85
9.56
9.64
9.76
9.43
8.32
6.22
3.09
-0.85
-5.34
-10.01
-14.58
-18.63
-21.84
-23.76
-24.06
-22.71
-19.96
-16.50
-13.07
-10.62
-9.68
-10.55
-13.21
-17.38
-22.72
-28.67
-34.64
-39.75
-43.02
-43.46
-40.45
-33.96
-24.50
-13.31
-1.70
9.00
17.86
24.41
28.60
30.70
31.03
30.12
28.24
25.86
23.30
20.87
18.88
17.40
16.47
15.78
15.17
14.38
13.39
12.26
11.02
9.69
8.11
6.24
3.96
1.46
-1.07
-3.31
-5.03
-6.16
-6.67
-6.81
-6.74
-6.77
-7.12
-7.95
-9.35
-11.30
-13.85
-16.83
-20.10
-23.44
-26.58
-29.31
-31.47
-33.01
-33.99
-34.69
-35.34
-36.11
-36.97
-37.55
-37.24
-35.25
-31.05
-24.42
-15.77
-6.03
3.57
11.80
17.90
21.54
23.05
22.98
21.99
20.74
19.63
18.94
18.72
19.12
20.09
21.57
23.38
25.29
27.09
28.65
29.82
30.51
30.74
30.44
29.66
28.57
27.31
26.10
25.06
24.15
23.27
22.23
20.84
19.09
17.03
14.72
12.29
9.68
6.88
3.97
1.09
-1.64
-4.05
-6.15
-8.20
-10.52
-13.42
-17.03
-21.11
-25.29
-29.18
-32.52
-35.34
-37.83
-40.27
-42.98
-46.16
-49.74
-53.46
-56.74
-58.61
-58.13
-54.51
-47.37
-37.09
-24.64
-11.44
0.91
11.11
18.41
22.65
24.20
23.88
22.59
21.19
20.32
20.36
21.34
23.17
25.45
27.78
29.74
31.10
31.78
31.92
31.62
31.04
30.24
29.21
27.89
26.34
24.62
22.80
21.02
19.28
17.69
16.25
14.96
13.75
12.56
11.24
9.54
7.38
4.80
1.98
-0.79
-3.25
-5.33
-7.07
-8.64
-10.36
-12.30
-14.46
-16.66
-18.62
-20.15
-21.17
-21.69
-21.84
-21.85
-21.76
-21.67
-21.64
-21.67
-21.90
-22.52
-23.66
-25.30
-27.17
-28.48
-28.11
-24.74
-17.18
-5.01
11.34
30.52
50.58
69.32
84.72
95.02
99.01
96.30
87.40
73.98
58.48
43.68
31.86
24.25
20.74
20.32
21.82
24.38
27.75
32.04
37.37
43.66
50.55
57.45
63.90
69.49
73.93
76.77
77.55
76.06
72.41
67.18
61.03
54.41
47.32
39.53
30.66
20.60
9.60
-1.93
-13.56
-24.84
-35.53
-45.49
-54.57
-62.78
-70.42
-77.90
-85.56
-93.28
-100.17
-105.03
-106.74
-104.78
-99.60
-92.46
-84.91
-78.29
-73.33
-70.07
-68.29
-67.64
-67.83
-68.54
-69.11
-68.46
-65.46
-59.32
-49.98
-38.23
-25.52
-13.26
-2.49
6.35
13.39
18.82
22.68
24.91
25.55
24.92
23.70
22.63
22.35
23.10
24.76
27.03
29.62
32.29
34.90
37.39
39.51
41.08
41.90
41.81
40.79
38.75
35.71
31.66
26.86
21.65
16.44
11.62
7.38
3.68
0.10
-3.73
-8.12
-12.97
-17.98
-22.79
-27.25
-31.34
-35.06
-38.53
-41.71
-44.68
-47.56
-50.63
-54.04
-57.73
-61.18
-63.52
-64.23
-63.28
-61.47
-60.08
-60.15
-62.13
-65.62
-69.59
-72.83
-74.35
-73.43
-69.72
-63.03
-53.24
-40.66
-26.02
-10.44
4.76
18.46
29.95
38.83
44.96
48.51
49.82
49.54
48.57
47.90
48.32
50.23
53.34
56.97
60.43
63.00
64.18
63.91
62.25
59.47
55.92
51.75
47.03
41.81
36.22
30.48
25.11
20.53
17.06
14.69
13.16
12.15
11.42
10.91
10.66
10.74
11.10
11.69
12.48
13.40
14.39
15.31
15.93
16.07
15.52
13.94
11.04
6.54
0.12
-8.36
-18.90
-31.31
-45.23
-60.15
-75.56
-90.72
-104.72
-116.84
-126.59
-134.07
-139.77
-144.26
-147.78
-150.07
-150.20
-146.94
-139.34
-126.83
-109.45
-87.78
-62.80
-35.89
-8.75
16.87
39.44
57.77
71.55
81.00
86.97
90.45
92.29
93.14
93.28
92.71
91.21
88.87
85.75
82.35
79.17
76.63
75.00
74.16
73.92
74.02
74.49
75.37
76.71
78.57
80.81
83.14
85.01
85.79
84.91
82.00
77.13
70.64
63.18
55.13
46.75
37.84
28.13
17.45
5.93
-5.97
-17.51
-27.87
-36.60
-43.38
-48.35
-51.80
-54.14
-55.82
-57.18
-58.50
-59.99
-61.76
-63.81
-66.00
-68.11
-70.04
-71.81
-73.69
-76.03
-79.04
-82.51
-85.77
-87.75
-87.28
-83.58
-76.40
-66.27
-54.15
-41.30
-28.94
-18.09
-9.55
-3.79
-0.80
-0.26
-1.50
-3.55
-5.51
-6.69
-6.70
-5.56
-3.52
-0.82
2.32
5.78
9.60
13.69
17.83
21.78
25.15
27.61
28.97
29.22
28.47
26.99
25.01
22.70
20.27
17.79
15.38
13.09
10.97
8.96
7.02
5.02
2.89
0.62
-1.77
-4.13
-6.37
-8.36
-9.96
-11.07
-11.66
-11.85
-11.97
-12.49
-13.90
-16.49
-20.30
-25.05
-30.26
-35.40
-40.12
-44.28
-47.99
-51.43
-55.00
-58.97
-63.30
-67.58
-70.90
-72.14
-70.29
-64.93
-56.29
-45.36
-33.25
-21.02
-9.39
1.20
10.40
18.08
24.21
29.13
33.39
37.49
41.44
44.75
47.00
48.67
51.43
57.45
68.30
83.66
101.13
117.20
128.64
134.15
134.34
131.03
125.85
119.43
111.47
101.58
90.10
78.17
67.43
59.02
53.06
48.68
44.57
39.71
33.75
27.14
20.54
14.58
9.33
4.47
-0.46
-5.61
-10.77
-15.53
-19.55
-22.93
-26.17
-29.94
-34.76
-40.84
-48.06
-55.98
-64.06
-71.65
-78.23
-83.39
-87.05
-89.58
-91.64
-93.90
-96.65
-99.55
-101.65
-101.63
-98.31
-90.91
-79.24
-63.73
-45.18
-24.85
-4.27
14.97
31.45
44.28
53.21
58.74
61.67
62.95
63.32
63.22
62.87
62.34
61.68
60.95
60.30
59.81
59.57
59.56
59.77
60.12
60.38
60.22
59.22
57.05
53.45
48.47
42.32
35.27
27.67
19.60
11.17
2.52
-5.98
-13.83
-20.47
-25.38
-28.45
-29.81
-29.91
-29.19
-28.14
-27.18
-26.57
-26.63
-27.49
-29.36
-32.27
-36.21
-40.93
-46.20
-51.66
-56.88
-61.53
-65.31
-68.14
-70.01
-71.14
-71.85
-72.45
-73.23
-74.12
-74.71
-74.20
-71.73
-66.59
-58.52
-47.88
-35.69
-23.27
-11.91
-2.67
3.97
7.98
9.59
9.27
7.47
4.71
1.58
-1.23
-3.21
-4.03
-3.65
-2.44
-0.88
0.63
1.92
3.06
4.25
5.53
6.78
7.69
7.89
7.19
5.52
3.21
0.78
-1.22
-2.38
-2.49
-1.70
-0.40
0.91
1.66
1.49
0.32
-1.58
-3.72
-5.46
-6.27
-6.02
-5.06
-4.11
-3.98
-5.09
-7.17
-9.33
-10.30
-8.75
-3.93
4.15
14.73
26.57
38.28
48.71
57.00
62.73
66.00
67.19
66.89
65.79
64.45
63.16
61.93
60.55
58.74
56.35
53.45
50.29
47.31
44.89
43.21
42.20
41.59
41.06
40.30
39.08
37.20
34.62
31.22
26.87
21.54
15.29
8.37
1.18
-5.69
-11.74
-16.46
-19.72
-21.64
-22.64
-23.25
-23.98
-25.14
-26.75
-28.65
-30.54
-32.23
-33.73
-35.20
-37.03
-39.72
-43.67
-48.98
-55.27
-61.66
-66.86
-69.32
-67.70
-61.21
-50.00
-35.16
-18.51
-2.11
12.19
23.20
30.46
34.16
34.94
33.59
30.91
27.68
24.59
22.33
21.31
21.74
23.49
26.22
29.46
32.78
35.86
38.51
40.79
42.79
44.74
46.71
48.75
50.71
52.26
53.14
53.14
52.39
51.23
50.20
49.71
49.96
50.77
51.90
53.38
55.43
58.44
62.52
67.33
72.13
75.91
77.74
77.08
73.74
67.83
59.61
49.54
38.26
26.43
14.59
3.15
-7.64
-17.53
-25.99
-32.37
-36.07
-37.01
-36.00
-34.31
-33.19
-33.10
-33.33
-32.10
-27.07
-16.34
0.82
23.59
49.94
77.10
102.54
124.47
142.25
156.37
167.79
177.62
186.62
195.07
202.53
208.06
210.51
209.01
203.43
194.49
183.66
172.47
161.91
151.67
140.31
125.92
106.79
82.47
53.87
23.08
-7.39
-35.46
-60.11
-81.52
-100.51
-117.66
-132.09
-141.42
-142.61
-134.04
-117.35
-97.71
-82.78
-79.75
-92.79
-121.42
-160.90
-204.17
-243.90
-274.16
-290.80
-291.72
-276.76
-247.94
-209.60
-167.92
-129.91
-101.58
-86.62
-85.29
-94.47
-108.63
-121.52
-128.08
-126.19
-117.35
-106.14
-98.42
-98.84
-108.76
-125.26
-141.81
-150.39
-144.10
-119.58
-77.99
-24.90
31.33
81.93
119.64
140.37
143.31
130.78
107.08
77.63
47.83
22.43
4.90
-3.23
-2.60
4.16
13.25
21.00
25.31
26.14
25.42
25.87
29.87
38.43
51.04
66.05
81.36
94.69
103.88
107.02
102.71
90.71
72.37
50.38
27.78
6.68
-12.82
-32.31
-53.92
-78.83
-106.23
-133.39
-156.90
-173.80
-182.42
-182.41
-174.28
-159.08
-138.34
-114.48
-90.72
-70.63
-56.99
-51.05
-52.19
-58.52
-67.88
-78.58
-89.75
-100.80
-110.84
-118.20
-120.74
-116.52
-104.84
-86.70
-64.58
-41.78
-21.27
-5.03
6.23
12.74
14.97
13.29
7.92
-0.43
-10.20
-18.65
-22.59
-19.39
-8.05
10.34
33.07
56.57
77.70
94.42
105.99
112.63
115.10
114.32
111.32
107.22
103.15
100.31
99.56
101.30
105.23
110.28
114.87
117.46
117.02
113.38
107.11
99.18
90.56
81.83
73.20
64.81
56.63
48.69
40.79
32.59
23.69
13.94
3.62
-6.59
-15.83
-23.28
-28.45
-31.07
-31.03
-28.18
-22.55
-14.40
-4.57
5.63
14.67
21.23
24.69
25.22
23.73
21.27
18.71
16.54
14.95
14.01
14.00
15.22
17.77
21.47
25.49
28.87
30.78
31.00
29.88
28.22
26.77
25.82
25.30
24.83
23.92
22.26
19.62
15.87
11.06
5.26
-1.23
-7.81
-13.73
-18.32
-21.20
-22.51
-22.75
-22.64
-22.88
-23.86
-25.54
-27.54
-29.17
-29.87
-29.53
-28.65
-28.27
-29.73
-34.10
-41.62
-51.41
-61.53
-69.32
-72.19
-68.32
-57.10
-39.37
-17.32
6.17
27.95
45.41
57.00
62.18
61.42
55.66
46.24
34.43
21.54
8.86
-2.34
-10.96
-16.25
-17.97
-16.39
-12.11
-5.97
1.38
9.42
17.81
26.20
34.11
40.86
45.68
47.87
46.88
42.79
36.17
28.15
20.10
13.16
7.97
4.44
1.74
-1.57
-7.05
-15.74
-27.91
-42.70
-58.38
-72.81
-84.00
-90.68
-92.54
-90.05
-84.11
-75.71
-65.71
-55.03
-44.66
-35.75
-29.38
-26.21
-26.12
-28.23
-31.10
-33.03
-32.69
-29.27
-22.70
-13.50
-2.54
9.24
20.68
30.61
37.97
41.87
41.87
38.15
31.43
22.96
14.41
7.35
3.03
2.09
4.34
8.94
14.69
20.36
25.12
28.65
31.08
32.76
34.06
35.04
35.57
35.60
35.09
34.25
33.30
32.46
32.04
32.24
33.07
34.38
35.92
37.24
37.82
37.15
34.96
31.23
26.28
20.42
14.10
7.67
1.56
-3.76
-7.96
-10.87
-12.66
-13.75
-14.74
-16.11
-18.10
-20.72
-23.73
-26.82
-29.75
-32.38
-34.57
-36.18
-37.04
-36.91
-35.63
-33.08
-29.22
-24.25
-18.70
-13.20
-8.55
-5.61
-4.91
-6.75
-10.88
-16.62
-23.04
-29.13
-33.82
-36.27
-35.94
-32.72
-27.21
-20.56
-14.09
-8.87
-5.56
-3.94
-3.49
-3.60
-3.86
-4.16
-4.62
-5.28
-6.03
-6.60
-6.63
-5.92
-4.41
-2.17
0.59
3.54
6.14
7.79
8.09
6.98
4.86
2.42
0.43
-0.55
-0.33
0.75
2.13
3.21
3.71
3.82
4.10
5.53
8.96
14.94
23.27
33.10
42.86
50.94
55.86
56.71
53.40
46.58
37.46
27.63
18.59
11.41
6.52
3.54
1.54
-0.52
-3.50
-7.58
-12.29
-16.57
-19.30
-19.60
-17.21
-12.55
-6.49
-0.23
5.17
8.86
10.43
9.69
6.58
1.31
-5.83
-14.21
-23.09
-31.29
-37.63
-41.09
-41.17
-38.04
-32.51
-25.88
-19.51
-14.68
-11.97
-11.42
-12.44
-13.90
-14.62
-13.38
-9.49
-2.76
6.16
16.11
25.48
32.67
36.55
36.48
32.73
26.22
18.46
11.11
5.65
3.12
3.81
7.41
12.93
19.24
25.24
30.19
33.83
36.31
38.14
39.74
41.55
43.68
45.99
47.95
48.74
47.68
44.38
39.02
32.04
24.14
15.58
6.24
-4.48
-17.10
-31.75
-47.97
-64.84
-81.52
-96.96
-110.24
-120.11
-125.12
-123.86
-115.68
-101.25
-82.59
-62.63
-44.01
-28.38
-15.84
-5.30
4.59
14.58
24.49
33.43
40.26
44.23
45.19
43.52
39.98
35.29
30.14
25.18
21.16
18.61
17.93
19.05
21.56
24.79
27.88
30.10
31.02
30.62
29.14
27.14
24.99
22.92
20.88
18.61
15.84
12.40
8.30
3.61
-1.34
-6.27
-10.91
-14.95
-18.19
-20.64
-22.52
-24.18
-25.96
-27.90
-29.88
-31.64
-33.00
-34.21
-35.74
-38.22
-41.87
-46.40
-50.92
-54.33
-55.50
-53.60
-48.36
-39.68
-27.98
-14.05
0.80
14.90
26.31
33.63
36.38
35.06
31.20
26.59
22.73
20.48
20.01
20.96
22.79
24.96
26.86
28.17
28.57
27.98
26.66
25.04
23.65
22.80
22.56
22.63
22.53
21.65
19.58
16.22
11.72
6.55
1.39
-3.06
-6.33
-8.21
-8.97
-9.12
-9.21
-9.69
-10.56
-11.43
-11.75
-11.08
-9.33
-6.90
-4.65
-3.59
-4.91
-9.28
-16.96
-27.14
-38.14
-47.42
-52.42
-51.43
-44.32
-32.75
-19.55
-7.65
1.05
6.09
8.32
9.13
9.78
11.08
13.32
16.34
19.72
22.74
24.62
24.69
22.89
20.06
17.79
17.89
21.61
29.06
39.03
49.65
58.89
65.33
68.07
66.95
62.16
54.21
44.07
32.92
22.18
13.19
6.74
2.72
0.35
-1.61
-4.24
-8.13
-13.10
-18.50
-23.41
-26.99
-28.79
-28.68
-26.85
-23.65
-19.63
-15.26
-11.06
-7.59
-5.11
-3.66
-3.02
-2.85
-2.90
-3.03
-3.35
-4.11
-5.65
-8.21
-11.76
-15.98
-20.28
-23.98
-26.42
-27.29
-26.74
-25.28
-23.58
-22.10
-20.78
-19.24
-17.00
-13.75
-9.68
-5.38
-1.51
1.65
4.16
6.45
8.79
10.91
12.17
11.62
8.80
3.98
-1.64
-6.29
-8.17
-6.06
0.40
10.72
23.64
37.59
50.77
61.55
68.62
71.23
69.32
63.54
54.94
44.66
33.88
23.44
13.88
5.33
-2.25
-9.06
-15.34
-21.24
-26.85
-31.94
-36.21
-39.31
-40.86
-40.55
-38.26
-34.15
-28.77
-23.13
-18.21
-14.96
-13.82
-14.60
-16.75
-19.71
-22.98
-26.23
-29.19
-31.30
-31.97
-30.52
-26.56
-20.18
-12.11
-3.37
4.96
11.98
17.22
20.61
22.40
23.09
23.17
22.88
22.38
21.54
20.17
18.28
16.07
13.96
12.68
12.77
14.47
17.59
21.37
24.76
26.79
26.76
24.44
20.10
14.28
7.69
1.07
-4.80
-9.31
-12.03
-12.83
-11.98
-10.02
-7.66
-5.58
-4.33
-4.09
-4.89
-6.36
-8.01
-9.30
-9.79
-9.33
-8.18
-6.88
-6.03
-6.06
-7.08
-9.00
-11.70
-15.05
-19.00
-23.46
-28.26
-33.07
-37.52
-41.10
-43.38
-44.14
-43.16
-40.25
-35.28
-28.25
-19.61
-10.34
-1.77
4.87
8.79
10.13
9.85
9.37
10.03
12.65
17.35
23.66
30.65
37.40
42.99
46.79
48.48
48.15
46.26
43.49
40.52
37.79
35.51
33.67
32.19
30.86
29.41
27.43
24.48
20.17
14.34
7.24
-0.48
-7.97
-14.46
-19.42
-22.71
-24.47
-24.97
-24.45
-23.12
-21.19
-18.82
-16.15
-13.55
-11.33
-9.89
-9.58
-10.54
-12.70
-15.75
-19.19
-22.58
-25.72
-28.70
-31.94
-35.80
-40.36
-45.37
-50.25
-54.34
-56.95
-57.43
-55.20
-49.79
-41.02
-29.10
-14.91
0.18
14.43
26.18
34.23
38.14
38.16
35.17
30.32
24.68
19.04
13.77
9.08
5.13
2.37
1.21
1.99
4.65
8.72
13.57
18.61
23.52
28.16
32.60
36.62
39.86
41.71
41.75
39.70
35.55
29.52
22.13
14.19
6.68
0.58
-3.66
-6.37
-8.40
-10.81
-14.10
-17.91
-21.22
-22.85
-22.09
-19.09
-14.87
-10.71
-7.88
-7.16
-8.85
-12.81
-18.35
-24.48
-29.83
-33.34
-34.31
-32.89
-29.85
-26.40
-23.63
-22.01
-21.43
-21.10
-20.02
-17.29
-12.55
-6.02
1.49
8.69
14.46
17.80
18.17
15.39
9.62
1.38
-8.57
-18.97
-28.55
-35.88
-40.03
-40.67
-38.20
-33.45
-27.31
-20.66
-14.21
-8.65
-4.48
-1.99
-0.99
-0.73
-0.24
1.62
5.55
11.81
20.03
29.52
39.39
48.74
56.76
62.55
65.53
65.24
61.61
54.96
46.01
35.88
25.91
17.61
11.98
9.37
9.19
10.17
10.82
10.12
7.92
4.76
1.74
-0.40
-1.46
-1.82
-2.11
-2.64
-3.19
-3.04
-1.41
2.45
8.63
16.69
25.70
34.50
42.10
47.69
50.83
51.51
50.11
47.22
43.62
40.02
36.91
34.68
33.43
33.01
33.14
33.55
33.86
33.86
33.57
33.07
32.58
32.22
31.86
31.15
29.80
27.74
25.30
23.32
22.52
23.19
24.76
25.64
23.59
16.18
1.74
-20.13
-48.22
-79.93
-111.70
-139.78
-161.00
-173.29
-176.02
-169.83
-156.31
-137.55
-115.67
-92.52
-69.59
-48.19
-29.40
-14.23
-3.39
2.99
5.42
5.09
3.60
2.56
3.15
5.89
10.65
16.73
23.26
29.27
34.01
36.76
37.25
35.50
31.81
26.83
21.36
16.36
12.71
11.12
11.78
14.44
18.47
22.91
26.86
29.54
30.72
30.43
29.12
27.11
24.66
21.95
18.95
15.61
11.77
7.42
2.55
-2.56
-7.35
-10.99
-12.49
-11.08
-6.45
0.84
9.53
17.77
23.79
26.31
24.93
20.12
12.96
4.76
-3.33
-10.51
-16.35
-20.55
-22.85
-23.01
-20.92
-16.86
-11.37
-5.19
1.08
7.15
13.30
20.03
27.80
36.68
46.17
55.48
63.57
69.50
72.58
72.42
68.91
62.26
53.03
42.05
30.33
18.82
8.14
-1.37
-9.57
-16.57
-22.59
-27.78
-32.16
-35.48
-37.01
-35.94
-31.59
-24.00
-14.08
-3.60
5.48
11.53
13.69
12.01
7.08
-0.26
-9.24
-19.23
-29.49
-39.10
-46.98
-52.17
-53.93
-52.21
-47.64
-41.40
-35.02
-29.71
-26.29
-24.92
-25.32
-27.04
-29.58
-32.63
-35.72
-38.43
-40.01
-39.78
-37.25
-32.39
-25.73
-18.20
-10.95
-4.71
0.11
3.68
6.33
8.31
9.66
10.06
9.16
6.67
2.82
-1.91
-6.62
-10.37
-12.39
-12.01
-9.07
-3.76
3.18
10.53
16.74
20.28
20.35
16.86
10.58
2.55
-6.22
-15.09
-23.62
-31.27
-37.19
-40.08
-38.87
-33.24
-24.07
-13.06
-2.17
7.14
14.39
19.87
24.37
28.47
32.30
35.55
37.73
38.46
37.66
35.61
32.67
29.34
25.96
22.87
20.30
18.44
17.35
16.94
17.04
17.27
17.22
16.51
14.89
12.39
9.39
6.46
4.22
3.33
4.13
6.64
10.54
15.16
19.74
23.54
26.05
26.88
25.95
23.29
18.93
12.85
5.00
-4.60
-15.72
-27.83
-40.33
-52.87
-65.36
-78.11
-91.38
-105.06
-118.47
-130.41
-139.39
-143.92
-143.02
-136.33
-124.10
-107.17
-86.94
-65.30
-44.30
-25.78
-10.90
-0.07
7.07
11.32
13.75
15.30
16.81
19.17
23.17
29.44
38.08
48.69
60.38
72.11
83.28
93.62
103.39
112.82
121.73
129.32
134.46
135.97
133.04
125.73
114.75
101.33
86.85
72.28
58.25
44.88
32.06
19.81
8.75
-0.13
-5.57
-6.80
-4.16
0.95
6.13
8.98
7.96
2.99
-4.73
-13.45
-21.69
-28.99
-35.79
-43.30
-52.96
-66.02
-83.25
-104.49
-127.89
-149.31
-162.97
-162.83
-145.22
-110.90
-65.32
-17.20
24.76
55.06
73.00
81.84
86.61
91.24
96.94
102.34
104.40
100.30
88.40
69.08
44.39
17.54
-7.69
-27.88
-40.45
-44.37
-40.26
-30.35
-17.92
-6.51
0.88
2.71
-0.87
-7.86
-15.08
-19.14
-17.50
-9.34
4.45
21.56
39.24
55.10
67.74
76.74
82.52
85.93
87.86
89.19
90.74
93.27
97.01
101.70
106.51
110.21
111.77
110.66
106.95
101.12
93.73
85.11
75.47
65.06
54.13
42.98
31.24
17.60
0.13
-22.80
-50.98
-81.78
-110.25
-130.93
-139.85
-136.14
-122.34
-102.97
-82.72
-64.58
-49.50
-36.88
-25.96
-16.45
-8.83
-3.93
-1.92
-2.32
-3.91
-5.36
-5.63
-4.35
-1.79
1.49
4.84
7.93
10.66
13.20
15.46
17.09
17.48
15.96
12.29
6.71
0.20
-6.06
-10.78
-13.05
-12.63
-9.96
-6.18
-2.52
-0.17
0.42
-0.67
-2.82
-5.33
-7.78
-10.19
-12.92
-16.33
-20.75
-26.24
-32.63
-39.51
-46.16
-51.66
-55.05
-55.91
-54.33
-51.32
-48.24
-46.47
-46.57
-48.28
-50.65
-52.50
-53.05
-52.09
-49.96
-47.20
-44.21
-40.99
-37.24
-32.73
-27.34
-21.32
-15.04
-9.02
-3.71
0.59
3.66
5.44
5.85
4.97
2.93
0.27
-2.30
-3.94
-3.95
-2.10
1.23
5.09
8.45
10.30
10.29
8.55
5.82
2.95
0.65
-0.70
-1.08
-0.67
0.23
1.36
2.50
3.56
4.50
5.34
6.16
7.11
8.23
9.46
10.55
11.11
10.65
8.80
5.31
0.26
-6.00
-12.96
-20.14
-27.16
-33.76
-39.80
-45.00
-49.04
-51.52
-52.18
-50.95
-47.97
-43.48
-37.67
-30.74
-22.80
-14.25
-5.67
2.10
8.13
11.55
11.80
8.68
2.39
-6.25
-16.11
-25.60
-33.17
-37.62
-38.37
-35.81
-30.94
-25.26
-20.16
-16.65
-15.06
-15.04
-15.62
-15.14
-11.74
-3.72
9.89
28.82
51.51
75.28
96.93
113.17
121.40
119.92
108.19
86.91
58.19
25.25
-7.81
-36.84
-58.66
-71.76
-76.76
-76.18
-73.43
-71.66
-72.40
-75.10
-77.33
-75.90
-68.22
-53.46
-32.95
-9.73
12.40
30.29
42.12
47.68
48.20
45.75
42.53
40.28
39.77
40.51
40.95
39.07
33.11
22.55
8.67
-5.74
-17.17
-22.69
-20.95
-12.50
0.59
15.68
30.47
43.41
53.85
61.57
66.44
68.30
67.19
63.59
58.32
52.44
46.70
41.34
36.02
30.11
23.04
14.70
5.67
-3.06
-10.18
-14.59
-15.82
-14.02
-10.23
-5.99
-2.85
-1.78
-2.90
-5.44
-8.24
-10.39
-11.43
-11.72
-12.00
-12.99
-14.96
-17.56
-19.98
-21.34
-21.28
-19.92
-18.15
-17.31
-18.56
-22.72
-29.70
-38.70
-48.35
-57.02
-63.00
-64.97
-62.42
-55.82
-46.95
-38.12
-31.62
-28.67
-28.67
-29.31
-27.37
-20.16
-6.53
12.24
33.24
52.84
67.82
76.35
78.06
73.65
64.33
51.57
36.73
21.37
7.25
-4.18
-11.76
-15.48
-16.24
-15.61
-15.26
-16.18
-18.40
-20.84
-22.10
-20.72
-16.24
-9.16
-0.72
7.31
13.44
16.69
16.73
13.71
8.17
0.77
-7.79
-16.56
-24.78
-31.78
-37.23
-41.13
-43.87
-45.78
-47.15
-48.10
-48.22
-47.07
-43.77
-37.52
-27.77
-14.62
0.96
17.14
31.64
42.50
48.35
49.05
45.47
39.07
31.58
24.54
19.06
15.88
15.24
16.89
20.12
23.91
27.06
28.72
28.53
26.67
23.91
21.15
19.10
18.27
18.57
19.50
20.36
20.39
19.01
16.18
12.35
8.23
4.80
2.65
1.87
2.12
2.72
3.08
3.00
2.64
2.27
2.20
2.37
2.42
1.89
0.32
-2.54
-6.57
-11.46
-16.74
-21.86
-26.41
-30.08
-32.71
-34.51
-35.76
-36.92
-38.31
-40.04
-41.76
-42.80
-42.26
-39.19
-33.14
-24.13
-12.90
-0.83
10.44
19.43
25.09
27.04
25.76
22.22
17.79
13.84
11.44
11.26
13.40
17.43
22.54
27.66
31.62
33.52
32.89
29.83
25.05
19.58
14.61
11.03
9.31
9.37
10.91
13.65
17.54
22.91
30.13
39.06
48.90
57.92
63.97
65.00
59.85
48.61
32.73
14.65
-2.84
-16.83
-25.02
-25.88
-19.37
-7.15
7.36
19.68
25.39
21.37
7.09
-15.22
-40.96
-64.63
-81.28
-87.94
-84.18
-72.05
-55.20
-37.54
-22.21
-10.59
-2.20
4.71
12.27
21.87
33.63
46.26
57.73
65.74
68.64
65.66
56.95
43.56
27.00
9.27
-7.53
-21.35
-30.55
-34.21
-32.37
-26.10
-17.08
-7.45
1.02
7.15
10.66
12.10
12.47
12.88
13.84
15.43
16.91
17.33
15.77
11.77
5.52
-2.15
-9.82
-16.02
-19.43
-19.56
-16.67
-11.94
-6.99
-3.30
-1.79
-2.48
-4.49
-6.50
-7.29
-6.10
-3.12
0.27
2.10
-0.03
-7.89
-21.76
-39.89
-58.45
-72.57
-77.59
-71.02
-53.22
-27.63
0.48
25.73
44.26
54.49
57.08
54.08
47.86
40.51
33.31
26.96
21.69
17.34
13.45
9.34
4.11
-2.87
-11.73
-21.77
-31.47
-38.66
-41.39
-38.39
-29.72
-16.95
-2.77
9.64
17.62
19.73
16.26
8.94
0.46
-6.50
-10.22
-10.30
-7.68
-4.13
-1.49
-0.86
-2.41
-5.13
-7.20
-6.74
-2.39
5.87
16.32
25.68
30.34
27.47
16.60
0.38
-16.16
-26.95
-26.95
-14.05
10.17
40.87
71.48
95.73
109.46
111.48
103.57
89.41
73.50
59.84
51.32
49.34
53.79
63.23
74.97
85.71
92.15
91.63
82.50
64.15
36.71
1.05
-40.70
-85.04
-126.76
-159.98
-179.89
-184.26
-174.45
-154.72
-130.67
-106.86
-85.81
-67.69
-51.33
-35.75
-21.00
-8.29
0.70
4.37
2.23
-5.31
-16.78
-30.13
-43.10
-53.65
-60.00
-60.83
-55.40
-43.42
-25.75
-4.17
18.35
37.99
50.86
54.03
46.49
29.67
7.20
-16.25
-36.25
-49.77
-55.95
-55.85
-51.78
-46.41
-41.88
-39.37
-39.07
-40.54
-42.83
-45.13
-46.55
-46.11
-42.66
-35.00
-22.20
-4.48
16.45
37.63
55.38
66.70
70.04
65.80
55.95
43.36
30.74
20.05
12.39
8.05
6.79
7.90
10.33
12.81
14.21
13.96
12.36
10.76
11.15
15.43
24.64
38.20
53.82
67.94
76.93
78.16
70.99
56.93
38.96
20.59
4.51
-7.95
-16.97
-23.41
-28.18
-31.57
-33.28
-32.76
-29.55
-23.59
-15.26
-5.33
5.44
16.12
25.57
32.59
35.90
34.61
28.60
18.68
6.27
-6.78
-18.92
-29.16
-37.10
-42.97
-47.29
-50.57
-53.10
-54.80
-55.17
-53.45
-48.89
-40.78
-28.98
-14.03
2.80
19.77
34.96
46.66
53.68
55.63
53.02
46.96
38.89
30.14
21.73
14.23
7.87
2.61
-1.59
-4.55
-6.03
-5.75
-3.67
-0.09
4.27
8.59
12.01
13.87
14.08
12.85
10.73
8.34
6.22
4.57
3.51
2.96
2.74
2.67
2.65
2.69
3.06
4.33
7.15
12.13
19.29
27.91
36.57
43.61
47.61
47.84
44.51
38.38
30.50
21.72
12.59
3.38
-5.94
-15.42
-24.96
-34.50
-43.87
-52.73
-60.62
-66.85
-70.40
-70.34
-65.86
-56.72
-43.42
-27.26
-10.08
6.07
19.31
28.40
32.69
32.37
28.08
20.96
12.23
3.22
-4.97
-11.79
-17.00
-20.72
-23.16
-24.60
-25.18
-24.89
-23.60
-21.23
-17.78
-13.43
-8.56
-3.62
0.93
4.66
7.37
9.14
10.12
10.58
10.58
10.14
9.07
7.31
4.81
1.62
-2.03
-5.85
-9.53
-12.64
-14.88
-16.07
-16.03
-14.81
-12.70
-10.00
-7.01
-3.97
-1.06
1.53
3.68
5.32
6.45
7.10
7.39
7.41
7.26
7.16
7.62
9.28
12.80
18.45
25.74
33.54
40.08
43.77
43.78
40.18
34.12
27.19
20.97
16.60
14.62
14.99
17.27
20.88
24.88
28.34
30.31
30.12
27.60
23.21
17.76
12.31
7.77
4.43
2.05
0.05
-2.31
-5.62
-9.82
-14.53
-19.03
-22.43
-24.21
-24.07
-22.14
-18.99
-15.42
-12.30
-10.47
-10.52
-12.52
-16.24
-21.08
-26.35
-31.52
-36.20
-40.18
-43.28
-45.14
-45.25
-43.27
-39.02
-32.82
-25.40
-17.66
-10.25
-3.50
2.76
8.76
14.48
19.61
23.54
25.70
25.91
24.65
22.83
21.57
21.76
23.89
28.04
34.11
41.69
50.12
58.46
65.40
69.65
70.44
67.96
63.41
58.44
54.30
50.91
46.75
39.52
27.33
9.99
-10.73
-31.78
-50.28
-64.49
-74.33
-80.78
-84.92
-87.15
-86.88
-83.21
-75.67
-64.96
-52.88
-41.91
-34.17
-30.88
-31.89
-35.98
-41.66
-47.88
-54.42
-61.59
-69.69
-77.95
-84.69
-87.73
-85.51
-77.89
-66.32
-52.96
-39.69
-27.69
-17.01
-7.45
1.15
8.56
14.49
18.97
22.72
26.68
31.36
36.61
41.36
44.27
44.27
41.35
36.52
31.49
27.95
26.63
27.31
28.88
30.09
30.30
29.69
29.21
29.78
31.78
34.61
37.19
38.42
37.73
35.48
32.62
30.24
29.22
30.00
32.52
36.55
41.53
46.75
51.47
54.81
56.21
55.44
52.63
48.15
42.58
36.37
29.72
22.70
15.02
6.25
-3.87
-15.31
-27.54
-39.49
-49.83
-57.37
-61.67
-63.17
-63.20
-63.30
-64.49
-66.80
-68.94
-68.89
-64.51
-54.65
-39.74
-21.86
-4.26
9.60
17.17
17.55
11.53
1.29
-10.60
-21.94
-31.17
-37.19
-39.23
-36.80
-30.10
-20.50
-10.31
-2.08
2.59
3.98
4.09
5.85
11.40
21.42
35.00
50.55
66.47
81.61
94.86
104.77
109.61
108.08
100.32
88.11
74.46
62.33
53.51
48.16
45.24
43.37
41.59
39.69
37.73
35.83
33.79
31.21
27.78
23.35
17.91
11.45
3.93
-4.66
-14.22
-24.35
-34.55
-44.47
-54.08
-63.48
-72.86
-82.13
-90.71
-97.76
-102.22
-103.25
-100.35
-93.51
-83.17
-70.13
-55.46
-40.36
-25.85
-12.67
-1.12
8.93
17.78
25.75
32.82
38.58
42.21
43.05
40.78
35.69
28.57
20.43
12.09
3.98
-3.68
-10.55
-15.78
-18.15
-16.52
-10.73
-1.87
7.85
16.00
20.84
21.99
20.48
18.02
16.57
17.44
21.07
26.96
33.71
39.27
41.31
37.97
28.71
14.82
-0.83
-14.72
-24.07
-27.85
-27.02
-23.93
-21.05
-19.85
-20.41
-21.81
-22.92
-23.23
-22.98
-22.80
-23.15
-23.89
-24.43
-24.07
-22.45
-19.82
-16.68
-13.60
-10.78
-7.89
-4.22
1.03
8.43
18.17
29.86
42.55
54.85
65.33
72.92
77.09
78.07
76.52
73.22
68.88
63.93
58.73
53.77
49.59
46.56
44.66
43.34
41.64
38.78
34.54
29.41
24.26
19.96
16.71
14.06
11.16
7.29
2.18
-3.88
-10.35
-16.81
-23.16
-29.50
-35.76
-41.52
-45.97
-48.00
-46.84
-42.13
-34.24
-24.18
-13.37
-3.51
3.73
6.93
5.40
-0.71
-10.36
-21.61
-32.31
-40.60
-45.49
-46.93
-45.63
-42.58
-38.62
-34.24
-29.55
-24.52
-19.15
-13.67
-8.35
-3.53
0.48
3.44
5.35
6.42
7.04
7.77
9.03
11.10
13.69
16.08
17.26
16.21
12.18
4.95
-5.09
-16.82
-28.61
-38.56
-45.01
-46.86
-44.06
-37.77
-29.88
-22.45
-16.94
-13.83
-12.59
-12.25
-11.73
-10.45
-8.30
-5.35
-1.54
3.09
8.40
13.92
18.74
21.96
22.92
21.44
17.95
13.24
8.00
2.72
-2.31
-7.16
-11.80
-16.16
-20.18
-23.60
-26.27
-27.97
-28.41
-27.20
-23.99
-18.47
-10.51
-0.46
10.92
22.33
32.25
39.24
42.51
41.95
38.36
33.05
27.59
23.58
22.06
23.46
27.65
33.85
40.90
47.62
52.89
55.95
56.65
55.23
52.21
48.24
43.84
39.29
34.53
29.23
22.93
15.55
7.50
-0.33
-6.95
-11.63
-14.23
-15.24
-15.32
-15.11
-14.89
-14.72
-14.64
-14.92
-16.06
-18.57
-22.69
-28.22
-34.60
-41.07
-47.00
-51.79
-55.14
-56.81
-56.71
-54.86
-51.50
-47.05
-42.17
-37.66
-34.16
-32.04
-31.15
-30.82
-29.97
-27.42
-22.30
-14.31
-4.09
6.96
16.98
24.07
27.00
25.54
20.50
13.48
6.39
0.85
-2.27
-2.92
-1.79
0.13
1.84
2.79
2.88
2.27
1.40
0.59
0.01
-0.23
-0.09
0.52
1.62
3.20
5.13
7.16
9.04
10.59
11.80
12.96
14.42
16.56
19.72
23.96
28.98
34.06
38.13
39.79
37.78
31.36
20.57
6.56
-8.62
-22.50
-33.02
-38.89
-40.03
-37.18
-31.49
-23.96
-15.16
-5.33
5.39
16.38
26.52
34.23
38.06
37.21
31.91
23.33
13.22
3.42
-4.65
-10.36
-13.86
-15.71
-16.61
-17.03
-17.02
-16.42
-14.90
-12.26
-8.59
-4.32
-0.07
3.49
5.84
6.82
6.40
5.01
3.42
2.71
4.07
8.28
15.41
24.52
33.88
41.46
45.66
45.65
41.61
34.46
25.49
15.85
6.62
-1.35
-7.47
-11.28
-12.64
-11.76
-8.97
-4.91
-0.23
4.49
8.74
12.35
15.38
18.03
20.30
22.02
22.58
21.10
16.79
9.18
-1.51
-14.53
-28.67
-42.53
-54.69
-63.81
-68.88
-69.13
-64.41
-55.09
-42.12
-26.93
-11.19
3.40
15.32
23.51
27.37
26.82
22.39
15.06
6.16
-2.94
-11.17
-17.89
-23.04
-26.86
-29.80
-32.23
-34.25
-35.76
-36.52
-36.46
-35.55
-34.02
-32.21
-30.56
-29.47
-29.12
-29.67
-31.01
-33.06
-35.58
-38.33
-41.09
-43.56
-45.41
-46.35
-46.21
-44.98
-42.90
-40.33
-37.61
-34.93
-32.12
-28.71
-24.12
-18.09
-10.75
-2.82
4.58
10.29
13.30
13.30
10.64
6.29
1.55
-2.19
-3.81
-2.63
1.39
7.57
14.72
21.34
26.09
28.37
28.59
28.17
29.04
32.89
40.41
50.70
61.51
69.92
73.41
70.76
62.28
49.75
35.67
22.59
12.57
6.97
6.25
10.06
17.07
25.06
31.55
34.64
33.59
29.20
23.30
17.64
12.85
8.17
1.58
-9.02
-24.54
-44.25
-65.78
-85.75
-100.61
-107.84
-106.12
-95.88
-78.77
-57.31
-34.30
-12.08
7.75
24.62
38.59
50.26
60.18
68.84
76.32
82.17
85.57
85.41
80.78
71.54
58.82
44.70
31.80
22.25
16.67
14.46
13.89
13.25
11.54
8.79
5.57
2.40
-0.46
-3.32
-6.06
-8.19
-8.64
-6.44
-1.45
5.22
11.55
15.41
15.30
11.11
3.99
-3.93
-10.26
-13.26
-12.37
-8.36
-3.21
0.58
1.17
-2.03
-8.00
-14.50
-19.01
-19.36
-14.53
-4.97
6.96
17.05
19.83
10.41
-13.43
-49.63
-92.03
-132.54
-164.19
-183.54
-191.27
-190.82
-185.99
-179.44
-172.35
-165.27
-158.83
-153.70
-149.88
-146.12
-140.33
-130.53
-116.14
-98.57
-80.87
-66.28
-56.89
-52.77
-51.90
-50.95
-46.47
-36.01
-18.85
3.77
29.35
55.27
79.70
101.91
122.26
141.25
159.07
175.50
190.15
202.87
213.84
223.21
230.45
234.23
232.77
224.78
210.40
191.47
171.01
152.05
136.50
124.67
115.41
106.94
97.52
86.03
72.19
56.47
39.98
24.00
9.83
-1.63
-9.96
-15.09
-17.06
-16.06
-12.44
-6.99
-1.20
3.15
4.46
1.87
-4.23
-12.41
-20.74
-27.42
-31.34
-32.36
-30.99
-28.14
-24.82
-21.66
-18.88
-16.32
-13.72
-10.96
-8.10
-5.32
-2.75
-0.28
2.44
5.88
10.17
15.12
20.07
24.29
27.24
28.68
28.86
28.25
27.30
26.17
24.84
23.03
20.54
17.47
14.12
10.97
8.33
6.15
4.01
1.41
-1.98
-6.10
-10.53
-14.80
-18.45
-21.46
-24.01
-26.37
-28.97
-32.09
-36.03
-40.87
-46.47
-52.25
-57.52
-61.41
-63.07
-62.19
-58.74
-53.06
-45.73
-37.43
-28.84
-20.70
-13.69
-8.23
-4.56
-2.47
-1.50
-1.12
-0.92
-0.78
-0.74
-0.82
-0.97
-1.14
-1.10
-0.89
-0.61
-0.39
-0.38
-0.59
-0.92
-1.24
-1.61
-2.00
-2.60
-3.58
-5.00
-6.84
-8.82
-10.62
-11.86
-12.39
-12.19
-11.55
-10.74
-10.05
-9.56
-9.10
-8.60
-7.99
-7.41
-7.10
-7.38
-8.30
-9.69
-11.32
-12.75
-13.84
-14.64
-15.46
-16.67
-18.66
-21.55
-25.17
-29.17
-32.78
-35.14
-35.45
-33.04
-27.68
-19.65
-9.95
0.09
8.71
14.54
16.69
15.14
10.74
4.90
-0.76
-4.90
-6.59
-5.52
-1.80
3.94
10.69
17.27
22.38
25.06
25.04
22.88
19.82
17.29
16.31
17.13
19.26
21.64
23.12
22.87
20.60
16.48
11.13
5.36
0.02
-4.09
-6.50
-7.19
-6.54
-5.22
-3.95
-3.16
-2.83
-2.60
-2.10
-1.18
-0.23
0.02
-1.16
-4.03
-8.14
-12.45
-15.70
-17.22
-16.97
-15.63
-14.17
-13.33
-13.54
-14.97
-17.56
-21.30
-25.95
-30.77
-34.44
-35.36
-32.18
-24.60
-13.49
-0.72
11.57
21.66
28.60
32.13
32.23
28.92
22.16
12.55
1.58
-8.46
-15.02
-16.19
-11.68
-2.84
7.97
18.08
25.68
29.96
30.91
28.92
24.43
17.96
10.30
2.77
-3.18
-6.30
-6.12
-3.33
0.75
4.58
7.00
7.64
6.73
4.84
2.54
0.24
-1.83
-3.37
-4.22
-4.26
-3.45
-2.08
-0.73
-0.01
-0.47
-2.34
-5.34
-8.85
-12.08
-14.42
-15.65
-16.15
-16.59
-17.79
-20.27
-24.07
-28.77
-33.58
-37.42
-39.16
-37.82
-32.71
-23.90
-12.13
1.17
14.13
24.89
32.05
34.96
33.75
29.33
22.92
15.99
9.98
5.95
4.37
5.14
7.52
10.55
13.33
15.29
16.33
16.74
16.92
17.22
17.75
18.43
18.98
19.14
18.65
17.39
15.31
12.49
9.19
5.74
2.49
-0.37
-2.77
-4.75
-6.38
-7.73
-8.84
-9.70
-10.50
-11.49
-12.97
-15.03
-17.60
-20.31
-22.73
-24.52
-25.53
-25.92
-26.00
-26.25
-27.16
-29.08
-32.03
-35.54
-38.73
-40.39
-39.45
-35.12
-27.31
-16.75
-4.74
7.06
17.13
24.29
28.02
28.46
26.33
22.71
18.74
15.53
13.89
14.23
16.70
20.90
26.26
31.91
37.10
41.05
43.41
44.11
43.35
41.56
39.13
36.32
33.20
29.82
26.06
21.86
17.35
12.68
8.32
4.67
2.10
0.77
0.65
1.37
2.39
3.21
3.35
2.67
1.11
-1.15
-3.86
-6.81
-9.82
-12.86
-15.91
-19.12
-22.44
-25.87
-29.29
-32.49
-35.36
-37.78
-39.66
-40.90
-41.56
-41.81
-41.89
-42.17
-42.70
-43.23
-42.99
-40.94
-36.13
-28.13
-17.35
-4.94
7.52
18.56
27.09
32.65
35.27
35.37
33.60
30.70
27.55
24.83
23.00
22.21
22.22
22.67
23.13
23.29
22.97
22.14
20.87
19.28
17.63
16.24
15.33
15.02
15.22
15.65
16.00
16.08
15.76
15.03
13.93
12.45
10.61
8.44
6.02
3.50
1.09
-1.09
-2.90
-4.37
-5.59
-6.75
-8.14
-9.88
-12.00
-14.30
-16.56
-18.56
-20.15
-21.45
-22.64
-23.91
-25.30
-26.66
-27.71
-28.20
-27.89
-26.85
-25.32
-23.65
-22.17
-20.96
-19.86
-18.46
-16.17
-12.41
-6.92
0.13
8.15
15.97
22.26
25.76
25.73
22.08
15.49
7.29
-0.97
-7.65
-11.62
-12.34
-10.02
-5.36
0.60
6.87
12.77
17.89
22.08
25.13
26.99
27.55
26.97
25.61
23.96
22.42
21.08
19.82
18.23
16.19
13.70
11.12
9.00
7.77
7.49
7.84
8.37
8.53
8.08
7.01
5.50
3.74
1.78
-0.40
-2.92
-5.76
-8.90
-12.29
-15.92
-19.75
-23.63
-27.37
-30.59
-32.91
-34.14
-34.38
-33.82
-32.62
-30.58
-27.11
-21.57
-13.61
-3.63
7.21
17.16
24.60
28.42
28.38
25.11
19.75
13.59
7.84
3.45
0.95
0.52
2.09
5.28
9.59
14.38
19.10
23.25
26.60
29.05
30.71
31.71
32.22
32.25
31.68
30.32
27.99
24.67
20.54
15.88
11.08
6.47
2.21
-1.65
-5.04
-7.97
-10.39
-12.22
-13.44
-14.04
-14.04
-13.45
-12.31
-10.82
-9.32
-8.33
-8.31
-9.62
-12.31
-16.19
-20.74
-25.39
-29.61
-33.07
-35.68
-37.62
-39.15
-40.54
-41.85
-42.87
-42.99
-41.50
-37.70
-31.32
-22.58
-12.27
-1.55
8.28
16.11
21.27
23.55
23.36
21.32
18.31
15.21
12.73
11.31
11.22
12.40
14.58
17.39
20.28
22.81
24.70
25.89
26.56
27.07
27.66
28.38
29.17
29.74
29.80
29.10
27.41
24.78
21.43
17.62
13.66
9.86
6.47
3.73
1.71
0.31
-0.55
-1.08
-1.59
-2.32
-3.42
-4.96
-6.73
-8.53
-10.15
-11.38
-12.20
-12.76
-13.32
-14.05
-15.20
-16.79
-18.83
-21.43
-24.62
-28.45
-32.79
-37.40
-42.00
-46.31
-50.04
-52.75
-53.80
-52.33
-47.58
-39.14
-27.39
-13.57
0.62
13.54
23.98
31.51
36.25
38.54
38.84
37.46
34.79
31.33
27.72
24.76
23.18
23.52
25.97
30.38
36.27
42.92
49.47
55.11
59.16
61.22
61.03
58.43
53.28
45.51
35.14
22.60
8.65
-5.51
-18.56
-29.25
-36.71
-40.60
-41.16
-39.06
-35.08
-30.04
-24.63
-19.52
-15.26
-12.37
-11.05
-11.19
-12.25
-13.54
-14.49
-14.88
-15.02
-15.53
-17.11
-20.12
-24.41
-29.34
-33.97
-37.32
-38.67
-37.70
-34.68
-30.31
-25.61
-21.58
-19.01
-18.14
-18.76
-20.01
-20.64
-19.36
-15.13
-7.57
2.76
14.50
25.88
35.09
40.82
42.61
40.83
36.49
30.82
24.98
19.98
16.51
14.99
15.50
17.77
21.20
24.98
28.18
30.04
30.21
28.87
26.60
24.17
22.28
21.11
20.50
19.87
18.48
15.72
11.35
5.57
-1.06
-7.66
-13.43
-17.69
-20.09
-20.67
-19.66
-17.42
-14.34
-10.80
-7.18
-3.95
-1.54
-0.25
-0.22
-1.26
-3.03
-5.17
-7.35
-9.48
-11.81
-14.57
-18.03
-22.35
-27.43
-33.00
-38.56
-43.41
-46.76
-47.79
-45.81
-40.57
-32.37
-22.16
-11.27
-1.17
6.91
12.18
14.40
13.96
11.56
8.14
4.66
2.03
0.86
1.50
3.83
7.34
11.38
15.09
17.83
19.24
19.28
18.19
16.46
14.64
13.14
12.26
11.85
11.73
11.49
10.84
9.75
8.38
7.13
6.30
6.05
6.30
6.90
7.55
8.07
8.35
8.43
8.42
8.35
8.27
8.07
7.57
6.55
4.93
2.83
0.48
-1.75
-3.69
-5.32
-6.83
-8.45
-10.37
-12.79
-15.80
-19.72
-24.70
-30.77
-37.64
-44.75
-51.33
-56.83
-60.84
-63.07
-63.24
-60.89
-55.43
-46.39
-33.81
-18.40
-1.66
14.50
28.21
38.07
43.55
44.95
43.24
39.75
35.74
32.15
29.55
28.04
27.47
