1564506374.00
64.000000
-0.00
-0.00
-0.00
-0.00
-0.00
-0.00
-0.00
-0.00
-0.00
-0.00
0.00
0.01
0.01
-0.00
-0.03
-0.05
-0.05
0.00
0.13
0.36
0.66
1.01
1.37
1.72
2.06
2.40
2.79
3.24
3.80
4.43
5.09
5.73
6.32
6.89
7.48
8.18
9.06
10.21
11.54
12.93
14.26
15.45
16.54
17.72
19.19
21.09
23.64
26.64
29.80
32.87
35.72
38.47
41.47
45.15
49.78
55.68
62.48
69.66
76.69
83.32
89.69
96.33
103.94
112.96
123.88
136.14
148.96
161.54
173.47
184.89
196.49
209.55
222.63
237.82
255.61
276.12
298.37
319.73
336.16
343.10
336.98
316.48
283.53
241.70
195.44
148.49
103.12
60.13
19.39
-19.50
-56.99
-93.11
-128.03
-161.59
-193.19
-222.05
-247.98
-271.73
-294.94
-319.29
-345.00
-370.48
-392.71
-408.79
-416.95
-417.01
-409.33
-393.86
-369.88
-337.03
-297.28
-255.71
-219.36
-194.24
-182.14
-179.38
-178.43
-171.75
-156.01
-133.55
-110.69
-93.78
-85.33
-82.51
-79.03
-69.31
-51.94
-30.75
-12.55
-2.93
-2.74
-7.32
-9.19
-2.57
13.04
32.55
48.25
54.47
51.07
43.51
39.31
43.21
54.10
65.24
68.41
58.83
38.43
14.96
-2.11
-6.91
-0.37
10.60
17.38
14.73
3.66
-9.18
-15.51
-10.25
5.71
25.88
41.86
47.89
43.79
34.79
28.37
29.80
39.10
51.13
58.68
56.82
45.80
30.94
19.31
15.42
18.52
23.09
22.47
13.22
-2.51
-17.84
-25.28
-21.25
-8.25
6.34
14.65
12.89
3.54
-6.24
-8.85
-0.99
14.48
29.99
37.76
34.34
22.70
10.39
5.02
9.51
20.29
29.13
28.09
14.40
-7.47
-27.91
-37.24
-31.11
-13.05
7.29
19.52
17.99
4.79
-11.82
-22.25
-20.99
-9.67
4.24
11.75
7.68
-6.46
-23.58
-35.09
-35.88
-26.69
-13.37
-2.87
0.66
-1.80
-5.37
-4.72
2.25
13.05
22.00
23.69
16.60
4.17
-7.14
-11.83
-8.78
-2.12
1.19
-4.17
-18.42
-35.93
-48.48
-50.00
-40.20
-25.13
-13.48
-11.60
-19.84
-32.47
-40.94
-39.04
-26.30
-8.08
7.62
14.77
12.76
6.42
3.15
8.39
22.22
39.31
52.18
55.48
49.26
38.78
31.19
30.81
36.39
41.64
39.25
25.63
3.64
-18.33
-30.96
-29.24
-15.24
2.49
13.52
11.29
-3.27
-22.30
-35.07
-34.02
-18.83
3.51
22.70
30.92
27.10
16.98
9.42
10.92
21.86
36.53
46.96
47.88
39.78
28.31
20.49
20.11
25.35
29.72
26.30
12.08
-9.80
-31.17
-43.34
-41.93
-29.29
-13.13
-2.09
-0.73
-7.15
-14.51
-15.49
-6.97
7.97
21.94
27.59
22.09
8.46
-6.36
-15.79
-17.42
-14.15
-12.05
-16.46
-28.64
-44.86
-58.41
-63.29
-57.53
-44.47
-30.85
-23.14
-24.07
-31.26
-39.06
-42.13
-38.83
-32.24
-28.25
-31.87
-44.01
-60.86
-75.96
-83.80
-82.93
-76.55
-70.69
-71.18
-80.82
-98.65
-120.91
-143.00
-161.16
-173.60
-180.08
-181.06
-176.68
-166.33
-149.01
-124.05
-91.85
-54.23
-14.12
25.28
61.26
92.31
118.12
139.17
156.14
169.45
179.19
185.26
187.73
187.01
183.94
179.47
174.33
168.74
162.40
154.63
144.75
132.58
118.35
102.91
87.49
73.50
62.26
54.74
51.59
53.12
59.24
69.39
82.74
98.19
114.56
130.66
145.36
157.76
167.14
172.98
174.90
172.74
166.42
156.10
142.36
125.53
106.18
85.02
62.85
40.36
18.32
-2.67
-22.16
-39.81
-55.51
-69.12
-80.56
-89.93
-97.64
-104.05
-109.60
-114.61
-118.98
-122.31
-123.74
-122.36
-117.72
-110.28
-101.00
-91.54
-83.65
-78.40
-75.99
-75.42
-75.00
-73.03
-68.79
-62.06
-53.59
-44.52
-34.15
-21.50
-5.37
15.26
41.65
70.15
97.59
119.38
130.02
124.26
98.09
50.35
-16.04
-93.64
-172.43
-242.11
-293.38
-322.87
-333.69
-333.28
-329.33
-326.31
-324.06
-320.24
-312.37
-300.20
-285.56
-270.65
-255.57
-237.60
-214.26
-180.81
-133.43
-69.90
9.58
102.08
201.71
300.31
387.70
453.61
491.48
500.19
484.47
452.53
414.48
375.80
338.13
301.15
264.87
231.09
202.46
181.28
168.28
162.41
161.21
162.69
165.60
170.03
177.00
187.15
200.12
214.25
226.73
234.00
233.08
222.27
201.61
172.92
139.19
103.57
68.45
34.92
2.42
-30.39
-65.04
-102.67
-143.92
-188.89
-236.64
-284.54
-327.91
-360.64
-376.92
-373.73
-352.65
-319.91
-284.16
-252.89
-229.68
-213.41
-199.94
-184.98
-166.52
-145.51
-124.77
-107.06
-93.57
-83.62
-75.43
-67.19
-57.78
-46.88
-34.95
-23.01
-12.50
-5.03
-1.60
-1.99
-4.52
-6.83
-6.96
-4.35
0.12
4.76
8.19
10.09
11.06
11.75
12.02
10.97
7.86
3.04
-1.62
-3.53
-0.93
5.99
14.96
22.69
26.35
24.66
18.21
9.00
-0.69
-9.07
-15.23
-19.05
-20.86
-21.14
-20.60
-20.21
-20.94
-23.80
-29.10
-36.03
-42.45
-45.53
-42.51
-32.00
-14.58
7.25
29.49
47.80
58.72
60.67
54.69
44.25
34.24
29.59
34.97
52.41
80.71
115.24
148.88
173.55
184.83
182.65
170.79
155.26
141.81
133.87
130.87
128.74
121.60
104.30
74.78
35.02
-10.22
-56.01
-99.05
-137.97
-172.31
-200.92
-221.94
-233.58
-235.09
-227.30
-212.42
-193.40
-172.71
-153.42
-135.43
-117.45
-98.23
-77.31
-55.30
-33.60
-13.74
3.34
17.70
30.62
43.80
58.60
75.60
94.28
113.25
130.47
143.88
151.65
152.68
146.34
132.50
111.39
83.43
49.63
11.64
-28.19
-66.94
-101.81
-130.33
-150.43
-160.62
-160.09
-148.32
-125.81
-93.92
-54.87
-11.42
33.32
76.15
114.13
144.84
166.69
178.90
181.74
176.39
164.94
150.01
134.48
121.18
112.54
110.26
115.04
126.73
144.34
166.22
190.14
213.58
233.91
248.54
255.13
251.64
236.53
208.60
167.49
113.77
48.89
-24.69
-103.91
-185.36
-265.54
-341.09
-409.05
-466.94
-512.97
-546.68
-567.98
-577.11
-574.66
-561.60
-539.24
-509.33
-473.90
-435.05
-394.79
-354.67
-315.67
-278.05
-241.71
-206.40
-172.03
-138.79
-107.17
-77.74
-50.72
-25.88
-2.47
20.46
43.66
67.34
91.06
113.91
134.97
153.85
170.83
186.79
202.80
219.89
238.91
260.48
284.82
311.19
337.46
359.94
374.18
376.50
365.60
343.36
314.29
283.61
255.30
230.82
209.33
189.07
168.92
149.22
131.42
116.88
105.78
96.86
88.09
77.87
65.99
53.82
43.57
36.95
34.19
33.72
32.99
29.83
23.60
15.63
8.45
4.33
4.06
6.41
8.86
8.95
5.73
0.16
-5.47
-8.94
-9.40
-7.77
-6.13
-6.37
-9.02
-12.99
-16.24
-17.14
-15.49
-12.75
-11.19
-12.55
-16.95
-22.75
-27.48
-29.19
-27.51
-23.88
-20.57
-19.36
-20.56
-22.91
-24.47
-23.84
-21.10
-17.72
-15.57
-15.80
-17.98
-20.30
-20.58
-17.60
-11.84
-5.32
-0.42
1.32
0.17
-2.09
-3.17
-1.67
2.13
6.42
8.86
8.03
4.21
-0.71
-4.28
-4.83
-2.43
1.27
3.99
4.18
1.93
-1.17
-3.04
-2.44
0.18
2.87
3.36
0.43
-5.28
-11.56
-15.95
-17.07
-15.40
-12.90
-11.79
-13.25
-16.73
-20.37
-22.07
-20.71
-16.78
-11.97
-8.22
-6.55
-6.59
-6.82
-5.63
-2.24
2.65
7.29
9.80
9.35
6.66
3.61
2.12
2.97
5.27
6.90
5.77
1.16
-5.76
-12.44
-16.39
-16.52
-13.74
-10.41
-8.94
-10.41
-13.92
-17.20
-17.87
-14.85
-8.99
-2.61
1.86
3.19
1.96
0.18
-0.07
2.19
6.21
10.06
11.80
10.63
7.37
3.85
1.77
1.55
2.23
2.01
-0.46
-5.14
-10.48
-14.22
-14.66
-11.57
-6.37
-1.27
1.86
2.41
1.13
-0.46
-1.07
-0.40
0.80
1.21
-0.10
-2.93
-6.03
-7.53
-6.11
-1.75
4.10
9.16
11.45
10.36
6.87
3.01
0.62
0.28
1.08
1.23
-0.67
-4.63
-9.13
-11.94
-11.48
-7.71
-2.29
2.43
4.66
4.25
2.58
1.72
3.06
6.35
9.82
11.20
9.03
3.65
-2.96
-8.21
-10.29
-9.13
-6.30
-3.96
-3.61
-5.14
-6.97
-7.14
-4.51
0.38
5.59
8.75
8.49
5.05
0.19
-3.83
-5.52
-4.89
-3.38
-2.90
-4.69
-8.42
-12.36
-14.27
-12.71
-7.92
-1.72
3.43
5.82
5.31
3.35
1.93
2.42
4.70
7.34
8.54
7.24
3.80
-0.29
-3.29
-4.20
-3.32
-1.96
-1.69
-3.34
-6.50
-9.75
-11.47
-10.75
-8.01
-4.75
-2.64
-2.54
-3.88
-5.00
-4.12
-0.51
4.92
10.02
12.49
11.30
7.21
2.37
-0.92
-1.60
-0.33
0.91
0.08
-3.59
-9.02
-13.88
-15.83
-13.85
-8.84
-3.13
0.92
2.12
1.11
-0.16
0.23
3.06
7.37
11.03
11.98
9.44
4.33
-1.16
-4.81
-5.48
-3.72
-1.21
0.20
-0.31
-2.10
-3.49
-2.79
0.52
5.45
9.94
12.01
10.93
7.66
4.25
2.56
3.15
4.88
5.67
3.87
-0.64
-6.28
-10.57
-11.65
-9.28
-4.98
-1.09
0.55
-0.30
-2.33
-3.51
-2.41
0.92
4.92
7.47
7.06
3.68
-1.18
-5.38
-7.31
-6.78
-5.06
-4.11
-5.28
-8.50
-12.20
-14.19
-12.88
-8.26
-1.89
3.87
7.21
7.71
6.55
5.62
6.35
8.79
11.58
12.81
11.25
7.16
2.21
-1.44
-2.45
-1.11
0.80
1.12
-1.38
-6.20
-11.32
-14.39
-14.12
-11.08
-7.36
-5.38
-6.37
-9.70
-13.16
-14.27
-11.79
-6.39
-0.34
3.88
5.00
3.65
1.94
2.08
5.08
10.12
15.04
17.63
16.93
13.71
10.00
7.85
8.18
10.28
12.25
12.18
9.32
4.42
-0.63
-3.93
-4.64
-3.48
-2.26
-2.86
-6.04
-10.91
-15.34
-17.12
-15.22
-10.43
-5.00
-1.30
-0.60
-2.30
-4.29
-4.29
-1.25
4.01
9.23
12.06
11.38
7.93
3.76
0.95
0.31
1.01
1.19
-0.73
-4.93
-9.89
-13.13
-12.63
-7.97
-0.75
6.23
10.32
10.45
7.60
4.19
2.59
3.76
6.74
9.33
9.52
6.80
2.47
-1.20
-2.30
-0.53
2.70
5.12
5.00
2.18
-1.96
-5.33
-6.44
-5.19
-2.93
-1.51
-2.30
-5.27
-9.03
-11.60
-11.49
-8.64
-4.52
-1.36
-0.90
-3.38
-7.33
-10.28
-10.12
-6.27
0.00
6.26
10.15
10.72
8.76
6.14
4.70
5.06
6.42
7.12
5.75
2.10
-2.71
-6.90
-9.10
-9.13
-8.07
-7.49
-8.47
-10.89
-13.54
-14.86
-13.94
-11.11
-7.77
-5.64
-5.75
-7.82
-10.43
-11.79
-10.81
-7.73
-4.11
-1.91
-2.40
-5.39
-9.21
-11.71
-11.43
-8.61
-5.16
-3.57
-5.49
-10.62
-16.83
-21.32
-22.31
-20.18
-17.43
-17.38
-22.31
-31.94
-43.03
-50.43
-49.12
-36.39
-13.50
14.74
41.39
60.19
67.76
64.72
54.50
40.74
25.12
6.97
-15.03
-40.71
-67.18
-90.10
-106.00
-114.19
-116.76
-116.48
-114.04
-106.79
-90.35
-62.23
-25.12
12.75
41.31
54.17
52.97
47.05
48.53
65.30
96.38
132.24
159.82
169.59
159.81
136.32
107.57
79.65
53.96
28.62
2.03
-24.40
-46.41
-59.10
-59.34
-47.17
-25.57
0.49
24.94
41.83
46.95
39.83
24.66
9.30
1.77
6.07
19.71
34.52
40.79
32.32
9.52
-21.02
-49.73
-68.44
-73.32
-65.24
-48.17
-26.80
-4.95
14.78
30.52
40.53
43.27
38.06
25.87
9.57
-6.83
-19.41
-25.58
-24.66
-17.56
-6.15
7.29
20.04
28.92
31.02
24.94
12.29
-2.25
-12.52
-13.66
-4.96
9.14
20.22
19.21
0.40
-35.49
-81.10
-124.48
-153.28
-158.99
-139.49
-99.61
-49.15
0.19
38.18
58.83
61.78
52.10
38.20
28.32
26.78
32.10
37.97
36.91
24.20
-0.01
-31.55
-65.08
-96.22
-121.91
-138.93
-142.82
-128.96
-95.51
-45.95
10.76
63.41
103.96
130.44
147.67
163.95
186.49
218.59
259.08
303.91
347.90
386.29
415.16
431.54
433.40
419.86
391.64
351.02
301.54
247.18
191.70
137.85
87.27
40.54
-2.39
-41.59
-76.86
-107.63
-133.19
-153.02
-167.12
-176.09
-181.05
-183.28
-183.86
-183.40
-182.05
-179.62
-175.81
-170.54
-163.96
-156.52
-148.76
-141.13
-133.88
-127.03
-120.43
-113.86
-107.20
-100.44
-93.69
-87.09
-80.75
-74.74
-69.07
-63.73
-58.67
-53.89
-49.38
-45.13
-41.13
-37.38
-33.86
-30.57
-27.52
-24.71
-22.14
-19.75
-17.57
-15.60
-13.86
-12.31
-10.95
-9.75
-8.71
-7.81
-7.01
-6.33
-5.73
-5.21
-4.74
-4.32
-3.95
-3.61
-3.30
-3.02
-2.77
-2.55
-2.36
-2.18
-2.03
-1.89
-1.77
-1.66
-1.55
-1.45
-1.35
-1.26
-1.16
-1.06
-0.97
-0.86
-0.76
-0.64
-0.52
-0.39
-0.25
-0.09
0.09
0.29
0.52
0.76
1.02
1.31
1.61
1.91
2.23
2.56
2.89
3.23
3.58
3.94
4.31
4.68
5.04
5.39
5.74
6.09
6.45
6.84
7.26
7.74
8.27
8.86
9.48
10.13
10.77
11.27
11.47
11.21
10.36
8.70
6.15
2.66
-1.63
-6.41
-11.26
-15.69
-19.13
-21.12
-21.31
-19.38
-15.49
-9.94
-3.12
4.42
12.15
19.62
26.43
32.33
37.21
41.09
44.11
46.47
48.22
49.42
50.06
49.88
48.63
45.96
41.57
35.20
26.81
16.53
4.65
-8.27
-21.74
-34.78
-46.91
-57.61
-66.46
-72.90
-76.58
-77.84
-75.99
-70.96
-62.84
-51.95
-38.69
-23.67
-7.51
9.09
25.39
40.64
53.96
64.51
71.55
74.60
73.38
68.14
59.48
48.28
35.55
22.08
8.51
-4.80
-16.77
-27.76
-37.71
-46.43
-53.42
-58.37
-61.35
-62.78
-63.44
-64.17
-65.73
-68.23
-71.26
-73.83
-75.23
-75.05
-73.56
-71.62
-70.23
-70.10
-70.80
-72.03
-71.18
-66.64
-57.55
-44.37
-28.56
-12.00
3.34
15.68
23.43
25.87
23.34
18.17
14.20
15.42
23.99
38.68
55.30
67.37
70.34
63.10
48.40
30.88
14.57
1.34
-9.25
-18.63
-27.68
-35.77
-41.73
-44.56
-44.60
-43.34
-42.45
-43.18
-45.37
-47.49
-47.22
-42.70
-32.41
-16.46
3.91
26.97
51.03
74.66
96.62
115.90
131.07
142.18
150.21
155.13
156.81
154.81
148.38
136.88
120.36
99.80
77.00
53.13
30.08
8.71
-10.80
-28.36
-43.62
-56.07
-65.22
-70.87
-73.58
-74.35
-74.42
-74.70
-75.66
-77.20
-78.90
-80.39
-81.22
-81.45
-81.35
-81.45
-82.00
-82.85
-83.39
-82.71
-79.90
-74.49
-66.69
-57.41
-47.67
-38.30
-29.44
-20.51
-10.45
1.76
16.55
33.24
50.30
65.81
78.33
87.44
93.98
99.39
104.93
110.75
115.28
115.81
109.57
95.15
73.35
47.08
20.34
-2.84
-19.42
-27.84
-27.79
-20.29
-8.19
3.45
8.49
2.16
-15.71
-39.40
-59.27
-65.99
-55.37
-30.83
-1.97
20.01
27.45
18.09
-3.29
-29.42
-54.70
-77.05
-96.75
-114.16
-128.07
-136.18
-135.62
-125.19
-106.58
-83.50
-60.34
-40.38
-25.04
-14.04
-6.23
0.16
5.90
10.47
12.74
11.96
8.53
3.91
0.11
-1.17
1.87
9.78
22.09
38.10
57.43
80.37
107.57
139.61
170.56
196.74
215.70
226.27
228.89
225.12
216.82
205.75
193.41
181.23
171.46
164.96
160.08
152.31
135.57
105.01
60.03
5.35
-50.41
-97.36
-128.93
-143.99
-146.02
-140.61
-132.81
-125.55
-120.23
-118.12
-120.86
-130.31
-146.81
-167.47
-186.22
-195.88
-191.05
-170.24
-138.92
-106.28
-81.15
-68.27
-66.79
-71.25
-75.94
-76.95
-73.34
-66.02
-56.58
-45.95
-34.07
-20.52
-5.35
10.30
24.78
36.31
44.41
49.34
52.28
54.84
58.57
64.37
72.40
82.33
89.30
92.69
93.12
91.79
89.75
87.63
85.39
82.51
78.31
72.44
65.52
58.07
50.73
44.01
38.19
33.24
28.87
24.58
20.15
15.83
11.59
7.56
3.77
0.28
-2.83
-5.49
-7.78
-9.40
-10.06
-9.85
-8.78
-7.10
-4.99
-2.62
0.96
4.89
8.87
12.38
14.56
14.93
12.95
8.51
1.96
-5.89
-15.29
-24.30
-31.08
-36.21
-39.89
-42.41
-43.72
-43.32
-40.40
-34.36
-24.76
-12.30
0.42
12.10
21.60
28.39
32.82
35.84
38.48
41.67
45.67
50.39
55.60
60.31
62.53
59.67
49.48
31.46
7.91
-16.67
-37.11
-49.52
-53.01
-49.54
-42.56
-35.34
-29.88
-26.70
-25.55
-26.05
-27.78
-30.32
-32.92
-34.42
-33.54
-29.20
-20.67
-8.30
6.13
19.54
28.04
28.28
19.09
2.51
-16.69
-32.76
-41.09
-40.41
-32.71
-21.81
-11.46
-3.92
0.48
2.65
3.90
5.28
7.58
11.33
16.69
23.24
29.63
34.13
35.26
32.46
26.19
17.64
8.36
0.14
-5.20
-6.34
-3.20
2.42
6.48
4.62
-5.76
-23.85
-45.51
-65.12
-78.27
-83.64
-83.20
-80.58
-79.08
-80.53
-85.10
-91.47
-97.18
-98.73
-92.22
-74.98
-47.30
-12.90
21.92
50.58
68.87
76.28
75.53
70.92
66.00
62.92
62.39
63.91
66.01
66.41
62.47
51.98
34.37
11.38
-13.23
-34.72
-48.76
-52.66
-45.88
-30.32
-9.98
9.86
23.97
28.86
24.19
12.90
-0.12
-9.73
-13.30
-11.32
-6.38
-1.42
1.77
2.85
2.33
0.73
-1.88
-5.31
-8.78
-10.80
-9.84
-5.27
2.15
10.20
16.07
17.77
15.03
9.66
5.07
4.69
10.97
24.39
43.14
63.50
80.97
91.47
92.00
82.78
65.92
44.77
22.84
2.85
-13.67
-26.17
-34.63
-38.88
-38.39
-32.78
-22.76
-10.41
1.07
8.39
9.65
5.26
-2.32
-9.70
-14.20
-14.90
-12.60
-8.79
-4.56
-0.05
5.29
12.03
20.12
28.55
35.65
39.37
37.99
30.34
16.33
-2.73
-24.02
-43.86
-58.79
-66.09
-66.03
-60.55
-52.29
-43.50
-35.40
-28.33
-22.28
-17.29
-13.50
-11.01
-9.39
-7.98
-6.28
-4.25
-2.30
-1.08
-0.89
-1.41
-1.89
-1.17
1.44
5.62
10.35
14.14
15.90
15.57
14.26
13.50
14.69
18.10
22.42
25.41
25.02
19.99
10.27
-2.99
-18.39
-33.33
-43.86
-45.18
-33.42
-8.34
24.86
56.25
75.15
74.42
54.16
21.58
-12.74
-39.74
-55.24
-60.56
-59.94
-57.03
-53.10
-47.06
-37.61
-24.47
-10.28
2.13
10.73
15.59
18.35
20.76
24.41
28.89
32.39
32.50
27.72
17.83
4.40
-9.66
-21.82
-30.24
-34.86
-37.38
-40.97
-47.98
-58.73
-70.22
-76.65
-72.11
-53.22
-21.47
17.89
56.74
87.20
103.53
103.11
86.88
58.20
22.64
-13.03
-42.01
-59.60
-64.24
-57.53
-44.65
-30.58
-18.41
-8.62
-0.61
6.45
12.04
15.15
14.49
9.25
-0.55
-14.59
-31.88
-50.59
-67.04
-77.04
-76.43
-63.68
-41.02
-13.76
11.60
30.46
41.82
48.18
53.02
59.22
67.50
76.71
85.57
93.38
99.82
104.12
104.58
99.38
88.12
72.34
54.65
37.40
20.98
4.20
-14.23
-33.81
-51.69
-63.35
-66.05
-60.24
-49.25
-37.63
-28.40
-21.98
-16.86
-11.32
-4.88
1.43
5.72
7.18
5.84
2.94
0.32
-0.77
0.11
2.47
4.97
6.48
6.37
4.64
1.76
-1.41
-4.44
-7.38
-10.63
-14.79
-20.08
-26.19
-32.44
-37.84
-41.44
-42.72
-41.50
-37.56
-31.65
-24.26
-15.90
-7.17
1.21
8.49
13.88
16.99
17.96
17.44
16.55
16.29
17.11
18.83
20.65
21.56
20.97
18.96
16.30
14.26
13.57
14.33
15.48
15.56
13.12
7.24
-2.41
-15.74
-31.98
-49.40
-64.58
-73.61
-72.77
-60.61
-38.97
-12.74
12.01
30.54
41.12
45.06
45.01
43.44
41.42
38.92
35.93
33.16
32.04
33.76
38.30
44.04
48.83
50.79
49.33
45.52
41.35
38.95
39.96
45.05
53.47
63.05
69.87
69.32
57.75
34.33
2.00
-33.12
-64.07
-85.88
-97.14
-100.16
-99.06
-97.37
-96.54
-96.20
-95.24
-93.12
-90.70
-88.41
-86.36
-83.61
-78.50
-69.65
-56.62
-40.42
-22.62
-5.93
8.16
19.44
28.75
37.29
45.84
54.07
60.89
64.95
65.42
62.80
58.70
55.03
53.29
53.61
54.67
54.28
50.16
40.48
24.78
4.12
-18.54
-38.67
-50.76
-51.07
-38.92
-17.52
7.12
28.51
42.45
48.39
48.88
47.56
47.12
48.55
51.20
53.40
53.12
48.06
36.27
16.74
-9.55
-39.48
-68.57
-93.21
-111.94
-125.46
-134.92
-139.77
-137.12
-123.33
-97.01
-61.13
-22.84
9.39
29.72
37.35
36.26
32.39
30.50
31.82
34.40
35.16
32.23
26.24
19.79
15.84
16.01
19.84
25.16
29.01
29.32
25.67
19.49
13.28
9.52
9.51
12.83
17.57
21.17
21.80
18.84
13.32
7.17
2.35
0.27
1.63
6.57
14.74
24.85
34.02
38.40
33.91
18.27
-7.38
-38.25
-67.65
-89.82
-102.10
-105.63
-103.74
-99.85
-95.61
-90.54
-83.18
-72.57
-59.08
-43.72
-28.57
-14.73
-2.16
9.68
21.37
32.72
42.77
50.26
54.08
53.95
50.69
45.84
41.10
37.73
36.07
35.65
35.63
34.97
33.06
30.07
26.65
23.59
21.45
20.35
19.95
19.67
18.96
17.54
15.60
13.56
11.94
11.02
10.79
10.91
10.92
10.42
9.30
7.89
6.66
6.12
6.49
7.56
8.79
9.49
9.21
7.94
6.24
4.97
4.90
6.34
8.89
11.62
13.44
13.62
12.17
9.97
8.36
8.34
10.36
13.80
17.43
19.83
19.80
16.31
8.74
-3.05
-17.94
-33.09
-44.38
-47.78
-41.37
-26.48
-8.23
7.19
15.06
14.17
6.80
-3.02
-11.72
-17.90
-22.07
-25.57
-29.13
-32.35
-34.20
-34.01
-32.16
-29.86
-28.59
-29.50
-32.55
-36.86
-41.11
-44.17
-45.56
-45.75
-45.68
-46.39
-48.54
-51.97
-56.00
-59.59
-61.74
-61.86
-59.94
-56.26
-51.11
-44.72
-37.02
-27.83
-17.00
-4.52
9.31
23.72
37.98
51.30
62.39
71.15
77.57
81.74
83.78
84.65
83.75
80.96
76.29
69.87
62.08
53.46
44.64
36.29
29.01
23.10
18.80
16.05
14.58
14.18
14.59
15.63
17.11
18.98
20.63
21.40
20.50
17.34
11.77
4.20
-4.38
-12.70
-19.25
-23.47
-25.47
-25.95
-25.72
-25.31
-24.62
-22.94
-19.32
-12.66
-3.18
8.05
19.51
30.01
38.99
46.96
55.13
62.25
69.83
78.84
89.75
102.35
115.24
125.17
127.41
117.28
92.55
55.72
13.20
-26.51
-56.17
-72.62
-77.34
-74.82
-69.76
-64.98
-60.69
-56.18
-51.03
-45.77
-41.52
-39.12
-38.43
-38.46
-38.04
-36.09
-32.69
-28.59
-24.74
-21.84
-19.99
-18.82
-17.81
-16.62
-15.15
-13.61
-12.16
-10.74
-9.10
-7.10
-4.74
-2.49
-1.05
-1.09
-3.08
-7.48
-14.92
-25.77
-39.43
-53.59
-64.30
-66.81
-58.57
-40.26
-16.01
8.08
26.48
36.28
37.84
33.94
27.76
21.61
16.52
12.75
10.59
11.03
15.34
24.11
36.16
48.24
55.73
54.34
42.48
22.12
-1.02
-20.33
-31.06
-32.20
-26.29
-17.54
-9.60
-3.86
-0.05
2.50
3.75
2.38
-3.63
-15.78
-33.69
-54.46
-73.03
-83.17
-80.90
-65.81
-41.75
-15.53
5.88
18.24
21.41
18.77
14.61
11.84
10.96
10.55
8.95
5.63
1.58
-1.48
-2.37
-1.08
1.13
2.61
2.06
-0.71
-4.87
-9.03
-11.96
-13.11
-12.86
-12.24
-12.36
-13.93
-16.95
-20.83
-24.63
-27.51
-29.03
-29.27
-28.60
-27.41
-25.87
-23.89
-21.23
-17.69
-13.23
-8.01
-2.58
2.43
6.42
9.05
10.36
10.52
9.88
8.84
7.86
7.19
7.05
7.61
8.97
11.23
14.35
18.22
21.93
25.67
29.30
32.57
35.24
37.11
38.15
38.31
37.66
36.29
34.46
32.29
29.92
27.48
25.02
22.61
20.28
18.09
16.06
14.24
12.58
11.07
9.95
8.95
7.99
7.07
6.15
5.25
4.43
3.69
3.07
2.55
2.08
1.67
1.30
0.97
0.65
0.42
0.27
0.25
0.33
0.44
0.52
0.53
0.46
0.32
0.26
0.37
0.77
1.43
2.22
2.96
3.49
3.73
3.74
3.74
4.01
4.76
6.03
7.64
9.29
10.73
11.82
12.73
13.84
15.63
18.50
22.49
27.30
32.55
37.50
41.54
44.39
46.04
46.73
46.90
47.19
48.20
49.70
51.47
51.87
48.58
39.54
24.14
3.95
-17.54
-35.86
-47.21
-49.52
-42.90
-29.25
-11.54
6.98
23.10
33.99
37.41
32.21
18.80
-0.75
-22.95
-43.85
-60.08
-69.90
-73.48
-72.60
-69.78
-67.43
-67.08
-69.08
-72.95
-77.17
-80.30
-81.21
-79.41
-75.09
-68.90
-61.70
-54.29
-47.09
-40.27
-33.86
-28.01
-23.25
-20.43
-20.48
-24.10
-31.44
-41.97
-54.30
-66.20
-74.45
-75.65
-67.08
-47.87
-19.78
12.95
44.76
70.79
87.82
95.86
97.11
94.19
88.99
82.12
73.63
63.76
53.48
44.35
37.98
35.45
36.30
39.68
44.21
48.10
49.36
46.24
37.49
24.22
8.98
-4.89
-14.23
-17.44
-14.88
-8.37
-0.04
8.77
17.44
25.57
32.33
36.53
36.93
33.27
26.88
20.47
16.85
17.46
21.42
25.81
27.30
23.65
14.56
1.64
-12.69
-26.37
-38.28
-47.61
-54.55
-59.04
-60.77
-59.41
-54.92
-48.47
-40.65
-32.67
-26.33
-23.29
-24.59
-30.27
-39.77
-52.04
-65.10
-77.85
-88.12
-92.90
-89.46
-77.25
-59.09
-40.37
-26.23
-18.63
-15.06
-9.89
1.68
20.56
42.74
61.65
71.72
71.52
63.92
53.90
46.37
42.89
43.18
46.01
49.96
53.62
55.39
53.61
46.32
34.17
19.05
4.09
-7.47
-13.26
-12.19
-4.12
10.40
29.52
50.29
68.22
78.51
77.67
65.06
43.58
18.41
-3.52
-18.81
-26.91
-30.13
-31.45
-32.40
-32.36
-29.43
-22.45
-12.41
-2.72
2.91
2.34
-3.40
-10.52
-15.03
-15.57
-14.24
-15.17
-21.37
-31.79
-41.47
-44.13
-36.21
-19.58
-1.23
10.41
9.98
-1.93
-19.37
-34.70
-42.67
-43.09
-38.82
-33.61
-29.49
-25.99
-21.30
-14.26
-5.56
2.62
7.87
8.85
5.64
-0.43
-7.04
-11.57
-11.98
-7.39
1.44
12.16
21.73
27.46
28.11
24.54
19.35
15.50
15.16
19.23
27.32
38.18
50.53
62.40
72.90
82.52
91.80
100.27
106.11
106.83
100.76
88.21
72.14
54.52
37.05
19.99
2.18
-17.82
-40.38
-63.96
-85.53
-102.42
-113.24
-118.41
-120.26
-121.80
-125.15
-130.44
-136.12
-136.82
-129.92
-115.24
-94.96
-73.00
-53.27
-38.18
-27.84
-20.57
-13.99
-6.86
1.09
9.10
15.69
19.35
19.42
16.46
11.96
7.70
4.49
2.65
2.14
2.91
5.20
9.83
18.04
30.90
49.04
70.16
91.05
108.87
121.80
128.30
126.65
115.82
96.82
73.28
50.12
32.01
21.14
16.60
14.74
11.48
4.45
-6.56
-19.66
-32.07
-40.72
-43.35
-38.94
-27.88
-11.88
6.49
23.62
35.40
37.84
28.44
7.54
-21.33
-52.79
-81.40
-102.91
-114.92
-116.29
-106.26
-84.47
-51.69
-11.26
31.52
69.23
95.64
107.84
107.65
100.13
90.86
82.64
76.35
69.74
57.26
35.64
5.19
-30.21
-63.75
-90.47
-108.02
-116.44
-116.02
-105.69
-82.56
-45.37
1.86
50.55
88.62
106.37
101.00
77.52
45.95
17.02
-1.56
-6.92
-0.20
14.57
32.02
46.22
51.58
44.44
25.06
-1.98
-29.89
-52.00
-65.12
-70.13
-70.46
-68.77
-65.39
-58.61
-46.38
-29.13
-9.51
8.24
21.02
28.15
31.58
33.65
33.94
30.75
20.26
0.24
-27.28
-55.36
-74.83
-78.02
-63.22
-34.95
-1.47
28.60
50.61
64.51
74.12
83.04
93.64
104.82
113.08
113.61
101.91
76.43
39.07
-5.50
-50.80
-89.44
-117.36
-134.24
-136.01
-126.17
-111.36
-97.33
-86.78
-81.66
-75.62
-63.66
-42.14
-10.18
31.53
79.71
130.38
175.14
202.69
208.72
196.81
182.15
167.68
152.83
133.89
108.80
78.50
49.85
31.45
28.37
42.00
69.52
105.42
138.49
159.08
163.13
152.35
130.77
100.52
63.92
23.55
-18.69
-67.90
-128.22
-198.29
-271.78
-341.93
-406.37
-463.14
-509.52
-506.98
-439.54
-327.41
-208.91
-109.36
-34.80
15.89
43.79
61.83
77.40
86.66
84.30
68.76
41.17
6.06
-38.72
-91.88
-145.76
-191.00
-223.16
-238.39
-231.83
-199.95
-126.26
-24.86
70.61
133.26
156.31
146.73
119.11
89.90
71.97
70.17
77.81
87.30
95.14
100.67
103.55
104.40
103.93
102.32
98.59
89.22
74.91
60.76
51.78
49.31
51.67
55.52
57.80
56.67
50.38
40.12
29.47
21.68
18.01
18.30
20.50
22.95
24.82
25.59
26.50
29.92
37.54
48.06
58.79
65.44
64.39
54.54
37.75
18.58
2.23
-7.78
-10.90
-8.95
-4.78
-0.50
3.08
6.01
8.47
10.53
11.81
12.24
12.10
11.35
9.25
4.25
-5.32
-20.28
-39.56
-60.10
-77.12
-87.07
-88.56
-82.63
-72.15
-60.52
-50.62
-44.17
-41.83
-43.17
-45.85
-46.64
-41.71
-27.73
-3.71
27.88
61.07
87.60
100.70
97.43
79.64
52.87
24.11
-0.99
-19.57
-31.46
-37.77
-39.42
-36.62
-29.41
-19.06
-7.75
1.12
4.46
1.43
-5.76
-12.57
-14.43
-8.89
2.60
16.04
26.62
31.05
28.70
21.57
13.36
8.09
9.25
17.71
32.14
48.44
60.91
64.82
58.86
46.13
32.62
24.03
21.19
21.50
20.69
15.93
7.76
-0.68
-6.36
-9.09
-12.07
-21.82
-42.26
-72.90
-109.13
-144.45
-173.20
-191.53
-197.11
-177.52
-131.40
-65.17
7.07
67.08
98.94
95.57
62.24
15.80
-21.89
-35.36
-19.94
16.21
56.62
84.59
90.51
75.82
47.69
15.37
-14.85
-39.21
-55.71
-62.58
-57.54
-36.78
-3.63
35.17
71.52
97.33
108.20
104.34
89.92
70.87
52.63
38.37
29.05
23.84
20.33
16.18
10.16
2.53
-5.20
-11.44
-15.46
-17.04
-16.47
-14.30
-11.04
-7.21
-3.50
-0.97
-0.53
-2.62
-6.29
-9.77
-11.22
-9.54
-5.00
0.85
5.64
7.45
5.64
1.34
-3.13
-5.47
-4.61
-1.12
3.11
6.05
6.67
5.26
3.14
1.74
1.97
3.74
6.30
8.60
9.22
7.17
1.64
-7.57
-19.72
-32.87
-44.40
-51.88
-53.44
-49.64
-42.12
-33.14
-24.53
-17.21
-11.20
-6.08
-1.58
2.09
4.48
5.32
4.58
2.75
0.59
-1.03
-1.39
-0.24
2.19
5.01
7.29
8.18
7.31
4.95
1.70
-1.44
-4.08
-6.34
-9.04
-13.27
-19.85
-29.10
-40.62
-54.39
-69.79
-85.20
-97.56
-102.75
-97.02
-79.00
-51.23
-19.16
10.16
31.19
41.90
43.98
41.22
37.19
33.69
30.55
26.98
22.51
17.87
14.33
12.76
12.94
13.64
13.37
10.96
6.37
0.48
-5.22
-9.31
-10.95
-10.19
-7.82
-4.85
-2.04
0.34
2.49
4.99
8.34
12.67
17.70
22.77
27.22
30.48
32.40
33.25
33.72
34.52
36.15
38.69
41.75
44.67
46.49
46.54
44.63
41.32
37.53
34.21
32.00
31.08
31.20
31.56
31.56
31.16
30.92
31.44
32.93
35.06
37.23
39.43
42.02
45.63
50.34
54.67
55.07
47.14
27.76
-4.26
-43.68
-83.39
-116.47
-138.54
-146.20
-137.09
-110.30
-67.09
-11.60
48.52
102.18
137.60
146.08
125.58
82.26
29.04
-18.53
-47.53
-52.38
-36.49
-9.50
17.42
36.21
43.85
41.66
31.95
17.81
2.26
-11.95
-22.11
-26.21
-23.96
-17.50
-10.54
-6.40
-5.92
-7.32
-7.57
-4.35
2.40
10.55
16.67
17.26
9.77
-6.66
-31.16
-60.64
-89.82
-112.29
-122.58
-118.55
-102.67
-81.05
-60.68
-46.44
-39.05
-35.45
-31.31
-23.60
-12.30
-0.04
9.53
13.60
11.02
2.07
-12.37
-31.55
-54.56
-79.46
-102.87
-120.65
-129.43
-128.20
-118.97
-106.01
-94.12
-86.07
-80.96
-74.53
-61.45
-38.22
-5.15
33.51
71.49
102.85
124.74
138.45
148.09
157.64
168.77
180.23
189.22
193.25
190.54
180.36
162.81
138.34
107.82
73.51
39.60
9.95
-9.62
-17.80
-21.04
-29.38
-48.64
-75.85
-100.74
-111.63
-102.02
-73.97
-37.53
-5.35
13.63
17.37
9.68
-3.24
-16.51
-28.00
-37.91
-47.60
-57.61
-67.09
-74.76
-80.28
-84.42
-87.67
-88.57
-83.39
-68.01
-40.25
-1.99
40.14
76.40
97.00
96.20
75.00
41.25
6.93
-16.17
-20.71
-6.49
20.86
52.25
78.87
95.14
99.72
94.33
81.75
64.11
42.93
19.92
-2.28
-20.27
-31.22
-34.42
-31.88
-27.21
-23.84
-23.53
-25.96
-29.49
-32.23
-32.85
-30.94
-27.10
-22.43
-18.33
-15.94
-15.80
-17.55
-20.25
-22.92
-25.50
-29.21
-35.64
-45.51
-57.75
-69.48
-77.21
-78.33
-72.22
-58.81
-40.63
-21.25
-4.03
8.60
15.49
16.84
14.01
9.11
4.24
0.63
-1.33
-1.68
-0.12
4.41
13.35
27.60
46.43
67.01
85.11
96.94
100.82
97.67
90.17
81.22
72.54
64.14
55.01
44.11
31.39
18.09
6.12
-2.92
-8.54
-11.64
-14.05
-17.58
-23.15
-30.15
-36.79
-40.98
-41.48
-38.42
-33.17
-27.49
-22.63
-18.86
-15.63
-12.25
-8.44
-4.61
-1.57
-0.02
-0.14
-1.65
-4.02
-6.91
-10.25
-14.03
-17.89
-20.97
-22.08
-20.16
-14.69
-5.82
5.76
19.02
32.79
45.74
56.43
63.50
66.07
64.03
58.00
48.83
36.88
21.79
2.88
-19.85
-44.64
-67.64
-84.08
-90.18
-84.99
-70.87
-52.61
-35.67
-24.13
-19.26
-19.05
-19.96
-18.65
-13.86
-7.06
-2.07
-2.74
-10.68
-23.20
-33.18
-32.69
-16.79
13.47
51.67
89.00
118.79
138.61
150.04
156.41
159.06
156.90
148.17
133.73
118.20
108.87
111.50
120.41
126.46
120.83
100.73
69.16
30.32
-13.83
-61.77
-116.29
-175.88
-232.92
-276.77
-298.29
-294.23
-261.70
-206.33
-138.60
-70.45
-11.34
33.93
64.51
82.66
92.75
95.97
95.13
93.86
92.39
86.91
72.78
48.76
19.03
-9.06
-28.91
-38.24
-39.69
-38.77
-39.87
-44.74
-52.89
-62.95
-73.14
-80.72
-82.01
-73.10
-51.66
-18.16
23.28
65.03
98.12
114.86
111.55
89.44
54.06
13.50
-23.51
-50.82
-66.45
-72.21
-71.17
-66.00
-55.87
-39.04
-14.66
16.23
49.65
80.26
103.22
115.48
118.06
113.16
102.99
85.77
60.35
27.23
-9.84
-44.31
-68.00
-74.84
-64.24
-40.76
-15.92
-0.47
-1.06
-17.21
-43.94
-73.24
-97.80
-113.97
-122.32
-126.36
-128.18
-127.74
-119.47
-101.78
-75.03
-43.35
-13.74
7.75
19.49
26.30
35.83
54.13
81.33
112.39
139.40
155.70
160.09
153.64
140.73
125.35
109.97
94.69
79.04
62.54
45.18
27.87
12.21
0.21
-7.17
-9.17
-5.59
3.56
17.25
32.94
46.73
54.14
52.07
39.08
16.99
-10.55
-39.52
-67.46
-94.06
-120.72
-150.35
-180.71
-212.80
-248.69
-290.36
-337.33
-384.86
-424.24
-445.36
-440.90
-409.16
-355.53
-288.94
-218.66
-151.56
-91.51
-40.18
2.04
36.07
65.06
93.82
128.08
171.35
221.90
272.38
312.44
333.29
331.55
310.68
278.34
243.14
211.35
185.55
165.48
149.79
137.47
128.06
121.23
115.78
109.84
101.66
90.67
77.93
65.74
56.50
51.38
49.82
49.76
48.88
45.65
39.84
32.28
24.25
16.99
11.32
7.34
4.10
-0.32
-8.11
-20.58
-36.93
-54.11
-67.97
-75.38
-76.09
-73.05
-70.88
-73.41
-81.80
-94.25
-107.28
-117.45
-122.53
-121.64
-114.89
-103.03
-87.42
-70.26
-54.24
-41.83
-34.42
-31.77
-32.32
-34.12
-35.74
-36.81
-37.80
-38.98
-39.80
-38.83
-34.48
-26.11
-14.46
-1.35
11.40
23.14
34.69
47.48
62.13
77.42
90.49
98.23
98.96
93.43
84.43
75.40
68.74
65.01
63.26
62.05
60.48
58.60
57.12
56.71
57.42
58.42
58.31
55.78
50.19
42.00
32.65
24.08
17.91
14.70
13.73
13.35
11.80
8.18
2.82
-2.93
-7.37
-9.30
-8.45
-5.30
-0.86
3.51
6.03
4.73
-1.89
-13.90
-29.36
-44.71
-56.20
-61.54
-60.65
-55.06
-46.19
-33.95
-16.79
6.84
36.72
69.98
101.96
128.17
146.11
155.89
159.29
158.39
154.45
147.84
138.53
126.60
112.26
95.65
76.66
55.17
31.32
5.92
-19.64
-43.65
-64.31
-79.87
-88.65
-89.52
-82.68
-70.38
-56.83
-46.99
-44.60
-50.44
-61.99
-74.73
-84.29
-88.21
-86.58
-81.14
-73.87
-66.06
-58.26
-50.76
-43.91
-38.06
-33.18
-28.59
-23.45
-17.41
-10.95
-4.97
-0.08
3.79
7.25
10.50
12.84
12.84
9.40
2.83
-4.75
-10.61
-12.99
-12.26
-10.68
-11.01
-14.76
-21.53
-29.60
-37.21
-43.75
-49.84
-56.45
-63.64
-69.99
-73.02
-70.48
-61.73
-48.49
-34.33
-23.05
-16.82
-14.96
-14.33
-11.19
-3.58
7.22
17.37
22.72
21.48
15.19
7.55
1.68
-1.95
-5.52
-11.75
-21.36
-32.01
-39.67
-41.45
-37.69
-31.83
-28.30
-29.57
-34.69
-39.64
-39.77
-32.33
-18.18
-1.31
13.04
21.00
21.89
18.52
15.92
18.99
30.29
48.73
70.04
88.57
99.85
102.24
97.21
88.26
79.06
72.22
68.54
67.04
65.37
60.66
50.63
34.63
14.53
-5.55
-20.26
-24.83
-17.06
1.15
23.84
42.77
50.37
42.92
22.29
-4.51
-27.70
-38.48
-32.30
-10.25
21.30
52.97
75.06
80.20
65.43
33.64
-6.33
-41.68
-60.00
-54.54
-27.43
10.99
47.26
71.30
80.43
78.72
72.61
65.84
57.35
43.38
21.83
-4.66
-29.19
-44.51
-47.45
-40.82
-31.56
-26.79
-29.84
-39.02
-49.19
-54.78
-53.02
-45.26
-36.30
-31.95
-36.12
-48.90
-66.50
-83.08
-93.47
-95.59
-91.09
-84.17
-79.24
-78.73
-82.54
-88.93
-95.98
-102.48
-107.80
-111.27
-111.72
-108.12
-100.48
-90.41
-80.65
-73.73
-70.52
-69.52
-67.49
-61.09
-48.72
-31.27
-11.52
7.37
23.22
35.36
44.30
50.95
55.96
59.42
61.17
61.21
60.06
58.74
58.23
59.03
61.00
63.60
66.45
69.74
73.86
78.60
82.70
83.90
79.77
69.00
52.36
32.81
14.44
0.71
-7.04
-9.80
-10.00
-10.07
-11.26
-13.63
-16.64
-19.91
-23.47
-27.40
-31.44
-34.69
-35.93
-34.17
-29.11
-21.32
-12.04
-2.79
5.02
10.45
13.34
14.39
15.00
16.56
19.84
24.54
29.59
33.81
36.54
37.92
38.60
39.20
39.85
40.17
39.61
37.88
35.17
32.04
29.15
26.92
25.50
24.74
24.22
23.31
21.43
18.17
13.53
7.94
2.15
-3.01
-6.87
-8.96
-9.10
-7.44
-4.50
-1.09
1.87
3.78
4.64
5.12
6.23
8.72
12.66
17.38
21.82
25.09
26.85
27.23
26.51
24.86
22.21
18.54
14.18
9.89
6.65
5.04
4.84
5.01
4.15
1.20
-4.01
-10.65
-17.39
-23.03
-26.93
-29.00
-29.32
-27.88
-24.48
-19.01
-11.84
-3.93
3.37
8.82
11.63
11.63
9.22
5.24
0.73
-3.21
-5.64
-6.02
-4.41
-1.46
1.75
4.17
5.22
4.92
3.78
2.42
1.27
0.37
-0.53
-1.70
-3.30
-5.27
-7.28
-8.85
-9.37
-8.38
-5.68
-1.46
3.74
9.19
14.13
17.93
20.13
20.52
19.14
16.26
12.41
8.17
4.02
0.13
-3.52
-6.93
-9.81
-11.63
-11.79
-9.92
-6.13
-0.93
4.92
10.55
15.12
17.88
18.36
16.44
12.46
7.12
1.16
-4.86
-10.67
-16.14
-21.04
-24.88
-27.12
-27.63
-27.06
-26.71
-27.74
-30.26
-32.93
-33.45
-29.77
-21.25
-9.05
4.38
16.47
25.58
31.30
33.94
33.84
30.99
25.28
17.18
8.01
-0.28
-5.97
-8.41
-8.18
-6.58
-4.87
-3.65
-2.94
-2.57
-2.63
-3.57
-6.02
-10.34
-16.21
-22.63
-28.27
-32.10
-33.81
-33.93
-33.49
-33.42
-34.11
-35.26
-36.15
-36.14
-35.00
-33.05
-30.97
-29.38
-28.54
-28.26
-28.12
-27.81
-27.18
-26.20
-24.89
-23.26
-21.45
-19.77
-18.55
-17.97
-17.81
-17.61
-16.90
-15.61
-14.09
-12.82
-12.09
-11.80
-11.61
-11.30
-11.03
-11.28
-12.43
-14.39
-16.50
-18.01
-18.59
-18.83
-19.75
-22.08
-25.49
-28.49
-28.97
-25.03
-15.59
-0.57
19.19
42.32
66.97
90.87
111.60
127.13
136.66
140.84
141.56
140.76
139.87
139.38
138.81
137.18
133.46
127.00
117.45
104.65
88.26
69.03
48.83
29.98
14.32
2.47
-5.71
-10.74
-13.08
-14.25
-14.98
-15.90
-18.47
-25.06
-37.60
-55.37
-74.90
-91.67
-104.48
-113.51
-119.84
-125.11
-131.26
-140.58
-154.85
-175.43
-202.52
-236.21
-270.87
-295.83
-300.42
-280.11
-238.95
-186.08
-131.03
-65.92
5.87
72.49
121.73
148.58
157.61
153.26
141.87
130.14
125.56
129.01
137.02
143.90
144.63
137.36
124.54
112.07
105.16
104.22
102.00
88.88
60.42
22.12
-13.90
-37.87
-47.92
-49.31
-49.91
-56.51
-69.52
-83.39
-91.11
-91.33
-84.51
-74.39
-65.18
-59.53
-58.36
-60.32
-62.57
-62.73
-60.46
-57.56
-57.03
-60.33
-67.88
-78.75
-90.98
-102.51
-112.06
-119.28
-123.87
-125.02
-120.88
-109.44
-89.65
-62.31
-29.81
4.66
38.35
69.52
97.09
120.25
137.99
149.52
154.71
154.39
150.10
143.59
136.30
128.99
121.90
114.94
108.01
101.18
94.69
88.81
83.73
79.30
75.05
70.43
65.02
58.85
52.42
46.48
41.75
38.66
37.13
36.76
36.96
37.22
37.23
36.87
36.14
35.09
33.85
32.61
31.59
30.82
29.97
28.35
25.13
19.90
13.00
5.38
-1.92
-8.61
-15.43
-23.96
-35.74
-51.58
-71.19
-93.37
-116.36
-138.16
-156.66
-169.59
-174.99
-172.09
-161.99
-147.66
-132.89
-120.92
-113.33
-109.60
-107.69
-104.81
-98.27
-86.07
-67.11
-41.51
-10.75
22.41
54.40
81.80
102.38
115.90
124.03
129.54
135.07
141.92
149.82
157.20
161.97
162.51
158.36
150.03
138.16
122.98
104.54
83.60
62.27
43.60
29.99
21.64
15.98
9.01
-2.44
-18.61
-36.54
-51.69
-60.28
-61.00
-54.81
-43.70
-29.28
-12.60
5.04
21.21
32.67
36.91
33.68
25.18
15.08
7.20
4.06
6.74
15.17
28.46
44.72
61.07
74.01
80.77
80.96
77.05
73.06
72.05
73.94
75.54
72.21
60.55
39.80
11.39
-23.19
-64.22
-113.74
-173.37
-241.55
-311.79
-373.60
-415.85
-430.86
-416.90
-378.10
-321.87
-255.91
-185.88
-115.38
-46.76
17.73
75.56
123.99
160.87
184.92
195.72
193.72
180.27
158.21
131.73
105.51
83.46
67.68
58.18
53.65
52.53
53.91
57.36
62.38
67.99
72.69
74.98
73.79
68.63
59.64
47.65
34.21
21.27
10.80
3.99
0.76
-0.25
-0.80
-1.88
-2.97
-2.35
1.71
9.42
18.91
26.91
30.36
27.88
20.24
9.60
-1.71
-12.11
-20.81
-27.04
-29.19
-24.60
-10.22
15.85
53.03
97.73
144.11
185.88
218.41
240.18
252.91
260.31
266.03
271.84
277.00
278.86
274.42
261.84
240.88
212.29
177.22
136.88
92.97
48.26
6.61
-27.98
-52.71
-67.60
-76.12
-84.34
-98.59
-122.34
-153.87
-186.27
-210.04
-217.29
-205.71
-179.56
-147.53
-118.63
-98.19
-86.99
-83.26
-86.09
-97.51
-121.46
-160.21
-210.84
-264.76
-310.77
-340.20
-351.01
-348.26
-340.92
-336.69
-337.80
-340.26
-336.80
-321.45
-293.15
-256.18
-217.21
-181.13
-148.27
-114.54
-74.69
-26.45
27.15
78.37
118.41
141.45
147.04
139.81
126.74
114.04
105.01
100.11
98.16
98.01
99.26
102.19
106.93
112.89
118.75
122.90
124.15
122.07
117.14
110.33
102.76
95.35
88.60
82.63
77.18
71.93
66.51
60.77
54.74
48.60
42.64
37.09
32.18
28.03
24.76
22.40
20.88
20.06
19.69
19.53
19.32
18.89
18.13
17.02
15.59
13.95
12.27
10.82
9.95
9.91
10.79
12.40
14.29
15.89
16.66
16.30
14.80
12.51
9.96
7.76
6.41
6.17
6.99
8.46
9.97
10.78
10.37
8.51
5.41
1.57
-2.38
-5.93
-8.81
-10.99
-12.52
-13.38
-13.40
-12.35
-10.05
-6.62
-2.51
1.62
5.06
7.30
8.09
7.47
5.57
2.56
-1.27
-5.40
-8.97
-10.93
-10.37
-6.96
-1.15
5.99
13.13
19.11
23.13
24.61
23.03
18.00
9.56
-1.39
-12.93
-22.53
-27.89
-27.84
-22.80
-14.56
-5.47
2.51
8.28
11.63
12.84
12.22
9.86
5.75
0.06
-6.78
-14.05
-21.04
-27.27
-32.64
-37.25
-41.19
-44.29
-46.14
-46.19
-44.08
-39.82
-33.83
-26.80
-19.46
-12.27
-5.34
1.59
8.89
16.75
24.91
32.63
38.97
43.25
45.39
45.95
45.84
45.79
46.02
46.15
45.51
43.44
39.46
33.19
24.20
12.06
-3.31
-21.13
-39.48
-55.59
-66.70
-71.07
-68.73
-61.43
-51.91
-42.77
-35.51
-30.13
-25.37
-19.44
-10.93
0.56
14.10
27.66
38.54
44.22
43.09
35.20
22.41
7.97
-4.36
-11.44
-11.58
-5.14
5.55
16.77
24.38
25.01
17.23
2.23
-16.15
-32.43
-41.20
-38.96
-25.51
-4.00
20.20
41.37
55.37
60.57
57.80
49.47
38.51
27.44
18.03
11.27
7.54
6.61
7.73
9.73
11.29
11.44
9.88
7.06
3.93
1.48
0.24
0.07
0.26
-0.14
-1.86
-5.09
-9.39
-13.95
-17.91
-20.66
-22.10
-22.50
-22.35
-22.04
-21.75
-21.37
-20.59
-19.08
-16.63
-13.29
-9.38
-5.42
-2.00
0.35
1.36
1.03
-0.37
-2.40
-4.61
-6.59
-8.06
-8.79
-8.72
-7.91
-6.64
-5.29
-4.25
-3.75
-3.73
-3.81
-3.55
-2.58
-0.90
1.17
3.07
4.22
4.27
3.15
1.07
-1.58
-4.35
-6.86
-8.91
-10.49
-11.77
-12.93
-14.09
-15.18
-16.02
-16.43
-16.30
-15.70
-14.82
-13.91
-13.24
-13.04
-13.49
-14.55
-15.76
-16.23
-14.81
-10.56
-3.24
6.43
16.93
26.43
33.42
37.19
37.84
36.08
32.80
28.76
24.50
20.33
16.42
12.91
9.79
7.01
4.41
1.88
-0.63
-3.06
-5.27
-7.06
-8.26
-8.76
-8.55
-7.72
-6.44
-4.99
-3.58
-2.43
-1.60
-1.01
-0.53
0.04
0.79
1.66
2.51
3.07
3.16
2.68
1.70
0.44
-0.83
-1.84
-2.44
-2.60
-2.41
-2.04
-1.63
-1.27
-0.96
-0.68
-0.37
0.00
0.47
1.05
1.73
2.47
3.22
3.85
4.28
4.39
4.15
3.63
2.90
2.05
1.12
0.07
-1.13
-2.46
-3.79
-4.92
-5.69
-6.04
-6.03
-5.75
-5.29
-4.64
-3.77
-2.65
-1.37
-0.14
0.88
1.62
2.19
2.73
3.35
3.98
4.40
4.33
3.66
2.56
1.36
0.47
0.09
0.09
0.11
-0.30
-1.38
-2.99
-4.62
-5.55
-5.11
-2.85
1.28
6.93
13.33
19.38
23.80
25.36
23.25
17.37
8.48
-1.90
-11.85
-19.60
-23.95
-24.65
-22.23
-17.81
-12.56
-7.40
-2.84
1.01
4.24
6.92
9.05
10.64
11.71
12.45
13.06
13.65
14.18
14.42
14.11
13.12
11.55
9.74
8.16
7.26
7.27
8.16
9.58
11.02
11.96
12.02
11.10
9.41
7.30
5.13
3.17
1.33
-0.77
-3.60
-7.49
-12.38
-17.87
-23.30
-28.05
-31.65
-34.04
-35.51
-36.42
-36.94
-36.87
-35.86
-33.71
-30.55
-26.66
-22.47
-18.42
-14.74
-11.36
-8.13
-5.15
-2.80
-1.63
-1.34
-1.43
-1.49
-1.28
-0.58
0.74
2.60
4.71
6.59
8.93
11.85
14.37
14.96
12.94
9.13
5.31
3.44
4.32
9.04
16.54
23.62
27.05
26.40
24.83
27.23
38.22
59.80
93.24
136.17
181.62
220.58
245.81
254.09
245.51
222.63
173.95
99.74
14.08
-65.19
-128.41
-174.93
-205.61
-222.14
-221.22
-199.11
-153.32
-87.53
-13.65
53.05
97.71
111.67
93.74
49.58
-11.23
-78.42
-133.46
-159.53
-151.24
-116.32
-68.30
-20.82
16.68
39.99
51.14
55.34
55.78
54.32
48.02
35.94
19.15
0.60
-15.63
-24.68
-22.75
-10.25
8.10
25.48
36.36
36.46
23.63
-1.52
-35.34
-72.17
-106.88
-135.54
-155.25
-163.44
-158.65
-141.11
-112.80
-77.00
-37.38
2.34
38.91
69.72
92.91
107.23
112.33
109.22
100.31
88.89
78.14
70.13
65.53
63.82
63.61
63.08
60.32
54.01
43.85
30.78
16.33
1.89
-11.72
-24.12
-35.69
-47.87
-62.72
-81.53
-103.52
-125.35
-141.37
-145.61
-133.64
-105.49
-67.04
-27.94
2.79
20.21
24.57
20.28
13.04
8.43
10.14
18.81
32.96
50.51
68.89
84.12
90.96
81.04
51.56
11.82
-21.73
-39.64
-42.07
-34.11
-23.62
-15.57
-15.15
-23.04
-35.45
-47.12
-49.83
-38.10
-12.60
20.73
54.99
83.86
102.71
108.20
99.42
79.96
58.39
41.12
31.56
28.38
26.05
19.41
7.22
-7.20
-18.33
-22.04
-14.20
5.62
35.81
73.74
116.32
158.67
193.33
212.06
209.38
185.86
148.15
105.76
65.86
30.26
-4.16
-42.27
-86.93
-137.45
-190.04
-239.46
-280.24
-307.95
-320.07
-316.88
-301.83
-280.64
-258.95
-239.85
-222.88
-204.97
-183.27
-157.27
-128.86
-100.45
-72.94
-45.39
-16.71
11.87
36.09
50.47
51.58
40.45
22.40
4.53
-7.75
-12.65
-11.88
-8.31
-3.39
3.92
16.09
35.06
60.45
89.20
116.56
137.45
147.17
141.62
117.41
73.21
11.79
-58.34
-123.48
-168.44
-182.03
-161.86
-115.62
-57.99
-4.41
34.69
56.42
63.92
62.47
56.02
46.23
33.87
20.72
10.20
5.81
8.78
16.97
26.05
32.04
33.96
34.43
37.64
46.67
61.43
78.95
95.21
107.27
114.08
115.87
112.96
105.23
92.65
76.37
59.40
45.98
39.87
42.56
52.61
66.45
80.04
90.51
96.85
99.55
99.56
97.45
93.08
85.92
75.77
63.22
49.73
37.21
27.37
21.16
18.59
19.01
21.34
24.32
26.33
25.37
19.22
6.15
-14.16
-40.00
-67.85
-93.51
-113.47
-125.91
-130.80
-129.30
-122.87
-112.79
-100.09
-85.71
-70.66
-56.07
-42.92
-31.99
-23.83
-18.73
-16.48
-16.10
-16.11
-14.89
-11.37
-5.56
1.45
8.04
12.74
14.58
13.21
8.75
1.85
-6.08
-12.81
-15.68
-12.61
-3.12
11.15
27.00
40.94
50.58
55.49
57.05
57.54
59.04
62.76
68.79
76.39
84.35
91.34
96.05
97.39
94.80
88.44
79.27
68.84
58.93
50.99
45.59
41.88
37.45
28.92
13.45
-9.60
-37.58
-64.92
-85.10
-93.40
-89.05
-75.63
-59.53
-47.03
-41.59
-42.54
-45.66
-45.40
-37.50
-21.02
1.32
24.33
42.81
53.91
58.52
60.59
65.18
75.99
93.70
115.98
138.73
157.92
170.88
176.40
174.07
163.31
143.02
112.14
70.64
20.31
-35.23
-91.45
-144.72
-193.76
-240.02
-286.21
-333.60
-379.58
-417.11
-437.27
-433.14
-403.42
-353.38
-292.90
-232.02
-176.70
-127.00
-78.98
-28.66
24.78
77.92
125.52
163.32
189.95
206.61
215.20
216.33
208.87
191.77
166.23
137.03
110.36
90.80
79.18
72.89
67.90
61.06
52.34
44.10
40.06
42.43
50.45
60.71
69.52
74.46
74.99
73.07
68.12
62.97
61.40
63.44
63.44
54.74
36.18
9.87
-18.13
-41.93
-56.34
-59.69
-52.02
-38.05
-23.76
-13.42
-8.84
-9.13
-13.87
-20.62
-26.03
-28.37
-29.07
-31.34
-38.71
-54.54
-81.14
-121.37
-173.03
-228.11
-275.94
-306.92
-313.91
-293.40
-246.79
-165.73
-63.70
32.02
100.57
139.02
155.95
161.24
160.43
154.11
140.39
118.10
87.17
52.48
20.25
-5.86
-25.22
-39.24
-49.76
-58.09
-66.59
-73.01
-74.22
-68.08
-55.30
-38.51
-20.63
-3.61
12.06
25.83
38.47
51.49
65.26
77.62
84.73
83.19
71.86
52.70
29.70
8.26
-6.51
-11.52
-6.69
5.50
21.25
36.54
48.01
53.49
52.71
47.39
40.46
34.81
32.29
33.39
37.35
42.89
48.70
53.81
57.53
59.48
59.79
59.15
58.70
59.52
62.16
66.26
70.61
73.56
73.66
70.11
62.84
52.32
39.27
24.41
8.32
-8.73
-26.61
-45.05
-63.17
-79.28
-90.97
-95.95
-92.89
-82.15
-65.64
-46.11
-26.10
-7.25
9.93
25.67
40.00
52.07
60.12
61.95
55.90
41.73
20.97
-3.49
-28.31
-50.53
-68.15
-79.88
-84.62
-81.27
-69.13
-49.02
-23.51
3.62
28.42
47.77
60.07
64.95
62.26
51.58
32.02
2.99
-34.80
-78.89
-125.39
-169.12
-203.62
-221.80
-217.16
-186.98
-133.42
-63.91
10.49
78.27
131.23
167.32
189.84
204.99
215.96
223.87
229.71
236.51
248.89
271.33
305.94
348.95
391.48
417.35
413.54
376.80
314.77
240.11
164.48
95.95
35.76
-17.65
-73.88
-139.41
-213.04
-286.83
-353.59
-410.68
-457.70
-498.81
-537.37
-584.90
-649.24
-729.48
-816.14
-899.87
-976.14
-1042.97
-1104.35
-1101.35
-1000.25
-814.73
-595.28
-384.83
-202.02
-62.10
50.93
143.39
218.16
269.53
297.33
303.19
298.18
293.13
293.84
303.90
321.37
345.05
366.78
380.07
383.82
383.44
384.32
389.58
402.39
422.72
450.92
481.57
507.95
524.40
528.19
517.05
489.22
445.61
387.82
320.08
245.67
168.54
93.87
28.18
-23.69
-60.01
-81.67
-92.16
-94.73
-92.12
-85.68
-76.05
-63.96
-51.18
-39.63
-29.82
-20.92
-11.10
0.49
12.33
20.81
22.43
15.85
2.75
-13.27
-28.61
-41.14
-50.26
-56.06
-57.93
-53.95
-41.79
-20.65
7.36
37.76
65.47
86.76
99.69
104.68
104.58
103.58
105.09
110.29
118.59
128.92
140.77
152.75
162.03
165.49
161.02
148.39
129.83
109.96
93.90
84.21
77.31
64.27
36.28
-10.15
-72.06
-142.30
-212.97
-278.51
-327.39
-347.23
-336.28
-305.29
-266.93
-227.98
-190.45
-155.06
-122.84
-95.06
-73.92
-61.38
-56.74
-56.25
-55.26
-50.71
-42.16
-31.25
-21.38
-15.26
-15.38
-22.19
-33.52
-46.21
-57.79
-67.63
-76.64
-86.13
-96.92
-110.11
-127.12
-148.99
-175.65
-205.58
-236.38
-265.83
-282.84
-278.18
-247.89
-194.91
-127.38
-54.79
15.39
78.61
133.12
179.59
222.92
267.81
316.28
367.48
419.14
469.41
516.86
560.42
569.21
524.99
432.86
315.32
195.22
88.76
7.71
-42.06
-64.14
-71.40
-78.44
-96.87
-128.53
-167.74
-205.28
-232.55
-246.97
-253.12
-258.83
-269.53
-287.09
-310.10
-330.70
-346.26
-355.29
-356.49
-348.71
-318.69
-263.43
-194.90
-129.60
-78.83
-46.05
-28.26
-18.42
-14.85
-18.18
-28.34
-42.59
-50.95
-42.84
-16.40
25.26
75.06
124.71
167.21
199.43
221.95
243.86
274.14
315.56
365.02
416.61
465.02
506.68
541.06
535.08
470.32
352.70
208.54
66.78
-52.45
-133.15
-183.08
-209.51
-220.39
-218.08
-203.05
-176.89
-142.82
-103.72
-62.02
-22.31
11.54
34.39
46.32
50.56
50.27
46.76
39.98
29.49
14.08
-4.18
-22.60
-35.55
-37.21
-25.77
-4.57
20.20
42.78
58.81
68.83
75.06
73.56
63.54
47.50
29.50
12.18
-0.77
-13.09
-26.66
-42.15
-58.68
-73.97
-85.93
-94.61
-101.84
-110.06
-121.46
-135.44
-149.48
-159.54
-161.05
-152.21
-135.11
-114.15
-93.35
-74.98
-58.31
-41.50
-22.67
-0.87
22.58
44.85
63.55
77.89
87.99
93.98
90.28
72.25
40.98
3.82
-29.96
-53.70
-65.21
-66.95
-63.90
-60.97
-60.77
-60.84
-57.71
-49.18
-35.35
-18.26
-0.84
14.48
26.76
37.25
46.71
55.67
64.01
71.10
76.37
79.63
80.89
80.14
77.53
73.03
66.31
56.59
43.10
25.99
6.70
-12.34
-28.43
-39.38
-44.48
-44.63
-41.73
-38.51
-37.07
-37.21
-36.66
-32.86
-24.82
-13.70
-1.67
9.12
17.27
22.60
26.16
29.48
33.97
40.61
48.03
55.01
59.74
60.28
55.39
45.26
31.39
15.93
0.82
-12.78
-24.47
-34.60
-43.63
-51.39
-57.10
-59.90
-59.54
-56.66
-52.54
-48.48
-45.54
-44.16
-43.90
-43.80
-42.82
-40.43
-36.60
-31.53
-25.32
-17.86
-8.89
1.77
13.69
25.54
35.28
40.79
40.93
36.07
27.97
19.50
13.69
12.67
16.90
25.10
34.76
43.53
49.68
52.55
52.44
50.24
46.69
42.17
36.75
28.80
18.37
6.72
-4.36
-13.47
-19.74
-22.83
-22.96
-21.13
-19.24
-18.91
-20.89
-24.25
-26.90
-26.05
-20.26
-10.20
1.34
10.78
15.86
16.37
14.03
11.21
9.57
9.11
8.47
6.08
1.00
-6.25
-13.98
-20.11
-23.23
-22.96
-20.05
-15.91
-12.01
-9.45
-8.44
-8.67
-9.70
-11.31
-13.39
-15.59
-17.42
-18.88
-20.56
-23.31
-27.82
-34.34
-42.51
-51.06
-57.86
-60.73
-58.65
-52.14
-42.79
-32.62
-23.66
-17.77
-15.83
-16.95
-18.40
-16.56
-7.55
12.25
44.83
89.34
138.99
180.70
201.87
199.01
178.16
148.97
119.24
92.79
70.03
50.07
33.33
20.25
12.48
10.62
13.22
17.55
21.14
22.96
23.88
26.18
32.06
41.85
52.82
60.00
58.35
45.26
21.99
-6.55
-33.39
-54.03
-66.14
-70.09
-67.17
-58.70
-46.03
-31.41
-18.86
-14.08
-25.22
-57.09
-108.91
-173.01
-238.38
-295.88
-341.88
-378.79
-397.07
-391.93
-364.74
-323.72
-277.35
-230.74
-186.58
-147.15
-114.64
-90.55
-80.26
-83.80
-100.56
-127.41
-158.80
-187.82
-207.65
-213.16
-202.48
-179.03
-145.94
-109.40
-73.75
-40.05
-6.67
28.93
68.37
111.29
155.20
196.86
234.53
269.35
303.97
340.63
379.81
420.40
459.93
496.03
524.14
540.42
542.34
528.95
501.03
460.44
409.30
348.98
282.01
207.12
124.53
35.94
-54.63
-140.93
-215.65
-271.85
-304.82
-309.77
-290.20
-251.61
-201.83
-147.86
-93.38
-38.45
18.84
65.35
115.73
161.40
192.40
199.27
178.18
133.73
77.35
23.24
-17.19
-33.54
-26.48
-0.30
37.90
82.02
128.18
173.43
214.65
231.40
212.34
158.06
85.81
15.68
-39.44
-75.71
-95.24
-100.80
-98.11
-87.21
-69.50
-46.63
-22.09
0.49
18.81
28.79
29.72
23.58
16.88
13.84
15.50
18.27
18.46
14.07
4.74
-6.99
-18.78
-27.27
-30.56
-27.90
-19.64
-6.76
8.79
23.54
33.04
32.18
17.90
-10.13
-49.39
-95.24
-142.64
-187.68
-228.54
-265.05
-298.65
-331.43
-365.56
-402.32
-440.87
-477.28
-504.79
-515.60
-503.74
-467.98
-412.89
-346.74
-278.10
-213.05
-153.99
-100.30
-49.89
-0.64
49.07
99.80
152.64
208.97
268.79
328.69
381.89
420.44
438.26
434.14
411.38
377.88
343.03
313.32
288.97
264.80
233.74
190.49
133.46
63.32
-15.56
-95.45
-166.40
-218.71
-244.53
-239.31
-203.53
-134.91
-45.80
40.95
105.49
142.26
157.12
158.86
153.55
143.32
128.47
108.03
83.86
56.21
25.88
-7.22
-43.02
-79.96
-115.09
-144.59
-160.91
-161.55
-149.32
-129.87
-110.14
-95.39
-87.26
-84.07
-80.69
-73.53
-57.99
-33.15
-2.56
25.49
41.29
37.97
13.42
-27.70
-76.14
-121.39
-154.79
-166.41
-151.34
-110.59
-46.79
26.45
90.96
133.09
149.80
147.36
135.87
123.15
112.90
105.73
100.19
94.97
88.53
77.98
59.76
32.56
0.81
-29.07
-48.92
-53.95
-45.70
-32.18
-24.46
-30.83
-52.07
-81.09
-106.98
-120.44
-118.46
-103.74
-81.66
-56.70
-30.88
-5.97
16.26
33.41
43.02
43.03
33.29
15.88
-5.54
-26.94
-44.71
-56.08
-59.57
-55.11
-44.29
-29.73
-13.66
3.14
21.60
43.72
71.26
104.15
139.96
174.53
203.11
221.72
227.83
220.71
201.46
172.93
139.35
105.65
76.50
55.21
42.97
38.49
38.32
38.14
34.31
25.22
11.80
-2.87
-15.09
-21.87
-22.45
-18.54
-13.79
-12.73
-19.81
-38.79
-72.08
-119.88
-178.72
-240.73
-294.48
-327.27
-329.09
-296.58
-235.36
-159.28
-86.38
-32.82
-7.60
-9.88
-30.14
-54.30
-68.82
-64.71
-39.44
3.80
58.12
114.98
165.82
202.99
220.49
215.43
188.66
145.04
92.86
42.54
4.62
-12.51
-5.19
24.65
70.26
121.90
169.43
205.56
227.81
237.60
238.37
231.95
217.59
193.12
156.01
104.77
41.44
-27.45
-92.00
-140.83
-166.12
-165.05
-139.90
-98.04
-51.04
-11.02
12.16
12.75
-9.84
-53.99
-115.47
-183.65
-241.67
-275.14
-279.15
-258.26
-228.30
-194.21
-159.82
-130.98
-113.18
-106.80
-111.04
-120.03
-123.37
-109.63
-71.14
-11.03
56.80
114.34
145.99
144.05
112.54
65.42
21.01
-5.37
-4.42
20.70
56.84
88.77
107.66
113.81
112.52
108.87
105.07
102.20
97.08
89.68
82.69
78.58
77.65
77.00
72.34
59.91
37.87
4.28
-34.98
-69.70
-89.65
-88.14
-64.54
-24.17
23.28
66.31
95.02
104.75
97.34
79.36
61.37
49.18
44.76
46.78
51.95
56.70
57.61
53.02
42.24
27.03
10.34
-5.04
-17.03
-23.63
-23.84
-22.04
-24.33
-36.29
-58.44
-85.66
-112.90
-137.43
-160.59
-181.28
-201.69
-222.62
-245.93
-270.89
-289.42
-296.45
-289.17
-278.59
-264.56
-243.80
-205.08
-146.83
-72.02
12.00
95.55
171.31
236.00
291.47
330.96
363.25
382.87
385.23
367.40
328.85
272.79
204.82
132.14
59.19
-10.48
-77.18
-138.13
-187.59
-218.35
-223.90
-202.24
-157.47
-99.95
-41.18
7.92
44.13
70.97
95.25
122.73
154.53
181.57
192.01
179.11
145.15
101.87
62.04
33.29
16.64
8.49
3.98
-0.06
-4.31
-8.76
-12.84
-16.67
-20.88
-25.61
-30.21
-33.86
-35.63
-35.35
-34.22
-34.60
-39.80
-53.12
-77.09
-111.04
-148.97
-182.74
-204.80
-210.51
-198.47
-169.84
-127.99
-78.68
-29.65
10.96
37.03
46.91
44.12
35.60
28.42
26.79
31.21
39.17
47.48
53.43
55.71
54.36
49.92
42.74
32.74
20.00
5.45
-8.99
-21.22
-29.46
-32.84
-31.79
-27.13
-20.27
-12.36
-3.43
7.32
20.78
37.19
55.48
72.79
84.90
87.71
79.17
60.78
37.39
15.62
1.94
0.58
11.94
31.30
50.60
61.04
58.20
43.80
23.39
3.21
-11.76
-19.06
-18.73
-13.17
-6.33
-2.15
-3.85
-12.91
-27.74
-44.03
-56.75
-62.51
-60.79
-53.59
-43.64
-32.47
-21.69
-11.79
-2.64
5.73
12.76
17.79
20.89
23.32
26.92
33.09
42.18
53.08
63.60
71.43
75.26
75.41
73.61
71.78
71.00
71.24
71.66
71.33
70.00
68.29
67.34
68.08
70.70
74.43
77.79
78.73
74.84
63.80
44.09
15.97
-18.23
-54.54
-88.64
-117.38
-139.67
-156.40
-169.30
-179.50
-186.43
-187.99
-181.61
-165.81
-141.34
-111.26
-80.05
-51.91
-29.35
-12.58
0.10
11.09
22.29
34.52
47.52
60.58
72.98
84.11
93.28
99.55
101.92
99.82
93.56
84.47
74.53
65.82
59.94
57.57
58.35
61.10
64.20
66.12
66.06
64.19
61.63
59.93
60.24
62.64
65.93
67.89
66.00
58.39
44.62
25.89
4.72
-15.97
-33.98
-48.79
-61.70
-75.29
-92.29
-114.30
-141.04
-170.23
-198.26
-221.17
-235.83
-240.54
-235.28
-221.48
-201.48
-177.99
-153.43
-129.49
-107.02
-86.16
-66.67
-48.37
-31.30
-15.86
-2.58
8.09
15.91
20.92
23.42
23.73
22.13
18.84
14.18
8.67
3.06
-1.84
-5.34
-7.10
-7.15
-5.96
-4.23
-2.74
-2.08
-2.34
-3.08
-3.39
-2.27
0.94
6.16
12.39
17.98
21.22
21.23
18.46
14.72
12.23
12.46
15.11
18.17
19.07
16.34
10.79
5.40
4.02
9.67
23.19
43.02
65.59
86.31
100.60
104.91
97.76
80.55
57.62
35.16
19.12
12.86
15.77
23.63
30.53
31.59
24.75
11.33
-5.05
-20.11
-30.63
-35.26
-34.50
-29.85
-22.81
-14.18
-4.00
7.97
21.62
36.06
49.64
60.26
65.86
64.88
56.62
41.51
21.35
-0.93
-22.01
-39.15
-51.00
-57.71
-60.55
-60.70
-58.59
-53.78
-45.85
-35.24
-23.29
-11.45
-0.13
11.69
26.21
45.49
70.27
99.00
127.99
153.15
171.25
180.64
180.46
170.22
149.36
118.07
78.31
34.09
-9.19
-46.80
-76.50
-99.49
-118.26
-134.13
-145.37
-147.90
-138.47
-117.03
-87.90
-57.90
-33.71
-17.53
-8.48
-2.23
8.06
26.21
48.67
66.05
73.49
67.54
49.96
26.81
5.72
-7.45
-12.50
-10.77
-5.52
-0.23
2.32
1.75
-0.33
-1.54
-0.27
3.34
8.07
12.60
16.69
20.76
25.85
32.42
39.86
46.58
50.70
51.27
48.61
44.34
40.20
37.62
37.10
38.03
39.02
38.50
35.49
30.02
23.16
16.42
11.13
7.76
5.78
3.95
0.97
-3.81
-10.23
-17.44
-24.39
-30.28
-34.84
-38.36
-41.51
-44.99
-49.25
-54.20
-59.24
-63.40
-65.74
-65.79
-63.76
-60.49
-57.09
-54.54
-53.34
-53.49
-54.64
-56.30
-57.89
-58.79
-58.36
-55.96
-51.17
-43.88
-34.37
-23.32
-11.69
-0.61
8.86
15.88
20.05
21.46
20.69
18.50
15.67
12.73
9.98
7.69
6.11
5.60
6.42
8.63
11.98
15.96
20.01
23.67
26.80
29.50
32.08
34.72
37.38
39.77
41.52
42.38
42.44
42.13
42.03
42.62
43.97
45.76
47.35
47.95
46.70
42.80
35.76
25.73
13.64
1.11
-9.98
-18.15
-22.95
-25.14
-26.25
-27.63
-29.79
-32.26
-34.23
-35.23
-35.44
-35.63
-36.58
-38.25
-39.46
-38.62
-34.85
-28.99
-23.27
-20.14
-21.02
-25.86
-33.18
-40.71
-46.18
-48.13
-46.06
-39.80
-29.23
-14.53
2.87
20.49
35.75
46.91
53.43
55.63
54.77
52.76
53.28
59.38
71.14
85.28
97.68
106.53
110.13
106.84
94.83
74.24
46.66
14.78
-17.67
-46.30
-66.81
-76.28
-74.08
-62.72
-47.81
-37.09
-37.75
-53.42
-82.40
-118.25
-152.12
-175.13
-180.66
-165.80
-131.79
-83.44
-27.58
28.76
79.74
121.13
150.17
164.99
164.59
149.49
123.11
92.49
67.18
56.11
63.92
88.72
122.84
155.79
178.28
184.93
174.86
150.34
114.77
71.72
24.85
-21.49
-62.09
-91.70
-106.46
-105.25
-90.39
-67.32
-42.78
-22.75
-10.34
-4.69
-1.38
5.52
20.77
45.19
74.40
99.92
111.65
101.71
67.30
11.89
-55.60
-122.80
-176.69
-206.39
-205.83
-176.18
-126.41
-71.77
-29.30
-11.95
-23.50
-57.20
-98.81
-132.89
-149.11
-145.34
-126.60
-100.96
-75.10
-52.13
-32.14
-14.52
0.10
9.26
10.37
2.69
-11.42
-26.77
-37.69
-40.44
-34.85
-24.07
-12.94
-5.38
-2.78
-3.74
-5.15
-4.22
0.13
6.87
13.68
18.27
19.61
18.14
15.36
12.89
11.79
12.38
14.54
18.16
23.29
29.92
37.63
45.40
52.00
56.48
58.64
58.80
57.16
53.10
45.24
32.29
14.05
-8.25
-32.65
-57.71
-83.34
-110.41
-139.12
-167.28
-190.02
-201.40
-197.16
-177.16
-145.92
-110.50
-77.00
-47.97
-22.02
4.13
32.69
62.93
91.28
113.31
125.77
127.73
119.93
103.58
79.14
46.81
8.14
-32.24
-67.06
-88.91
-93.86
-83.86
-66.09
-50.05
-43.36
-48.48
-61.90
-75.96
-82.03
-73.49
-47.20
-3.49
53.47
115.90
173.51
215.47
233.20
223.12
188.18
137.28
83.04
37.34
7.60
-4.31
-1.22
11.31
27.47
42.44
52.44
57.85
61.95
66.71
70.23
68.10
56.93
36.90
13.34
-8.75
-24.76
-32.60
-33.21
-29.20
-23.13
-16.47
-9.71
-3.06
2.40
6.02
7.61
7.57
6.95
7.06
8.65
11.48
14.26
15.02
12.46
5.91
-4.59
-18.05
-32.54
-45.58
-54.83
-59.01
-58.40
-54.21
-48.22
-41.90
-35.76
-29.25
-21.31
-11.11
1.37
15.24
29.29
42.21
52.82
60.10
63.26
62.07
57.14
50.20
43.69
40.00
40.36
44.15
49.04
51.83
49.80
41.67
28.06
11.21
-5.88
-20.34
-30.22
-34.82
-34.72
-31.34
-26.39
-21.36
-17.12
-13.97
-11.85
-10.60
-10.17
-10.66
-12.17
-14.65
-17.91
-21.70
-25.78
-30.00
-34.18
-38.02
-41.13
-43.00
-43.28
-41.82
-38.80
-34.61
-29.75
-24.67
-19.72
-15.15
-11.05
-7.41
-4.10
-0.93
2.23
5.40
8.43
11.06
13.01
14.20
14.70
14.72
14.53
14.22
13.78
13.17
12.48
11.97
11.97
12.62
13.67
14.52
14.43
12.84
9.64
5.16
-0.04
-5.42
-10.59
-15.28
-19.19
-21.90
-22.94
-22.05
-19.35
-15.42
-11.15
-7.41
-4.76
-3.28
-2.66
-2.38
-1.98
-1.31
-0.47
0.26
0.67
0.69
0.42
0.07
-0.16
-0.17
0.08
0.55
1.21
2.00
2.89
3.82
4.78
5.73
6.68
7.58
8.34
8.82
8.92
8.58
7.89
7.03
6.23
5.65
5.35
5.31
5.42
5.62
5.83
6.01
6.10
6.07
5.92
5.70
5.46
5.24
5.02
4.71
4.21
3.52
2.71
1.93
1.30
0.84
0.43
-0.03
-0.56
-1.09
-1.45
-1.49
-1.18
-0.62
0.03
0.59
0.95
1.05
0.85
0.38
-0.33
-1.19
-2.04
-2.70
-3.07
-3.11
-2.84
-2.37
-1.79
-1.23
-0.80
-0.55
-0.51
-0.63
-0.78
-0.83
-0.68
-0.29
0.29
0.96
1.66
2.32
2.88
3.28
3.45
3.36
3.06
2.68
2.43
2.52
3.05
4.00
5.20
6.41
7.36
7.88
7.92
7.52
6.85
6.05
5.30
4.68
4.20
3.82
3.44
3.01
2.53
2.04
1.56
1.10
0.59
-0.07
-1.00
-2.22
-3.64
-5.08
-6.34
-7.30
-7.93
-8.23
-8.21
-7.87
-7.16
-5.99
-4.33
-2.24
0.09
2.48
4.95
7.51
10.10
12.51
14.59
16.21
17.21
17.57
17.42
17.30
17.64
18.55
19.81
21.33
23.05
24.90
26.81
28.68
30.83
33.39
35.95
37.83
38.77
38.71
37.57
35.33
31.88
27.92
23.98
20.05
15.39
9.19
0.09
-13.86
-34.57
-65.17
-103.75
-143.49
-175.52
-196.07
-203.62
-196.89
-175.12
-136.18
-82.26
-18.83
45.41
100.64
138.71
156.14
154.09
136.81
109.55
76.72
42.48
10.63
-14.90
-30.32
-32.55
-21.24
0.24
25.83
48.87
65.37
74.77
79.23
81.88
85.18
89.87
95.09
99.27
100.99
99.73
95.45
88.22
77.92
64.53
48.36
30.24
11.60
-5.89
-20.78
-32.69
-42.75
-53.31
-66.71
-83.86
-103.29
-121.35
-133.44
-135.77
-126.87
-108.12
-83.07
-56.25
-31.84
-12.85
-0.80
4.44
4.32
1.14
-2.75
-5.64
-6.82
-6.44
-5.15
-3.51
-1.94
-0.89
-1.29
-4.47
-11.30
-21.30
-32.20
-40.69
-43.53
-39.32
-29.05
-16.00
-4.33
3.05
5.74
5.81
6.23
9.44
15.51
22.78
28.47
29.97
26.26
18.36
8.90
0.94
-2.43
0.22
8.98
21.63
33.43
38.40
31.34
9.81
-25.15
-68.67
-115.32
-155.71
-179.48
-181.71
-167.52
-148.49
-133.59
-128.75
-126.59
-118.22
-97.01
-60.93
-12.34
45.74
107.26
164.08
206.57
229.95
235.33
227.63
210.43
184.51
150.15
109.95
70.07
38.09
20.29
17.64
26.04
38.45
47.61
49.34
43.25
32.31
20.86
12.85
9.58
9.99
11.70
12.50
11.52
9.01
5.77
2.55
-0.49
-4.09
-9.11
-15.75
-23.25
-30.19
-35.50
-38.91
-41.20
-43.63
-47.44
-53.41
-61.54
-71.23
-81.54
-91.64
-100.81
-108.28
-113.21
-114.73
-112.08
-104.85
-92.98
-76.78
-56.99
-34.81
-11.82
10.31
30.26
47.38
61.57
72.83
80.68
83.94
81.18
71.66
56.24
37.68
19.95
6.79
0.26
0.13
4.17
9.25
12.46
11.98
7.17
-1.73
-13.77
-27.13
-38.88
-45.45
-43.83
-33.15
-15.74
3.15
17.23
21.58
14.59
-1.69
-23.00
-44.93
-64.40
-80.05
-91.53
-98.61
-100.92
-98.22
-91.01
-81.13
-71.30
-63.88
-59.61
-56.71
-51.10
-37.93
-13.63
22.37
66.56
112.17
151.58
179.07
192.44
192.92
183.76
168.52
150.28
130.93
111.47
92.63
75.14
59.55
45.80
33.16
18.33
0.56
-18.22
-34.97
-47.72
-56.09
-60.40
-60.80
-57.26
-49.99
-39.65
-27.78
-16.38
-6.96
0.29
6.29
12.08
17.92
23.84
28.79
31.98
33.33
33.51
33.53
34.13
35.12
35.53
34.17
30.39
24.38
16.83
8.59
0.28
-7.60
-15.08
-22.44
-29.16
-34.60
-38.19
-40.04
-40.87
-41.63
-42.71
-44.26
-46.02
-47.40
-47.58
-45.65
-41.42
-35.30
-28.13
-20.46
-13.36
-7.91
-4.91
-4.41
-5.81
-8.67
-12.70
-17.76
-23.12
-28.88
-35.59
-43.92
-53.86
-61.54
-62.74
-54.88
-42.82
-28.86
-14.73
-0.29
13.76
27.38
41.27
55.79
70.74
85.13
98.30
108.93
115.89
118.61
117.60
114.12
109.32
104.21
99.76
97.35
97.32
98.79
99.63
97.34
90.02
77.08
59.89
41.44
25.46
14.30
8.18
5.42
3.90
2.40
1.24
2.15
7.41
18.80
36.79
60.55
88.42
118.23
147.17
171.47
186.57
187.97
172.65
140.17
93.03
36.04
-25.35
-86.94
-146.76
-204.63
-260.48
-312.59
-357.04
-388.63
-403.10
-399.24
-379.78
-350.43
-317.69
-286.46
-258.93
-234.77
-212.64
-191.70
-172.18
-154.83
-139.73
-125.36
-108.87
-87.55
-60.53
-29.91
-0.24
23.33
37.56
42.73
42.43
41.91
45.67
55.75
71.15
88.81
105.18
117.64
125.16
128.17
127.93
125.75
122.48
118.34
113.21
107.08
100.27
93.41
87.03
81.23
75.54
69.30
62.15
54.44
47.19
41.63
38.59
38.14
39.59
41.76
43.56
44.28
43.71
42.04
39.70
37.17
34.91
33.30
32.50
32.30
32.00
30.44
26.33
18.74
7.62
-6.02
-20.34
-33.30
-43.32
-49.66
-52.45
-52.30
-49.91
-45.79
-40.33
-33.92
-27.11
-20.56
-14.76
-9.87
-5.65
-1.62
2.65
7.29
12.08
16.53
20.17
22.70
24.06
24.34
23.63
21.84
18.67
13.63
6.25
-3.55
-15.11
-26.97
-37.07
-43.43
-44.90
-41.72
-35.48
-28.56
-23.12
-20.35
-20.15
-21.47
-22.99
-23.81
-23.67
-22.88
-21.96
-21.27
-20.86
-20.46
-19.69
-18.31
-16.34
-14.04
-11.75
-9.59
-7.36
-4.57
-0.66
4.74
11.53
19.13
26.70
33.39
38.62
42.23
44.44
45.69
46.46
47.02
47.41
47.43
46.79
45.31
43.03
40.19
37.10
33.98
30.91
27.88
24.95
22.27
19.99
18.14
16.47
14.53
11.84
8.21
3.84
-0.71
-4.78
-7.85
-9.74
-10.61
-10.82
-10.77
-10.79
-11.12
-11.88
-13.10
-14.70
-16.54
-18.46
-20.40
-22.38
-24.50
-26.79
-29.11
-31.16
-32.56
-33.06
-32.65
-31.60
-30.47
-30.01
-30.97
-33.92
-38.91
-45.25
-51.53
-55.85
-56.47
-52.38
-43.75
-31.88
-18.73
-6.15
4.71
13.64
21.14
27.93
34.38
40.25
44.80
47.14
46.82
44.07
39.81
35.27
31.39
28.44
25.97
23.20
19.48
14.81
9.79
5.33
2.07
0.06
-1.23
-2.50
-4.10
-5.73
-6.64
-6.07
-3.80
-0.31
3.40
6.37
8.16
8.99
9.55
10.46
11.93
13.64
14.97
15.36
14.58
12.85
10.64
8.40
6.36
4.44
2.41
0.13
-2.36
-4.75
-6.61
-7.54
-7.38
-6.21
-4.31
-2.04
0.33
2.69
4.98
7.17
9.18
10.87
12.12
12.90
13.35
13.67
14.04
14.56
15.20
15.83
16.25
16.30
15.86
14.94
13.62
12.13
10.71
9.54
8.68
8.03
7.35
6.35
4.88
2.98
0.90
-1.01
-2.43
-3.22
-3.46
-3.42
-3.38
-3.53
-3.84
-4.13
-4.18
-3.86
-3.23
-2.55
-2.12
-2.14
-2.68
-3.67
-5.00
-6.61
-8.40
-10.25
-12.01
-13.55
-14.73
-15.54
-15.97
-16.03
-15.64
-14.64
-12.90
-10.50
-7.75
-5.11
-2.95
-1.41
-0.26
0.94
2.74
5.41
8.79
12.48
16.23
20.02
24.07
28.52
33.25
38.36
43.93
50.11
57.04
64.46
71.23
74.88
72.34
61.01
40.47
12.32
-20.49
-54.51
-86.44
-113.38
-132.84
-142.17
-138.90
-120.87
-88.22
-44.60
3.45
48.38
84.15
107.62
119.48
118.82
107.85
92.18
78.33
70.12
67.36
69.20
73.11
77.98
83.59
90.74
99.85
109.00
116.15
119.73
119.30
115.15
108.09
98.45
86.33
71.46
53.73
34.28
15.54
0.57
-8.66
-12.07
-11.55
-9.50
-7.84
-7.56
-8.92
-12.27
-18.76
-30.55
-49.86
-77.89
-113.33
-152.38
-189.71
-219.96
-239.69
-248.40
-248.41
-243.36
-236.51
-229.53
-222.71
-216.01
-209.80
-204.94
-201.79
-199.25
-194.48
-183.87
-164.88
-137.41
-104.20
-69.92
-39.47
-16.17
-0.71
9.01
16.75
26.27
39.56
55.94
72.36
84.96
91.21
91.30
88.01
85.13
85.56
89.94
96.77
103.52
108.10
109.70
108.78
106.30
102.96
98.65
92.69
84.50
74.18
62.83
52.13
43.61
38.01
35.06
33.67
32.53
30.63
27.53
23.44
18.93
14.64
11.02
8.13
5.71
3.36
0.76
-2.17
-5.27
-8.33
-11.17
-13.79
-16.22
-18.43
-20.21
-21.21
-21.11
-19.72
-17.11
-13.51
-9.29
-4.84
-0.56
3.09
5.66
6.73
6.17
4.14
1.15
-2.15
-5.19
-7.68
-9.68
-11.52
-13.55
-15.91
-18.39
-20.43
-21.36
-20.64
-18.14
-14.25
-9.73
-5.47
-2.12
0.13
1.52
2.50
3.31
3.89
3.81
2.67
0.31
-2.95
-6.41
-9.31
-11.09
-11.56
-10.77
-8.81
-5.67
-1.32
4.08
9.97
15.33
18.99
20.07
18.31
14.24
9.00
3.85
-0.14
-2.36
-2.64
-1.12
1.90
5.97
10.47
14.61
17.53
18.56
17.40
14.27
9.87
5.10
0.78
-2.66
-5.23
-7.29
-9.28
-11.53
-14.07
-16.64
-18.72
-19.71
-18.94
-15.91
-10.41
-2.68
6.45
15.63
23.34
28.24
29.64
27.63
22.98
16.78
10.07
3.66
-1.90
-6.15
-8.66
-9.14
-7.64
-4.64
-1.06
2.07
3.98
4.40
3.59
2.15
0.71
-0.30
-0.73
-0.62
-0.18
0.40
0.93
1.31
1.58
1.84
2.21
2.70
3.18
3.40
3.12
2.27
1.05
-0.22
-1.23
-1.89
-2.38
-3.00
-3.96
-5.24
-6.61
-7.81
-8.72
-9.46
-10.24
-11.06
-11.63
-11.37
-9.72
-6.49
-2.05
2.77
6.92
9.53
10.20
9.06
6.67
3.80
1.17
-0.65
-1.43
-1.23
-0.43
0.36
0.50
-0.46
-2.56
-5.23
-7.46
-8.06
-6.15
-1.49
5.27
12.78
19.42
23.77
25.02
23.13
18.78
13.11
7.46
2.96
0.35
-0.17
1.08
3.45
6.17
8.59
10.24
10.85
10.28
8.51
5.68
2.05
-1.93
-5.80
-9.10
-11.57
-13.15
-13.95
-14.21
-14.15
-13.97
-13.77
-13.57
-13.29
-12.86
-12.21
-11.35
-10.37
-9.38
-8.44
-7.49
-6.36
-4.92
-3.13
-1.17
0.64
1.92
2.48
2.36
1.84
1.23
0.76
0.46
0.21
-0.12
-0.59
-1.13
-1.63
-1.98
-2.17
-2.19
-2.03
-1.66
-1.05
-0.23
0.80
2.02
3.44
5.01
6.58
7.81
8.32
7.80
6.23
3.94
1.47
-0.65
-2.10
-2.83
-2.94
-2.53
-1.62
-0.23
1.46
3.09
4.24
4.62
4.30
3.77
3.59
4.14
5.31
6.57
7.29
7.10
6.12
4.97
4.34
4.65
5.88
7.60
9.37
10.99
12.58
14.39
16.49
18.55
19.91
19.96
18.52
16.06
13.54
12.01
12.09
13.75
16.38
19.24
21.81
24.07
26.31
28.84
31.64
34.27
36.07
36.53
35.52
33.31
30.35
27.01
23.40
19.33
14.45
8.42
1.17
-7.06
-15.68
-23.85
-30.73
-35.71
-38.54
-39.41
-38.78
-37.16
-34.92
-32.22
-29.07
-25.55
-21.88
-18.52
-15.98
-14.74
-15.04
-16.85
-19.85
-23.51
-27.28
-30.74
-33.66
-35.97
-37.74
-39.02
-39.78
-39.94
-39.39
-38.08
-36.08
-33.52
-30.56
-27.24
-23.51
-19.21
-14.20
-8.48
-2.25
4.12
10.19
15.58
20.00
23.32
25.51
26.65
26.85
26.26
25.09
23.52
21.73
19.91
18.16
16.59
15.20
13.96
12.80
11.69
10.71
10.02
9.78
10.10
10.95
12.17
13.49
14.64
15.41
15.69
15.55
15.14
14.70
14.46
14.48
14.69
14.94
15.08
15.16
15.37
15.95
17.02
18.48
20.02
21.28
22.13
22.70
23.35
24.37
25.76
27.17
28.02
27.82
26.41
24.01
21.05
17.92
14.73
11.38
7.70
3.69
-0.41
-4.24
-7.51
-10.21
-12.55
-14.89
-17.40
-19.99
-22.33
-24.05
-24.94
-25.07
-24.81
-24.66
-25.08
-26.28
-28.09
-30.06
-31.61
-32.32
-32.19
-31.61
-31.25
-31.70
-33.22
-35.57
-38.17
-40.21
-40.83
-39.26
-34.92
-27.65
-17.99
-7.29
2.56
9.71
13.10
12.95
10.67
8.21
7.09
7.79
9.64
11.40
12.07
11.43
10.13
9.15
9.19
10.31
11.97
13.40
14.19
14.41
14.58
15.23
16.54
18.25
19.81
20.72
20.79
20.31
19.80
19.77
20.48
21.83
23.46
24.92
25.93
26.47
26.84
27.39
28.36
29.63
30.75
31.03
29.81
26.73
21.94
16.11
10.19
5.14
1.54
-0.56
-1.65
-2.54
-4.08
-6.93
-11.47
-17.68
-25.19
-33.36
-41.38
-48.47
-54.10
-58.08
-60.58
-61.92
-62.35
-61.80
-59.95
-56.41
-50.95
-43.75
-35.34
-26.56
-18.29
-11.38
-6.43
-3.78
-3.36
-4.63
-6.58
-8.00
-7.73
-5.14
-0.34
5.91
12.42
18.10
22.21
24.57
25.38
25.01
23.79
21.92
19.48
16.58
13.44
10.36
7.64
5.48
3.90
2.79
1.96
1.30
0.84
0.75
1.21
2.28
3.82
5.47
6.88
7.79
8.19
8.27
8.22
8.10
7.72
6.75
4.94
2.33
-0.73
-3.62
-5.88
-7.34
-8.21
-8.92
-9.80
-10.88
-11.86
-12.27
-11.71
-10.06
-7.46
-4.29
-0.95
2.19
4.93
7.25
9.22
11.00
12.72
14.43
16.07
17.52
18.69
19.64
20.54
21.65
23.21
25.35
27.97
30.76
33.28
34.98
35.38
34.15
31.21
26.70
20.99
14.61
8.14
2.13
-3.15
-7.75
-12.03
-16.55
-21.70
-27.47
-33.34
-38.45
-41.91
-43.17
-42.12
-39.06
-34.47
-28.85
-22.66
-16.42
-10.72
-6.08
-2.82
-0.80
0.52
1.88
3.91
6.85
10.50
14.28
17.57
19.84
20.88
20.75
19.67
17.93
15.74
13.27
10.67
8.16
5.94
4.21
2.93
1.77
0.15
-2.59
-6.86
-12.66
-19.51
-26.59
-32.95
-37.77
-40.47
-40.80
-38.77
-34.68
-29.02
-22.42
-15.63
-9.36
-4.16
-0.35
2.09
3.54
4.53
5.58
7.00
8.80
10.77
12.64
14.27
15.65
16.89
18.05
19.05
19.76
20.02
19.85
19.38
18.78
18.10
17.20
15.84
13.88
11.41
8.84
6.72
5.52
5.38
6.03
6.92
7.36
6.74
4.72
1.21
-3.55
-9.05
-14.59
-19.38
-22.79
-24.49
-24.57
-23.44
-21.61
-19.52
-17.37
-15.14
-12.73
-10.04
-7.13
-4.15
-1.33
1.14
3.16
4.70
5.79
6.46
6.75
6.67
6.24
5.53
4.69
3.91
3.43
3.38
3.83
4.69
5.82
7.04
8.21
9.24
10.07
10.62
10.81
10.56
9.87
8.81
7.59
6.43
5.55
5.02
4.77
4.64
4.41
3.94
3.14
2.08
0.88
-0.24
-1.11
-1.65
-1.91
-2.05
-2.23
-2.52
-2.81
-2.85
-2.38
-1.26
0.42
2.38
4.26
5.82
6.99
7.87
8.62
9.29
9.80
9.94
9.55
8.58
7.20
5.72
4.39
3.37
2.60
1.87
0.95
-0.32
-1.90
-3.66
-5.41
-7.01
-8.43
-9.78
-11.21
-12.81
-14.55
-16.19
-17.37
-17.76
-17.13
-15.50
-13.03
-10.00
-6.64
-3.23
-0.08
2.40
3.73
3.58
1.92
-0.88
-4.15
-7.17
-9.42
-10.75
-11.30
-11.34
-11.13
-10.82
-10.50
-10.23
-10.04
-9.85
-9.37
-8.20
-6.00
-2.69
1.44
5.84
9.89
13.11
15.28
16.43
16.70
16.23
15.16
13.69
12.06
10.56
9.40
8.64
8.23
7.99
7.77
7.48
7.07
6.47
5.59
4.32
2.60
0.54
-1.62
-3.62
-5.24
-6.43
-7.28
-7.93
-8.47
-8.87
-9.04
-8.83
-8.20
-7.14
-5.72
-3.99
-1.95
0.38
2.94
5.54
7.89
9.65
10.57
10.54
9.69
8.30
6.76
5.38
4.41
3.97
4.07
4.65
5.54
6.48
7.18
7.30
6.61
5.04
2.76
0.12
-2.43
-4.48
-5.83
-6.49
-6.69
-6.66
-6.53
-6.27
-5.67
-4.54
-2.78
-0.51
2.08
4.74
7.35
9.85
12.26
14.56
16.68
18.45
19.70
20.27
20.07
19.05
17.17
14.37
10.64
6.00
0.58
-5.32
-11.26
-16.65
-20.90
-23.47
-24.10
-22.83
-20.13
-16.72
-13.41
-10.85
-9.39
-9.07
-9.75
-11.16
-13.02
-14.92
-16.34
-16.69
-15.55
-12.93
-9.39
-5.87
-3.34
-2.34
-2.81
-4.15
-5.57
-6.46
-6.59
-6.08
-5.19
-4.06
-2.72
-1.09
0.83
2.90
4.79
6.15
6.77
6.61
5.88
4.88
3.95
3.27
2.85
2.55
2.15
1.53
0.66
-0.36
-1.33
-2.05
-2.40
-2.40
-2.15
-1.81
-1.48
-1.20
-0.96
-0.77
-0.67
-0.74
-1.04
-1.57
-2.24
-2.91
-3.46
-3.89
-4.27
-4.73
-5.30
-5.95
-6.50
-6.75
-6.53
-5.80
-4.64
-3.24
-1.82
-0.50
0.70
1.87
3.13
4.52
5.93
7.15
7.88
7.94
7.27
6.07
4.65
3.35
2.43
1.99
1.94
2.05
2.05
1.67
0.80
-0.52
-2.11
-3.70
-5.04
-5.96
-6.38
-6.38
-6.10
-5.73
-5.42
-5.27
-5.28
-5.34
-5.30
-5.01
-4.43
-3.64
-2.83
-2.22
-1.93
-1.99
-2.27
-2.62
-2.87
-2.94
-2.86
-2.69
-2.48
-2.22
-1.86
-1.33
-0.66
-0.01
0.37
0.32
-0.17
-0.88
-1.48
-1.67
-1.41
-0.87
-0.37
-0.08
0.01
0.11
0.46
1.17
2.17
3.23
4.10
4.68
4.99
5.13
5.22
5.30
5.37
5.39
5.37
5.37
5.51
5.89
6.53
7.34
8.13
8.72
9.02
9.07
9.02
8.98
8.89
8.50
7.45
5.57
2.95
0.11
-2.22
-3.44
-3.29
-1.97
-0.01
2.01
3.63
4.63
5.01
4.83
4.19
3.24
2.16
1.20
0.58
0.44
0.78
1.46
2.33
3.22
4.07
4.89
5.72
6.62
7.56
8.40
8.92
8.84
7.99
6.39
4.25
1.92
-0.25
-2.06
-3.45
-4.50
-5.34
-6.02
-6.52
-6.80
-6.78
-6.45
-5.86
-5.05
-4.04
-2.76
-1.14
0.82
2.97
4.97
6.42
7.02
6.67
5.56
4.02
2.38
0.84
-0.56
-1.85
-3.08
-4.20
-5.11
-5.71
-5.99
-5.98
-5.77
-5.49
-5.21
-4.97
-4.75
-4.41
-3.81
-2.84
-1.54
-0.09
1.27
2.35
3.19
3.97
4.95
6.25
7.76
9.21
10.34
11.05
11.45
11.74
12.08
12.43
12.56
12.20
11.14
9.35
6.99
4.35
1.76
-0.54
-2.39
-3.80
-4.88
-5.78
-6.59
-7.37
-8.06
-8.59
-8.92
-9.06
-9.07
-9.01
-8.89
-8.65
-8.19
-7.42
-6.32
-5.01
-3.64
-2.41
-1.46
-0.81
-0.39
-0.06
0.28
0.64
0.88
0.79
0.06
-1.54
-4.09
-7.44
-11.23
-14.84
-17.65
-19.11
-18.95
-17.24
-14.34
-10.73
-6.91
-3.27
-0.04
2.64
4.69
6.06
6.75
6.86
6.64
6.41
6.50
7.15
8.37
9.94
11.45
12.47
12.70
12.06
10.77
9.21
7.78
6.79
6.31
6.23
6.29
6.18
5.66
4.64
3.21
1.57
-0.03
-1.41
-2.52
-3.47
-4.44
-5.54
-6.79
-8.08
-9.27
-10.21
-10.86
-11.20
-11.30
-11.25
-11.21
-11.35
-11.84
-12.72
-13.84
-14.90
-15.56
-15.52
-14.69
-13.17
-11.22
-9.12
-7.14
-5.43
-4.02
-2.88
-1.91
-1.09
-0.43
-0.03
0.01
-0.42
-1.28
-2.50
-3.88
-5.22
-6.26
-6.71
-6.29
-4.76
-2.07
1.56
5.68
9.68
12.97
15.16
16.12
16.00
15.10
13.81
12.47
11.31
10.42
9.81
9.43
9.23
9.22
9.48
10.08
11.02
12.15
13.18
13.76
13.62
12.72
11.28
9.71
8.45
7.72
7.40
7.09
6.22
4.42
1.66
-1.61
-4.69
-6.87
-7.76
-7.38
-6.11
-4.53
-3.12
-2.19
-1.87
-2.12
-2.84
-3.86
-4.98
-5.93
-6.45
-6.35
-5.62
-4.49
-3.33
-2.57
-2.49
-3.14
-4.37
-5.89
-7.47
-8.92
-10.19
-11.21
-11.94
-12.28
-12.21
-11.79
-11.12
-10.30
-9.30
-8.00
-6.28
-4.12
-1.70
0.69
2.76
4.33
5.33
5.76
5.63
4.98
3.93
2.69
1.54
0.71
0.20
-0.18
-0.73
-1.70
-3.08
-4.67
-6.17
-7.34
-8.13
-8.63
-9.05
-9.52
-10.11
-10.69
-11.03
-10.75
-9.50
-7.05
-3.43
1.00
5.65
9.90
13.21
15.29
16.10
15.70
14.25
11.96
9.20
6.53
4.55
3.76
4.30
5.85
7.78
9.43
10.40
10.71
10.67
10.63
10.71
10.78
10.56
9.89
8.88
7.90
7.36
7.45
8.10
9.01
9.85
10.42
10.70
10.77
10.68
10.35
9.60
8.26
6.25
3.66
0.82
-1.86
-3.96
-5.27
-5.90
-6.26
-6.95
-8.40
-10.72
-13.57
-16.28
-18.21
-18.94
-18.45
-17.01
-15.00
-12.69
-10.24
-7.66
-5.04
-2.50
-0.23
1.66
3.10
4.10
4.73
5.00
4.90
4.42
3.58
2.46
1.23
0.11
-0.69
-0.96
-0.57
0.53
2.29
4.51
6.92
9.13
10.81
11.74
11.97
11.79
11.69
12.15
13.42
15.39
17.55
19.16
19.48
18.00
14.59
9.51
3.31
-3.31
-9.67
-15.24
-19.67
-22.80
-24.57
-24.99
-24.07
-21.90
-18.76
-15.16
-11.86
-9.66
-9.13
-10.34
-12.84
-15.75
-18.16
-19.38
-19.18
-17.75
-15.55
-13.05
-10.57
-8.26
-6.11
-4.16
-2.52
-1.42
-0.99
-1.19
-1.67
-1.94
-1.54
-0.33
1.46
3.33
4.77
5.55
5.77
5.75
5.76
5.83
5.82
5.54
5.01
4.52
4.50
5.33
7.07
9.46
11.94
13.92
14.96
14.93
13.96
12.37
10.51
8.61
6.83
5.26
3.91
2.81
1.93
1.24
0.64
0.08
-0.47
-0.98
-1.34
-1.45
-1.23
-0.69
0.09
0.96
1.80
2.44
2.81
2.88
2.72
2.47
2.27
2.24
2.37
2.58
2.73
2.69
2.39
1.81
0.98
-0.06
-1.29
-2.69
-4.14
-5.49
-6.57
-7.23
-7.41
-7.16
-6.54
-5.59
-4.35
-2.82
-1.08
0.73
2.42
3.83
4.90
5.70
6.34
6.90
7.37
7.68
7.74
7.61
7.41
7.31
7.39
7.63
7.92
8.18
8.35
8.46
8.49
8.40
8.09
7.50
6.65
5.64
4.58
3.51
2.36
0.95
-0.90
-3.28
-6.14
-9.29
-12.49
-15.52
-18.23
-20.57
-22.51
-24.03
-25.01
-25.24
-24.49
-22.55
-19.42
-15.22
-10.26
-4.99
0.17
4.80
8.61
11.49
13.41
14.47
14.74
14.22
12.89
10.68
7.63
3.99
0.15
-3.36
-6.11
-7.83
-8.55
-8.50
-7.98
-7.24
-6.40
-5.48
-4.48
-3.48
-2.63
-2.11
-2.04
-2.37
-2.96
-3.58
-4.06
-4.32
-4.39
-4.35
-4.29
-4.26
-4.26
-4.33
-4.49
-4.70
-4.89
-4.91
-4.63
-4.01
-3.11
-2.20
-1.57
-1.51
-2.12
-3.31
-4.81
-6.26
-7.30
-7.72
-7.46
-6.64
-5.49
-4.24
-3.05
-1.92
-0.66
1.01
3.45
6.90
11.42
16.84
22.69
28.31
33.03
36.29
37.86
37.82
36.54
34.47
31.99
29.38
26.73
24.05
21.31
18.52
15.70
12.90
10.15
7.47
4.84
2.19
-0.51
-3.27
-6.01
-8.59
-10.86
-12.76
-14.27
-15.45
-16.31
-16.82
-16.98
-16.82
-16.54
-16.40
-16.61
-17.14
-17.67
-17.72
-16.81
-14.76
-11.82
-8.59
-5.79
-4.06
-3.72
-4.68
-6.56
-8.78
-10.70
-11.80
-11.72
-10.32
-7.70
-4.21
-0.37
3.23
6.06
7.75
8.23
7.69
6.54
5.21
4.06
3.27
2.86
2.66
2.53
2.33
2.07
1.91
2.08
2.83
4.28
6.34
8.72
11.00
12.79
13.88
14.31
14.30
14.18
14.13
14.13
13.95
13.32
12.05
10.16
7.91
5.65
3.74
2.35
1.43
0.73
-0.06
-1.20
-2.79
-4.71
-6.72
-8.48
-9.70
-10.20
-9.97
-9.19
-8.16
-7.25
-6.77
-6.90
-7.59
-8.58
-9.53
-10.11
-10.15
-9.62
-8.64
-7.34
-5.87
-4.32
-2.83
-1.56
-0.69
-0.33
-0.48
-0.99
-1.61
-2.12
-2.42
-2.54
-2.69
-3.05
-3.77
-4.80
-5.92
-6.84
-7.29
-7.20
-6.67
-6.02
-5.59
-5.66
-6.32
-7.40
-8.51
-9.21
-9.12
-8.07
-6.15
-3.65
-1.05
1.22
2.77
3.37
3.01
1.87
0.32
-1.12
-1.95
-1.90
-1.03
0.30
1.54
2.20
2.04
1.14
-0.16
-1.40
-2.22
-2.43
-2.03
-1.18
-0.08
1.11
2.26
3.31
4.27
5.18
6.07
6.97
7.80
8.46
8.81
8.77
8.28
7.45
6.42
5.37
4.46
3.81
3.51
3.62
4.13
4.97
6.00
6.98
7.69
7.92
7.58
6.74
5.58
4.37
3.38
2.77
2.54
2.56
2.56
2.35
1.82
0.99
0.05
-0.80
-1.39
-1.67
-1.74
-1.78
-2.01
-2.52
-3.23
-3.90
-4.28
-4.19
-3.69
-2.98
-2.31
-1.77
-1.26
-0.55
0.50
1.83
3.13
4.08
4.48
4.39
4.03
3.67
3.41
3.24
3.05
2.82
2.57
2.38
2.22
1.94
1.34
0.29
-1.11
-2.57
-3.71
-4.30
-4.33
-3.99
-3.60
-3.39
-3.46
-3.69
-3.88
-3.82
-3.39
-2.56
-1.47
-0.28
0.82
1.64
2.01
1.77
0.81
-0.90
-3.18
-5.72
-8.11
-9.99
-11.16
-11.61
-11.45
-10.82
-9.86
-8.68
-7.41
-6.24
-5.33
-4.76
-4.42
-4.05
-3.43
-2.44
-1.18
0.16
1.37
2.37
3.17
3.82
4.30
4.51
4.36
3.80
3.00
2.19
1.64
1.45
1.54
1.68
1.66
1.37
0.95
0.61
0.63
1.16
2.19
3.55
4.98
6.25
7.21
7.80
8.07
8.06
7.81
7.38
6.80
6.14
5.47
4.84
4.29
3.82
3.41
3.04
2.69
2.38
2.10
1.82
1.53
1.19
0.79
0.35
-0.10
-0.55
-0.97
-1.37
-1.76
-2.12
-2.40
-2.54
-2.47
-2.16
-1.66
-1.11
-0.70
-0.58
-0.81
-1.37
-2.11
-2.89
-3.57
-4.06
-4.34
-4.44
-4.38
-4.20
-3.88
-3.34
-2.48
-1.21
0.49
2.50
4.53
6.17
7.03
6.83
5.57
3.53
1.21
-0.91
-2.53
-3.62
-4.38
-5.10
-5.93
-6.84
-7.60
-7.94
-7.68
-6.84
-5.59
-4.15
-2.76
-1.62
-0.88
-0.68
-1.11
-2.13
-3.54
-5.00
-6.13
-6.61
-6.34
-5.38
-3.97
-2.37
-0.81
0.58
1.75
2.66
3.29
3.62
3.64
3.40
3.00
2.58
2.22
1.99
1.94
2.08
2.43
2.97
3.57
4.06
4.19
3.77
2.75
1.21
-0.59
-2.41
-4.01
-5.23
-5.99
-6.25
-6.08
-5.61
-5.04
-4.61
-4.44
-4.56
-4.88
-5.25
-5.52
-5.57
-5.30
-4.61
-3.40
-1.67
0.46
2.70
4.71
6.21
7.10
7.43
7.34
6.96
6.27
5.20
3.72
1.95
0.19
-1.12
-1.61
-1.10
0.31
2.24
4.16
5.57
6.16
5.88
4.92
3.59
2.17
0.86
-0.29
-1.27
-2.08
-2.70
-3.06
-3.12
-2.94
-2.64
-2.37
-2.24
-2.32
-2.57
-2.92
-3.27
-3.50
-3.54
-3.38
-3.06
-2.65
-2.23
-1.88
-1.58
-1.34
-1.18
-1.14
-1.27
-1.56
-1.94
-2.26
-2.39
-2.23
-1.82
-1.22
-0.52
0.28
1.23
2.35
3.61
4.89
6.04
6.93
7.52
7.81
7.84
7.60
7.13
6.46
5.70
4.99
4.47
4.24
4.32
4.69
5.28
6.01
6.82
7.58
8.16
8.44
8.37
7.96
7.31
6.54
5.77
5.13
4.71
4.55
4.53
4.45
4.03
3.10
1.75
0.28
-0.86
-1.34
-1.11
-0.43
0.28
0.73
0.92
1.06
1.46
2.35
3.70
5.38
7.26
9.30
11.55
14.03
16.60
18.90
20.52
21.10
20.51
18.95
16.78
14.42
12.10
9.83
7.36
4.41
0.79
-3.39
-7.75
-11.89
-15.55
-18.76
-21.76
-24.76
-27.76
-30.48
-32.43
-33.24
-32.87
-31.68
-30.26
-29.21
-28.89
-29.30
-30.12
-30.84
-30.93
-29.97
-27.74
-24.20
-19.52
-13.92
-7.70
-1.20
5.24
11.23
16.32
20.13
22.41
23.16
22.64
21.33
19.71
18.14
16.71
15.33
13.81
12.00
9.95
7.86
5.99
4.55
3.59
3.03
2.70
2.48
2.31
2.16
2.05
1.94
1.78
1.49
1.06
0.60
0.23
0.06
0.11
0.28
0.39
0.28
-0.11
-0.68
-1.29
-1.81
-2.16
-2.39
-2.52
-2.56
-2.42
-2.00
-1.27
-0.31
0.72
1.62
2.25
2.55
2.51
2.09
1.27
0.06
-1.39
-2.77
-3.68
-3.78
-2.97
-1.43
0.40
2.02
3.11
3.55
3.39
2.81
1.93
0.84
-0.40
-1.70
-2.88
-3.79
-4.35
-4.58
-4.57
-4.37
-3.97
-3.26
-2.18
-0.77
0.73
1.96
2.54
2.24
1.08
-0.65
-2.59
-4.38
-5.84
-6.92
-7.66
-8.04
-7.96
-7.29
-5.94
-4.04
-1.89
0.13
1.72
2.78
3.44
3.94
4.46
4.99
5.34
5.24
4.54
3.30
1.76
0.25
-0.98
-1.84
-2.42
-2.89
-3.43
-4.08
-4.75
-5.25
-5.32
-4.74
-3.37
-1.18
1.75
5.14
8.59
11.63
13.82
14.88
14.72
13.51
11.60
9.43
7.36
5.67
4.48
3.78
3.48
3.43
3.45
3.33
2.88
1.99
0.71
-0.82
-2.37
-3.70
-4.66
-5.18
-5.26
-4.91
-4.18
-3.11
-1.83
-0.46
0.84
2.00
2.99
3.85
4.57
5.11
5.43
5.47
5.28
4.92
4.51
4.07
3.57
2.87
1.82
0.34
-1.54
-3.64
-5.73
-7.54
-8.91
-9.78
-10.20
-10.27
-10.10
-9.76
-9.28
-8.70
-8.00
-7.19
-6.26
-5.20
-4.03
-2.76
-1.41
0.01
1.47
2.93
4.27
5.37
6.07
6.29
6.00
5.25
4.13
2.75
1.21
-0.35
-1.73
-2.71
-3.14
-3.00
-2.41
-1.62
-0.84
-0.18
0.31
0.67
0.93
1.08
1.14
1.13
1.12
1.16
1.28
1.42
1.49
1.41
1.20
0.94
0.79
0.88
1.25
1.87
2.59
3.19
3.52
3.46
3.06
2.44
1.75
1.12
0.66
0.44
0.52
0.98
1.85
3.02
4.27
5.27
5.76
5.64
4.98
4.05
3.14
2.41
1.89
1.50
1.09
0.54
-0.16
-1.00
-1.92
-2.92
-3.97
-5.08
-6.18
-7.15
-7.88
-8.27
-8.30
-8.07
-7.66
-7.21
-6.75
-6.28
-5.77
-5.26
-4.80
-4.51
-4.46
-4.63
-4.93
-5.20
-5.31
-5.20
-4.96
-4.72
-4.59
-4.61
-4.74
-4.84
-4.76
-4.41
-3.73
-2.78
-1.63
-0.39
0.79
1.80
2.54
2.94
2.99
2.75
2.32
1.84
1.42
1.13
1.00
1.07
1.38
1.96
2.81
3.87
5.06
6.27
7.44
8.54
9.53
10.35
10.90
11.06
10.79
10.14
9.20
8.11
6.98
5.81
4.64
3.46
2.35
1.37
0.55
-0.18
-0.94
-1.82
-2.82
-3.82
-4.65
-5.16
-5.26
-4.97
-4.33
-3.42
-2.31
-1.12
0.04
1.01
1.69
2.09
2.26
2.25
2.08
1.68
0.93
-0.16
-1.49
-2.81
-3.82
-4.35
-4.37
-4.02
-3.50
-2.97
-2.46
-1.92
-1.30
-0.59
0.13
0.71
1.05
1.12
0.98
0.77
0.55
0.37
0.19
-0.03
-0.31
-0.60
-0.82
-0.83
-0.55
0.03
0.78
1.48
1.86
1.69
1.00
-0.04
-1.05
-1.67
-1.69
-1.13
-0.19
0.86
1.79
2.52
3.03
3.36
3.50
3.42
3.09
2.52
1.77
0.97
0.24
-0.29
-0.53
-0.44
-0.06
0.53
1.19
1.76
2.13
2.28
2.25
2.13
2.01
1.96
1.98
2.04
2.09
2.10
2.09
2.14
2.35
2.76
3.27
3.74
3.91
3.59
2.67
1.21
-0.62
-2.52
-4.18
-5.32
-5.73
-5.34
-4.24
-2.70
-1.05
0.35
1.25
1.55
1.27
0.51
-0.60
-1.93
-3.40
-4.95
-6.50
-7.95
-9.21
-10.12
-10.59
-10.51
-9.86
-8.67
-7.03
-5.09
-3.01
-1.06
0.52
1.54
1.91
1.71
1.15
0.44
-0.21
-0.72
-1.10
-1.35
-1.51
-1.57
-1.58
-1.60
-1.75
-2.10
-2.65
-3.32
-3.95
-4.43
-4.72
-4.83
-4.80
-4.59
-4.15
-3.36
-2.18
-0.62
1.22
3.20
5.15
6.90
8.30
9.22
9.60
9.54
9.20
8.81
8.49
8.27
7.99
7.47
6.62
5.51
4.39
3.55
3.21
3.47
4.22
5.22
6.14
6.73
6.79
6.30
5.37
4.26
3.23
2.51
2.15
2.08
2.13
2.13
1.98
1.69
1.23
0.53
-0.61
-2.42
-5.00
-8.29
-11.97
-15.58
-18.65
-20.83
-21.97
-22.08
-21.22
-19.52
-17.08
-14.10
-10.81
-7.53
-4.53
-2.02
-0.05
1.43
2.52
3.37
4.10
4.81
5.59
6.54
7.64
8.77
9.73
10.31
10.31
9.70
8.56
7.12
5.67
4.52
3.90
3.88
4.35
5.04
5.61
5.72
5.13
3.79
1.80
-0.60
-3.09
-5.36
-7.16
-8.37
-8.97
-9.10
-8.93
-8.61
-8.22
-7.75
-7.13
-6.29
-5.18
-3.73
-1.93
0.19
2.53
4.87
6.93
8.40
9.13
9.17
8.73
8.15
7.66
7.39
7.30
7.28
7.24
7.12
6.95
6.74
6.48
6.17
5.84
5.53
5.33
5.25
5.27
5.28
5.19
5.00
4.80
4.69
4.74
4.94
5.20
5.40
5.43
5.24
4.87
4.37
3.83
3.36
2.98
2.68
2.33
1.82
1.00
-0.20
-1.76
-3.61
-5.60
-7.59
-9.42
-10.99
-12.20
-13.02
-13.47
-13.60
-13.46
-13.12
-12.62
-12.00
-11.30
-10.52
-9.65
-8.65
-7.47
-6.15
-4.79
-3.62
-2.88
-2.80
-3.51
-4.87
-6.55
-8.01
-8.72
-8.28
-6.63
-4.06
-1.04
1.88
4.31
6.07
7.19
7.75
7.80
7.36
6.44
5.16
3.68
2.27
1.14
0.41
0.09
0.09
0.34
0.81
1.56
2.62
4.01
5.61
7.27
8.87
10.32
11.56
12.53
13.09
13.02
12.17
10.45
8.02
5.17
2.30
-0.31
-2.52
-4.31
-5.77
-6.97
-7.92
-8.55
-8.78
-8.61
-8.16
-7.67
-7.41
-7.60
-8.29
-9.32
-10.43
-11.34
-11.84
-11.86
-11.43
-10.61
-9.42
-7.85
-5.85
-3.44
-0.74
2.03
4.55
6.59
8.04
8.97
9.60
10.15
10.70
11.19
11.43
11.28
10.76
10.06
9.46
9.16
9.12
9.14
8.95
8.37
7.41
6.19
4.89
3.60
2.37
1.10
-0.24
-1.72
-3.31
-4.96
-6.58
-8.05
-9.19
-9.87
-10.00
-9.57
-8.75
-7.75
-6.88
-6.40
-6.51
-7.26
-8.48
-9.74
-10.47
-10.17
-8.57
-5.81
-2.32
1.26
4.43
6.89
8.66
9.92
10.82
11.44
11.74
11.67
11.24
10.55
9.74
8.95
8.27
7.73
7.31
6.94
6.54
6.01
5.30
4.35
3.18
1.83
0.33
-1.26
-2.82
-4.17
-5.05
-5.28
-4.79
-3.78
-2.59
-1.60
-1.05
-0.98
-1.31
-1.93
-2.84
-4.10
-5.75
-7.70
-9.70
-11.48
-12.85
-13.77
-14.29
-14.49
-14.33
-13.67
-12.38
-10.46
-8.14
-5.82
-3.95
-2.82
-2.46
-2.63
-2.94
-3.04
-2.78
-2.27
-1.80
-1.69
-2.11
-2.96
-3.92
-4.55
-4.47
-3.51
-1.76
0.42
2.58
4.28
5.25
5.44
5.00
4.22
3.39
2.75
2.42
2.36
2.52
2.78
3.09
3.40
3.67
3.85
3.88
3.75
3.51
3.29
3.25
3.53
4.17
5.08
6.08
6.98
7.63
7.99
8.11
8.11
8.08
8.08
8.07
7.96
7.67
7.13
6.36
5.48
4.66
4.05
3.76
3.78
3.98
4.12
3.99
3.46
2.57
1.54
0.65
0.18
0.30
0.94
1.92
2.94
3.67
3.91
3.58
2.77
1.69
0.57
-0.37
-1.01
-1.33
-1.39
-1.33
-1.23
-1.14
-1.06
-0.94
-0.76
-0.52
-0.24
0.06
0.41
0.82
1.31
1.84
2.27
2.41
2.05
1.11
-0.36
-2.09
-3.74
-4.98
-5.61
-5.65
-5.28
-4.76
-4.25
-3.85
-3.48
-3.04
-2.44
-1.68
-0.82
0.10
1.03
1.91
2.62
2.98
2.79
1.92
0.38
-1.64
-3.81
-5.81
-7.38
-8.36
-8.70
-8.42
-7.65
-6.62
-5.69
-5.24
-5.55
-6.70
-8.55
-10.80
-13.07
-15.06
-16.50
-17.18
-16.96
-15.78
-13.78
-11.35
-9.01
-7.24
-6.31
-6.15
-6.51
-7.05
-7.59
-8.10
-8.59
-8.94
-8.85
-7.94
-5.88
-2.64
1.49
5.99
10.31
14.00
16.78
18.55
19.33
19.24
18.48
17.27
15.91
14.63
13.57
12.78
12.20
11.72
11.27
10.79
10.32
9.89
9.52
9.17
8.77
8.17
7.31
6.17
4.83
3.46
2.24
1.30
0.70
0.46
0.56
0.95
1.60
2.41
3.25
3.95
4.34
4.36
4.00
3.33
2.39
1.23
-0.08
-1.35
-2.28
-2.57
-2.03
-0.76
0.85
2.28
3.03
2.81
1.55
-0.62
-3.49
-6.77
-10.16
-13.31
-15.86
-17.61
-18.56
-18.91
-18.95
-18.90
-18.85
-18.69
-18.28
-17.58
-16.69
-15.83
-15.19
-14.79
-14.37
-13.49
-11.74
-8.94
-5.28
-1.27
2.46
5.40
7.31
8.25
8.47
8.24
7.77
7.14
6.41
5.64
4.99
4.65
4.76
5.38
6.48
7.96
9.64
11.35
12.91
14.19
15.08
15.55
15.57
15.19
14.47
13.50
12.43
11.38
10.43
9.56
8.71
7.74
6.60
5.26
3.82
2.36
0.94
-0.46
-1.94
-3.53
-5.23
-6.91
-8.41
-9.57
-10.24
-10.31
-9.69
-8.38
-6.46
-4.11
-1.57
0.95
3.31
5.46
7.37
8.93
9.96
10.24
9.72
8.51
6.87
5.11
3.46
2.01
0.79
-0.20
-0.89
-1.21
-1.18
-0.94
-0.72
-0.78
-1.26
-2.14
-3.27
-4.46
-5.60
-6.67
-7.73
-8.84
-10.00
-11.14
-12.19
-13.07
-13.81
-14.54
-15.37
-16.35
-17.36
-18.04
-17.95
-16.68
-14.04
-10.15
-5.44
-0.49
4.13
7.99
10.88
12.81
13.89
14.28
14.14
13.65
12.99
12.31
11.71
11.17
10.63
10.01
9.26
8.40
7.54
6.79
6.21
5.76
5.33
4.80
4.11
3.32
2.58
2.01
1.70
1.58
1.48
1.24
0.72
-0.06
-0.99
-1.85
-2.46
-2.76
-2.81
-2.78
-2.88
-3.24
-3.80
-4.38
-4.75
-4.77
-4.42
-3.80
-3.00
-2.10
-1.13
-0.10
0.90
1.76
2.33
2.57
2.54
2.38
2.25
2.25
2.37
2.54
2.72
2.86
2.97
3.05
3.09
3.06
2.92
2.66
2.29
1.83
1.33
0.75
0.03
-0.88
-2.02
-3.28
-4.49
-5.40
-5.85
-5.85
-5.59
-5.36
-5.45
-5.96
-6.80
-7.71
-8.40
-8.65
-8.38
-7.61
-6.45
-5.03
-3.52
-2.06
-0.76
0.38
1.40
2.43
3.50
4.58
5.45
5.93
5.94
5.55
5.03
4.62
4.48
4.57
4.74
4.86
4.85
4.77
4.76
4.92
5.28
5.81
6.43
7.05
7.60
7.97
8.08
7.90
7.47
6.96
6.56
6.40
6.45
6.51
6.20
5.16
3.22
0.48
-2.73
-5.96
-8.80
-11.04
-12.66
-13.80
-14.69
-15.46
-16.15
-16.64
-16.70
-16.11
-14.72
-12.57
-9.84
-6.88
-4.03
-1.59
0.21
1.26
1.46
0.81
-0.68
-2.86
-5.47
-8.12
-10.40
-11.94
-12.45
-11.88
-10.40
-8.44
-6.63
-5.74
-6.32
-8.47
-11.74
-15.17
-17.73
-18.72
-18.11
-16.41
-14.41
-12.60
-10.92
-8.79
-5.50
-0.75
5.15
11.32
16.71
20.53
22.58
23.23
23.21
23.22
23.60
24.30
24.93
25.10
24.55
23.40
21.94
20.53
19.39
18.60
18.12
17.95
18.09
18.56
19.28
19.97
20.21
19.66
18.15
15.82
13.01
10.16
7.60
5.44
3.59
1.82
-0.05
-2.11
-4.28
-6.42
-8.50
-10.59
-12.79
-15.08
-17.29
-19.02
-19.88
-19.55
-18.10
-16.02
-13.95
-12.25
-10.87
-9.50
-8.03
-6.88
-6.80
-8.67
-12.95
-19.25
-26.24
-32.07
-35.16
-34.77
-31.11
-24.83
-16.78
-7.81
1.29
9.69
16.48
20.57
21.03
17.07
9.47
1.08
-4.56
-5.54
-2.59
1.78
4.76
4.56
1.22
-3.38
-6.84
-7.74
-6.38
-4.33
-3.16
-3.47
-4.02
-2.86
1.60
9.38
18.60
26.35
30.20
29.42
25.10
19.27
13.64
8.89
4.56
-0.27
-6.19
-12.67
-18.18
-21.07
-20.33
-16.24
-10.20
-4.14
0.11
1.52
0.03
-3.61
-8.26
-12.80
-16.47
-18.88
-20.05
-20.33
-20.28
-20.44
-21.15
-22.41
-23.89
-25.10
-25.56
-24.95
-23.19
-20.30
-16.30
-11.23
-5.35
0.73
6.03
9.61
10.96
10.36
8.80
7.61
7.92
10.21
14.32
19.62
25.46
31.39
37.09
42.20
46.23
48.49
48.50
46.16
41.99
36.89
31.82
27.46
24.09
21.69
20.18
19.58
19.95
21.26
23.22
25.34
27.18
28.50
29.35
29.80
29.85
29.38
28.30
26.71
24.92
23.15
21.19
18.28
13.54
6.62
-1.78
-9.97
-16.00
-18.68
-18.20
-16.11
-14.56
-15.16
-18.42
-23.75
-30.06
-36.49
-42.68
-48.48
-53.46
-56.63
-56.76
-53.19
-46.49
-38.50
-31.67
-27.77
-26.95
-27.49
-26.68
-22.21
-13.38
-1.55
10.55
20.16
25.75
27.61
27.63
28.22
31.13
36.69
43.88
50.93
56.37
59.61
61.22
62.38
64.36
67.91
73.14
79.74
87.27
95.37
103.57
111.00
116.34
118.23
116.13
110.97
105.19
101.65
102.21
106.37
110.99
111.15
101.95
80.48
47.13
5.54
-38.57
-79.09
-111.21
-132.21
-141.56
-140.41
-130.86
-115.58
-97.43
-79.35
-64.05
-53.62
-48.86
-49.09
-52.40
-56.31
-58.95
-59.85
-60.19
-62.34
-68.80
-81.14
-99.20
-121.02
-143.43
-163.19
-177.88
-186.50
-189.43
-187.88
-183.06
-175.76
-166.09
-153.75
-138.39
-120.03
-99.22
-77.04
-54.81
-33.76
-14.80
1.58
15.24
26.20
34.60
40.73
45.06
48.20
50.74
53.08
55.32
57.33
58.92
60.04
60.80
61.36
61.86
62.32
62.68
62.86
62.80
62.46
61.81
60.79
59.35
57.46
55.14
52.49
49.63
46.74
43.99
41.52
39.38
37.55
35.89
34.29
32.69
31.01
29.10
26.51
22.42
15.89
6.22
-6.57
-21.53
-37.04
-51.30
-62.87
-70.93
-75.20
-75.68
-72.43
-65.69
-56.07
-44.80
-33.52
-23.84
-16.80
-12.50
-10.18
-8.67
-6.93
-4.51
-1.64
0.99
2.56
2.55
0.98
-1.63
-4.48
-6.77
-8.06
-8.34
-7.88
-7.00
-5.85
-4.28
-2.01
1.13
4.99
9.07
12.62
14.92
15.47
14.18
11.36
7.58
3.56
0.09
-2.06
-2.21
0.06
4.75
11.30
18.72
25.80
31.49
35.20
36.91
37.01
36.04
34.46
32.56
30.48
28.35
26.19
23.98
21.61
18.92
15.84
12.53
9.41
6.96
5.61
5.45
6.20
7.32
8.17
8.29
7.40
5.46
2.52
-1.29
-5.72
-10.41
-14.84
-18.45
-20.74
-21.50
-20.90
-19.37
-17.46
-15.49
-13.49
-11.20
-8.28
-4.56
-0.27
4.05
7.74
10.33
11.76
12.37
12.72
13.27
14.21
15.35
16.27
16.54
15.92
14.49
12.59
10.70
9.18
8.23
7.75
7.47
7.14
6.65
6.08
5.63
5.52
5.76
6.23
6.65
6.76
6.45
5.78
4.97
4.25
3.82
3.77
4.11
4.76
5.63
6.64
7.65
8.52
9.04
9.03
8.36
7.04
5.28
3.40
1.77
0.63
0.09
0.08
0.46
1.08
1.79
2.52
3.14
3.56
3.68
3.47
2.99
2.39
1.81
1.37
1.09
0.93
0.80
0.68
0.65
0.81
1.24
1.93
2.71
3.36
3.66
3.54
3.06
2.43
1.82
1.31
0.91
0.50
-0.00
-0.63
-1.30
-1.88
-2.24
-2.31
-2.13
-1.81
-1.48
-1.28
-1.26
-1.41
-1.66
-1.86
-1.87
-1.53
-0.75
0.46
1.97
3.56
4.98
5.97
6.41
6.22
5.40
3.89
1.63
-1.42
-5.13
-9.16
-13.04
-16.32
-18.80
-20.59
-22.01
-23.43
-25.02
-26.76
-28.68
-30.96
-33.93
-37.75
-42.15
-46.43
-49.72
-51.48
-51.82
-51.25
-50.23
-48.64
-45.78
-40.84
-33.58
-24.68
-15.52
-7.41
-0.96
4.17
8.84
13.70
18.68
23.04
25.89
26.78
26.09
24.87
24.47
25.96
29.78
35.76
43.25
51.43
59.56
67.03
73.32
77.99
80.61
80.82
78.51
73.87
67.41
59.87
52.07
44.69
38.13
32.55
27.80
23.72
20.13
17.01
14.38
12.17
10.17
8.04
5.42
2.18
-1.52
-5.30
-8.76
-11.62
-13.86
-15.55
-16.73
-17.30
-17.16
-16.35
-15.20
-14.24
-14.03
-14.96
-17.03
-19.79
-22.32
-23.36
-21.52
-15.73
-5.64
8.01
23.38
38.00
49.46
56.17
57.70
54.73
48.57
40.69
32.33
24.38
17.39
11.46
6.22
0.90
-5.39
-13.23
-22.44
-31.95
-40.07
-44.92
-45.03
-39.69
-29.09
-14.44
2.29
18.49
31.46
38.99
39.97
34.69
24.81
12.85
1.51
-6.82
-10.53
-9.14
-3.41
4.54
11.82
15.56
14.02
7.22
-3.14
-14.62
-25.19
-34.08
-41.72
-48.93
-55.86
-61.52
-64.14
-62.25
-55.75
-46.20
-36.18
-27.95
-22.32
-18.53
-15.25
-11.90
-9.60
-10.93
-18.65
-34.17
-56.72
-83.53
-110.96
-135.83
-156.01
-170.32
-177.75
-176.87
-165.90
-143.53
-110.06
-68.07
-22.16
22.14
59.98
88.41
106.97
117.14
121.12
120.58
115.94
106.61
92.03
72.79
51.25
31.03
15.72
7.34
5.38
7.17
9.26
9.21
6.80
3.94
3.41
7.22
15.47
26.41
37.40
46.22
51.85
54.36
54.24
51.70
46.41
37.88
26.11
12.10
-2.15
-14.21
-22.15
-25.28
-24.45
-21.65
-19.08
-18.33
-19.74
-22.59
-25.64
-27.77
-28.42
-27.70
-26.03
-23.86
-21.51
-19.19
-17.19
-15.90
-15.68
-16.63
-18.44
-20.43
-21.86
-22.25
-21.56
-20.13
-18.41
-16.71
-15.03
-13.21
-11.06
-8.58
-5.93
-3.29
-0.72
1.88
4.77
8.27
12.70
18.35
25.34
33.51
42.36
50.99
58.31
63.30
65.34
64.33
60.79
55.77
50.70
47.21
46.76
50.23
57.51
67.42
77.99
86.99
92.60
93.83
90.57
83.29
72.69
59.47
44.35
27.98
10.93
-6.36
-23.62
-40.54
-56.49
-70.45
-81.04
-87.11
-88.26
-85.17
-79.41
-72.81
-66.64
-61.24
-56.14
-50.63
-44.41
-37.89
-31.96
-27.46
-24.73
-23.46
-22.89
-22.28
-21.29
-20.05
-19.07
-18.96
-20.25
-23.27
-27.94
-33.80
-39.98
-45.38
-49.06
-50.60
-50.23
-48.75
-47.15
-46.19
-46.24
-47.29
-49.06
-51.14
-52.93
-53.59
-52.19
-47.97
-40.64
-30.61
-18.89
-6.80
4.36
13.64
20.60
25.31
28.28
30.27
32.03
34.04
36.29
38.24
39.07
38.18
35.45
31.28
26.39
21.42
16.89
13.21
10.81
10.17
11.48
14.36
17.77
20.41
21.36
20.65
19.36
19.01
20.77
24.78
30.16
35.58
39.98
42.87
44.20
44.03
42.24
38.74
33.85
28.47
23.96
21.47
21.20
22.21
22.96
22.15
19.44
15.67
12.27
10.44
10.55
12.13
14.26
16.28
17.97
19.57
21.30
23.02
24.24
24.34
23.03
20.67
18.09
16.24
15.64
16.19
17.22
17.96
17.95
17.31
16.55
16.22
16.51
17.16
17.59
17.34
16.28
14.61
12.70
10.84
9.08
7.40
5.81
4.51
3.78
3.74
4.20
4.66
4.57
3.61
1.87
-0.18
-1.98
-3.20
-3.97
-4.77
-6.20
-8.63
-11.84
-15.10
-17.41
-17.94
-16.44
-13.42
-9.97
-7.42
-6.82
-8.55
-12.18
-16.68
-20.79
-23.50
-24.38
-23.68
-22.13
-20.61
-19.74
-19.71
-20.26
-20.93
-21.32
-21.29
-20.92
-20.42
-19.94
-19.51
-19.07
-18.63
-18.31
-18.35
-19.02
-20.48
-22.72
-25.54
-28.65
-31.64
-33.99
-35.08
-34.27
-31.15
-25.75
-18.60
-10.64
-2.78
4.30
10.45
15.81
20.63
24.93
28.55
31.26
33.03
34.12
34.97
35.88
36.80
37.21
36.40
33.82
29.35
23.34
16.48
9.52
3.09
-2.37
-6.59
-9.36
-10.66
-10.64
-9.77
-8.60
-7.62
-6.95
-6.40
-5.59
-4.34
-2.85
-1.65
-1.34
-2.25
-4.18
-6.50
-8.46
-9.59
-9.93
-10.05
-10.78
-12.78
-16.22
-20.62
-25.02
-28.27
-29.56
-28.61
-25.75
-21.66
-17.10
-12.59
-8.41
-4.69
-1.57
0.66
1.71
1.41
-0.09
-2.30
-4.51
-6.01
-6.33
-5.33
-3.18
-0.24
3.09
6.46
9.55
12.05
13.59
13.87
12.75
10.40
7.37
4.40
2.21
1.22
1.42
2.43
3.77
5.01
6.00
6.75
7.37
7.83
8.01
7.68
6.66
4.96
2.76
0.39
-1.72
-3.29
-4.18
-4.52
-4.58
-4.67
-5.00
-5.50
-5.88
-5.65
-4.31
-1.61
2.30
6.77
10.78
13.37
14.09
13.47
13.01
14.69
20.25
30.28
43.82
58.55
71.37
79.40
80.64
74.44
61.49
43.69
23.64
4.25
-11.86
-22.84
-28.06
-28.15
-24.69
-19.64
-14.64
-10.64
-7.89
-6.18
-5.24
-4.99
-5.49
-6.76
-8.53
-10.25
-11.31
-11.31
-10.33
-8.85
-7.54
-6.92
-7.17
-8.16
-9.57
-11.16
-12.77
-14.33
-15.75
-16.86
-17.44
-17.33
-16.57
-15.36
-14.02
-12.90
-12.24
-12.15
-12.55
-13.23
-13.82
-13.99
-13.45
-12.18
-10.42
-8.61
-7.28
-6.82
-7.36
-8.71
-10.49
-12.20
-13.48
-14.16
-14.30
-14.18
-14.09
-14.25
-14.70
-15.30
-15.82
-16.07
-15.98
-15.57
-14.95
-14.23
-13.42
-12.49
-11.35
-9.92
-8.13
-5.92
-3.29
-0.35
2.65
5.37
7.52
9.00
10.05
11.25
13.25
16.50
21.02
26.31
31.55
35.86
38.63
39.67
39.15
37.51
35.19
32.57
29.86
27.18
24.59
22.14
19.82
17.49
14.93
11.88
8.19
4.01
-0.26
-4.03
-6.79
-8.33
-8.83
-8.78
-8.72
-9.10
-10.11
-11.73
-13.81
-16.09
-18.28
-20.10
-21.30
-21.74
-21.48
-20.68
-19.59
-18.48
-17.51
-16.75
-16.16
-15.57
-14.67
-13.12
-10.66
-7.29
-3.35
0.54
3.67
5.52
5.97
5.30
4.04
2.74
1.73
1.09
0.68
0.38
0.19
0.22
0.60
1.38
2.39
3.28
3.71
3.52
2.83
1.99
1.41
1.29
1.52
1.74
1.46
0.37
-1.56
-4.00
-6.47
-8.46
-9.70
-10.13
-9.96
-9.47
-8.93
-8.49
-8.18
-7.94
-7.53
-6.55
-4.47
-0.74
5.01
12.65
21.47
30.23
37.48
41.99
43.12
40.91
36.01
29.27
21.55
13.45
5.36
-2.37
-9.36
-15.22
-19.58
-22.32
-23.60
-23.81
-23.39
-22.66
-21.74
-20.55
-19.04
-17.29
-15.54
-14.14
-13.43
-13.55
-14.41
-15.76
-17.25
-18.52
-19.31
-19.42
-18.79
-17.49
-15.64
-13.40
-10.89
-8.11
-4.99
-1.45
2.50
6.68
10.76
14.36
17.24
19.38
20.97
22.34
23.72
25.16
26.52
27.62
28.39
28.92
29.42
30.06
30.88
31.74
32.40
32.72
32.65
32.32
31.88
31.36
30.61
29.31
27.11
23.74
19.12
13.39
6.86
-0.08
-6.98
-13.38
-18.84
-23.08
-26.09
-28.19
-29.96
-31.99
-34.53
-37.33
-39.66
-40.64
-39.65
-36.57
-31.80
-26.05
-20.02
-14.32
-9.47
-5.89
-3.91
-3.59
-4.62
-6.25
-7.54
-7.64
-6.16
-3.25
0.53
4.42
7.80
10.28
11.72
12.21
11.95
11.24
10.38
9.67
9.28
9.24
9.42
9.61
9.61
9.35
8.88
8.44
8.29
8.64
9.55
10.84
12.09
12.75
12.35
10.74
8.32
5.89
4.43
4.53
6.10
8.27
9.80
9.68
7.59
4.07
0.15
-3.21
-5.60
-7.30
-8.96
-11.18
-14.12
-17.45
-20.59
-23.10
-24.87
-26.07
-26.92
-27.43
-27.39
-26.51
-24.78
-22.59
-20.67
-19.66
-19.77
-20.55
-21.14
-20.68
-18.76
-15.68
-12.18
-9.09
-6.74
-4.81
-2.45
1.29
6.92
14.23
22.35
30.05
36.23
40.27
42.17
42.34
41.30
39.31
36.33
32.18
26.76
20.26
13.07
5.65
-1.76
-9.09
-16.25
-22.82
-27.90
-30.36
-29.22
-24.27
-16.34
-7.08
1.56
8.04
11.72
12.78
12.01
10.27
8.09
5.61
2.66
-0.88
-4.89
-8.93
-12.43
-14.89
-16.12
-16.29
-15.73
-14.76
-13.50
-11.97
-10.26
-8.61
-7.39
-6.85
-6.98
-7.48
-7.92
-8.05
-7.89
-7.66
-7.56
-7.53
-7.18
-5.95
-3.35
0.76
6.12
12.09
17.93
22.90
26.47
28.37
28.59
27.32
24.83
21.37
17.10
12.19
6.81
1.29
-4.03
-8.82
-12.90
-16.20
-18.75
-20.54
-21.49
-21.37
-19.99
-17.32
-13.68
-9.68
-6.00
-3.15
-1.16
0.32
1.86
3.94
6.67
9.77
12.78
15.23
16.87
17.71
17.95
17.81
17.47
17.00
16.42
15.69
14.78
13.67
12.35
10.80
8.94
6.68
3.94
0.72
-2.90
-6.74
-10.56
-14.01
-16.71
-18.33
-18.66
-17.73
-15.82
-13.45
-11.16
-9.37
-8.17
-7.34
-6.38
-4.76
-2.14
1.53
5.96
10.60
14.74
17.62
18.54
17.02
12.91
6.52
-1.30
-9.34
-16.27
-21.02
-23.16
-22.98
-21.36
-19.38
-17.92
-17.36
-17.57
-18.07
-18.23
-17.52
-15.62
-12.47
-8.27
-3.38
1.78
6.85
11.62
15.97
19.81
22.99
25.30
26.55
26.70
25.93
24.59
23.01
21.36
19.51
17.19
14.14
10.28
5.79
1.03
-3.62
-7.84
-11.52
-14.63
-17.18
-19.14
-20.36
-20.66
-19.92
-18.20
-15.71
-12.75
-9.52
-6.02
-2.09
2.46
7.61
12.99
18.01
22.00
24.53
25.52
25.28
24.28
22.94
21.53
20.15
18.75
17.19
15.24
12.58
8.92
4.13
-1.65
-7.91
-13.96
-19.11
-22.90
-25.21
-26.18
-26.09
-25.14
-23.49
-21.23
-18.42
-15.14
-11.49
-7.53
-3.33
1.00
5.30
9.33
12.82
15.55
17.33
18.03
17.58
15.91
13.03
9.11
4.46
-0.54
-5.55
-10.38
-15.03
-19.53
-23.76
-27.39
-29.92
-30.89
-30.07
-27.55
-23.70
-18.99
-13.90
-8.82
-4.02
0.34
4.30
8.06
11.99
16.35
21.11
25.88
30.01
32.84
34.07
33.82
32.58
30.95
29.26
27.42
24.96
21.22
15.75
8.58
0.38
-7.75
-14.65
-19.54
-22.23
-23.15
-22.98
-22.35
-21.56
-20.56
-19.10
-16.88
-13.71
-9.50
-4.36
1.35
7.04
12.00
15.62
17.66
18.36
18.34
18.30
18.68
19.42
20.07
19.96
18.55
15.58
11.11
5.40
-1.19
-8.30
-15.50
-22.33
-28.17
-32.42
-34.54
-34.28
-31.82
-27.78
-23.04
-18.46
-14.48
-11.01
-7.53
-3.41
1.68
7.59
13.74
19.36
23.85
26.90
28.48
28.62
27.28
24.39
20.02
14.51
8.46
2.57
-2.56
-6.62
-9.57
-11.58
-12.90
-13.78
-14.35
-14.61
-14.46
-13.75
-12.41
-10.50
-8.31
-6.21
-4.55
-3.51
-3.05
-3.06
-3.38
-3.93
-4.66
-5.50
-6.38
-7.21
-7.89
-8.36
-8.55
-8.40
-7.85
-6.94
-5.72
-4.30
-2.65
-0.55
2.38
6.52
12.03
18.63
25.60
32.00
36.85
39.52
39.77
37.87
34.37
30.05
25.67
21.84
18.94
16.99
15.64
14.36
12.56
9.84
6.06
1.40
-3.80
-9.09
-14.04
-18.34
-21.84
-24.54
-26.62
-28.32
-29.86
-31.33
-32.68
-33.75
-34.29
-34.06
-32.83
-30.45
-26.85
-22.00
-16.03
-9.16
-1.74
5.81
13.00
19.35
24.38
27.78
29.48
29.72
28.94
27.66
26.22
24.76
23.27
21.73
20.26
19.04
18.11
17.21
15.78
13.15
8.83
2.86
-4.22
-11.56
-18.37
-24.19
-28.98
-32.96
-36.40
-39.41
-41.94
-43.80
-44.85
-44.96
-44.04
-41.96
-38.59
-33.81
-27.67
-20.46
-12.68
-4.91
2.33
8.78
14.41
19.32
23.61
27.24
30.10
32.09
33.20
33.54
33.24
32.23
30.21
26.73
21.42
14.31
5.89
-2.93
-11.25
-18.46
-24.33
-28.88
-32.02
-33.38
-32.43
-28.85
-22.92
-15.62
-8.33
-2.27
1.96
4.54
6.09
7.22
8.12
8.52
8.02
6.50
4.28
2.09
0.64
0.36
1.12
2.44
3.73
4.68
5.34
6.08
7.30
9.12
11.28
13.26
14.61
15.14
15.01
14.57
14.11
13.66
13.02
11.90
10.18
7.99
5.63
3.43
1.53
-0.06
-1.44
-2.61
-3.43
-3.64
-3.06
-1.74
0.03
1.79
3.10
3.73
3.69
3.18
2.49
1.85
1.42
1.26
1.40
1.74
2.13
2.36
2.22
1.71
0.98
0.37
0.14
0.42
1.06
1.80
2.30
2.34
1.85
0.89
-0.43
-1.90
-3.33
-4.52
-5.35
-5.87
-6.31
-7.02
-8.33
-10.42
-13.17
-16.15
-18.76
-20.35
-20.45
-18.94
-16.00
-12.12
-7.85
-3.69
0.06
3.36
6.34
9.19
12.04
14.87
17.55
19.83
21.50
22.41
22.57
22.09
21.21
20.15
19.09
18.09
17.12
16.05
14.75
13.12
11.17
8.88
6.10
2.58
-2.01
-7.81
-14.68
-22.06
-29.19
-35.31
-39.92
-42.82
-43.93
-43.18
-40.42
-35.53
-28.72
-20.67
-12.45
-5.17
0.41
4.16
6.52
8.19
9.83
11.74
13.84
15.77
17.18
17.81
17.58
16.48
14.52
11.67
7.92
3.33
-1.98
-7.79
-13.89
-20.10
-26.21
-31.86
-36.45
-39.27
-39.64
-37.16
-31.92
-24.46
-15.63
-6.44
2.20
9.58
15.21
18.92
20.82
21.33
21.00
20.39
19.93
19.80
19.99
20.41
20.98
21.60
22.20
22.70
23.02
23.12
22.95
22.46
21.54
20.07
18.01
15.41
12.50
9.61
7.10
5.27
4.23
3.85
3.73
3.23
1.68
-1.33
-5.76
-11.07
-16.37
-20.79
-23.75
-25.11
-25.14
-24.18
-22.53
-20.27
-17.43
-14.08
-10.54
-7.28
-4.76
-3.22
-2.44
-1.83
-0.64
1.75
5.48
10.19
15.13
19.57
23.07
25.61
27.37
28.49
28.89
28.28
26.41
23.32
19.45
15.41
11.72
8.48
5.45
2.29
-1.14
-4.70
-8.19
-11.67
-15.51
-20.01
-24.92
-29.17
-31.09
-29.18
-22.93
-13.18
-1.87
8.77
17.15
22.78
26.05
27.70
28.32
28.05
26.77
24.19
19.94
13.55
4.53
-7.39
-21.93
-37.99
-53.69
-66.83
-75.38
-78.00
-74.34
-65.07
-51.69
-36.21
-20.87
-7.69
1.93
7.57
9.76
9.73
8.85
8.19
8.29
9.15
10.49
12.05
13.63
15.13
16.39
17.25
17.61
17.52
17.22
16.98
16.99
17.21
17.41
17.35
16.95
16.39
15.94
15.79
15.91
15.94
15.47
14.15
11.94
9.08
5.97
3.02
0.56
-1.15
-1.94
-1.73
-0.59
1.22
3.19
4.75
5.36
4.79
3.14
0.82
-1.52
-3.27
-4.01
-3.64
-2.38
-0.68
0.90
1.80
1.65
0.37
-1.86
-4.52
-6.96
-8.61
-9.18
-8.72
-7.65
-6.52
-5.76
-5.59
-5.88
-6.29
-6.44
-6.07
-5.07
-3.57
-1.86
-0.32
0.73
1.14
1.06
0.83
0.90
1.62
2.98
4.54
5.50
4.93
2.10
-3.16
-10.27
-17.93
-24.41
-28.07
-27.89
-23.80
-16.74
-8.25
0.07
7.10
12.43
16.28
19.13
21.30
22.72
22.95
21.43
17.83
12.36
5.79
-0.62
-5.60
-8.19
-8.07
-5.68
-2.02
1.66
4.28
5.19
4.33
2.04
-1.03
-4.27
-7.24
-9.77
-12.01
-14.35
-17.22
-20.93
-25.39
-30.04
-33.97
-36.11
-35.59
-32.04
-25.63
-17.08
-7.42
2.26
10.96
17.89
22.53
24.69
24.61
22.91
20.60
18.77
18.32
19.64
22.46
25.89
28.79
30.21
29.78
27.79
25.01
22.24
19.88
17.77
15.34
11.98
7.43
1.82
-4.44
-10.97
-17.52
-23.94
-29.95
-35.10
-38.86
-40.88
-41.22
-40.26
-38.50
-36.07
-32.60
-27.38
-19.80
-9.83
1.74
13.45
23.72
31.30
35.74
37.31
36.76
34.87
32.17
28.90
25.08
20.70
15.63
9.55
1.84
-8.19
-20.77
-35.08
-49.01
-59.62
-64.23
-61.57
-52.49
-39.62
-26.26
-14.93
-6.56
-0.47
4.73
10.11
15.81
21.13
25.18
27.55
28.49
28.64
28.50
28.05
26.84
24.34
20.50
16.01
12.05
9.91
10.27
13.00
17.05
20.96
23.40
23.70
22.05
19.34
16.68
14.92
14.32
14.52
14.80
14.35
12.61
9.36
4.73
-0.96
-7.29
-13.86
-20.22
-25.90
-30.41
-33.30
-34.29
-33.39
-30.96
-27.68
-24.29
-21.35
-18.96
-16.74
-14.06
-10.34
-5.43
0.36
6.29
11.55
15.56
18.18
19.68
20.45
20.70
20.16
18.14
13.84
6.87
-2.30
-12.27
-21.09
-26.95
-28.86
-27.02
-22.53
-16.84
-11.08
-5.83
-1.23
2.66
5.72
7.80
8.94
9.47
9.93
10.79
12.18
13.83
15.32
16.31
16.68
16.30
14.66
10.82
3.84
-6.41
-18.59
-29.92
-37.06
-37.58
-31.10
-19.54
-6.16
5.83
14.61
20.14
23.55
26.05
28.12
29.35
29.03
26.80
23.03
18.62
14.58
11.40
8.95
6.58
3.60
-0.33
-5.00
-9.71
-13.61
-16.02
-16.70
-15.85
-13.94
-11.53
-9.07
-6.78
-4.75
-2.91
-1.16
0.58
2.33
4.08
5.76
7.36
8.88
10.37
11.83
13.24
14.43
15.25
15.55
15.28
14.52
13.43
12.15
10.82
9.54
8.43
7.58
6.97
6.41
5.50
3.78
0.89
-3.23
-8.26
-13.71
-19.01
-23.72
-27.52
-30.14
-31.25
-30.52
-27.78
-23.20
-17.42
-11.30
-5.74
-1.28
2.00
4.40
6.38
8.36
10.55
12.96
15.42
17.61
19.16
19.68
18.92
16.84
13.71
10.06
6.50
3.51
1.31
-0.24
-1.51
-2.98
-4.97
-7.65
-10.93
-14.53
-18.09
-21.26
-23.75
-25.35
-25.96
-25.48
-23.92
-21.44
-18.42
-15.38
-12.91
-11.40
-10.92
-11.18
-11.65
-11.80
-11.27
-9.94
-7.95
-5.56
-3.14
-1.03
0.47
1.16
1.01
0.15
-1.22
-2.86
-4.60
-6.30
-7.81
-8.92
-9.33
-8.74
-6.99
-4.10
-0.41
3.60
7.35
10.41
12.49
13.59
13.88
13.64
13.12
12.50
11.79
10.94
9.87
8.56
7.08
5.56
4.20
3.23
2.81
3.02
3.80
4.94
6.13
7.07
7.57
7.63
7.43
7.25
7.31
7.66
8.20
8.74
9.14
9.41
9.72
10.33
11.41
13.01
14.95
16.90
18.43
19.08
18.49
16.47
13.18
9.17
5.30
2.42
1.04
0.96
1.42
1.35
-0.14
-3.42
-8.24
-13.93
-19.67
-24.71
-28.47
-30.50
-30.49
-28.37
-24.36
-18.99
-12.96
-6.93
-1.38
3.47
7.55
10.87
13.40
15.16
16.15
16.39
15.83
14.37
11.85
8.19
3.55
-1.60
-6.48
-10.28
-12.38
-12.68
-11.63
-10.04
-8.75
-8.21
-8.32
-8.54
-8.08
-6.39
-3.30
0.91
5.62
10.12
13.71
15.82
16.00
13.98
9.73
3.53
-3.99
-11.95
-19.36
-25.31
-29.20
-30.88
-30.62
-28.90
-26.18
-22.71
-18.52
-13.58
-7.87
-1.63
4.61
10.18
14.45
17.05
17.95
17.38
15.72
13.47
11.02
8.59
6.22
3.84
1.44
-0.98
-3.31
-5.41
-6.92
-7.77
-8.27
-9.07
-10.65
-13.03
-15.73
-18.05
-19.43
-19.28
-17.75
-15.92
-15.20
-16.35
-18.99
-21.84
-23.47
-22.94
-19.43
-13.22
-6.03
-0.37
1.82
0.14
-4.10
-8.28
-9.09
-2.48
14.02
39.63
70.47
101.18
126.72
143.44
149.52
138.75
109.98
70.06
30.49
-0.37
-20.85
-33.80
-42.83
-49.96
-55.04
-55.66
-49.95
-38.82
-26.01
-15.80
-10.75
-10.66
-13.08
-14.79
-12.91
-6.90
0.27
3.54
-1.01
-14.23
-33.25
-52.73
-67.21
-72.72
-68.29
-56.84
-43.70
-34.16
-31.63
-36.84
-47.89
-61.02
-71.25
-73.28
-63.81
-42.77
-13.41
18.64
47.33
68.37
80.59
82.12
74.75
62.00
47.49
33.95
23.01
15.53
11.86
11.79
14.48
19.09
24.27
28.62
31.17
31.72
30.79
29.20
27.59
26.06
24.57
22.66
19.79
15.79
11.07
6.42
2.48
-0.84
-4.49
-9.60
-16.95
-26.25
-35.91
-43.53
-46.87
-44.74
-37.43
-26.28
-12.81
1.84
17.16
33.01
49.21
65.19
79.97
92.43
101.67
107.25
108.97
106.67
100.08
89.02
73.83
55.87
37.65
22.15
11.68
6.65
5.13
3.62
-1.29
-11.43
-26.32
-43.67
-60.77
-75.65
-87.28
-94.95
-97.61
-93.82
-82.51
-64.12
-41.02
-16.93
4.48
21.01
32.39
39.79
44.63
47.53
47.97
44.63
36.10
21.67
1.73
-22.22
-47.81
-72.14
-92.27
-105.72
-111.09
-108.47
-99.43
-86.58
-72.83
-60.41
-50.38
-42.56
-36.09
-30.08
-24.20
-18.63
-13.65
-9.24
-4.85
0.22
6.17
12.40
17.64
20.56
20.48
17.76
13.60
9.51
6.59
5.15
4.78
4.74
4.41
3.59
2.47
1.47
0.97
1.18
2.13
3.70
5.63
7.55
9.07
9.85
9.70
8.72
7.22
5.63
4.29
3.31
2.61
2.08
1.70
1.59
1.88
2.63
3.65
4.68
5.52
6.28
7.37
9.28
12.32
16.35
20.77
24.63
27.05
27.35
25.29
21.01
14.93
7.60
-0.36
-8.33
-15.76
-22.05
-26.69
-29.21
-29.37
-27.22
-23.16
-17.90
-12.23
-6.87
-2.20
1.70
4.99
7.79
10.10
11.76
12.59
12.62
12.13
11.61
11.49
11.90
12.64
13.29
13.47
13.07
12.26
11.38
10.64
9.99
9.11
7.72
5.73
3.38
1.12
-0.57
-1.49
-1.68
-1.44
-1.12
-0.94
-0.96
-1.10
-1.23
-1.19
-0.81
0.10
1.69
3.95
6.69
9.48
11.84
13.34
13.85
13.50
12.71
11.95
11.59
11.73
12.18
12.58
12.56
11.95
10.88
9.65
8.56
7.78
7.29
6.92
6.58
6.29
6.11
6.10
6.16
6.04
5.46
4.28
2.56
0.61
-1.17
-2.43
-2.99
-2.86
-2.25
-1.44
-0.73
-0.27
-0.06
0.04
0.18
0.43
0.70
0.74
0.30
-0.77
-2.41
-4.39
-6.44
-8.37
-10.19
-11.99
-13.86
-15.70
-17.21
-17.99
-17.70
-16.28
-13.94
-11.09
-8.12
-5.25
-2.54
0.04
2.38
4.25
5.34
5.51
4.91
4.01
3.31
3.13
3.39
3.65
3.37
2.27
0.54
-1.18
-2.13
-1.78
-0.16
2.06
3.82
4.17
2.64
-0.47
-4.29
-7.74
-10.00
-10.79
-10.33
-9.13
-7.61
-6.01
-4.41
-2.87
-1.61
-0.91
-1.00
-1.80
-2.94
-3.85
-4.05
-3.36
-2.00
-0.49
0.57
0.71
-0.28
-2.28
-4.93
-7.69
-9.98
-11.31
-11.40
-10.24
-8.16
-5.70
-3.45
-1.90
-1.26
-1.44
-2.11
-2.90
-3.40
-3.31
-2.43
-0.58
2.32
6.34
11.43
17.45
24.12
31.02
37.59
43.17
47.04
48.56
47.33
43.38
37.19
29.61
21.65
14.17
7.68
2.26
-2.34
-6.53
-10.60
-14.65
-18.50
-21.88
-24.51
-26.20
-26.87
-26.53
-25.23
-23.08
-20.28
-17.09
-13.79
-10.66
-7.88
-5.47
-3.34
-1.32
0.75
2.91
5.06
7.00
8.43
9.14
9.03
8.27
7.16
6.08
5.19
4.38
3.28
1.37
-1.83
-6.56
-12.87
-20.56
-29.24
-38.27
-46.71
-53.45
-57.43
-58.06
-55.42
-50.37
-44.25
-38.47
-33.87
-30.36
-26.77
-21.24
-11.88
2.36
21.06
42.21
62.77
79.67
90.76
95.37
94.17
88.49
79.62
68.39
55.20
40.42
24.71
9.14
-5.09
-17.00
-26.13
-32.56
-36.72
-39.05
-39.76
-38.78
-35.94
-31.23
-25.01
-18.09
-11.52
-6.26
-2.90
-1.54
-1.81
-3.13
-4.91
-6.68
-8.04
-8.55
-7.65
-4.72
0.68
8.61
18.48
29.12
39.00
46.61
50.89
51.38
48.24
42.15
34.00
24.67
14.98
5.63
-2.79
-9.79
-15.07
-18.59
-20.66
-21.88
-22.98
-24.54
-26.70
-29.14
-31.18
-32.16
-31.72
-30.02
-27.63
-25.25
-23.37
-22.13
-21.38
-20.84
-20.31
-19.64
-18.74
-17.50
-15.87
-13.98
-12.17
-10.88
-10.34
-10.29
-10.03
-8.69
-5.78
-1.38
4.03
10.07
16.93
25.36
36.20
49.56
64.36
78.36
88.90
93.84
92.21
84.40
71.72
55.81
38.09
19.60
1.12
-16.67
-32.99
-47.06
-58.24
-66.22
-71.08
-73.16
-72.83
-70.34
-65.80
-59.41
-51.63
-43.30
-35.40
-28.72
-23.44
-19.01
-14.37
-8.32
-0.05
10.62
23.14
36.46
49.30
60.36
68.56
73.11
73.63
70.16
63.15
53.34
41.61
28.86
15.89
3.37
-8.17
-18.28
-26.59
-32.89
-37.07
-39.19
-39.40
-37.92
-35.03
-31.02
-26.23
-21.04
-15.89
-11.25
-7.52
-5.01
-3.83
-3.88
-4.85
-6.32
-7.91
-9.31
-10.33
-10.80
-10.50
-9.15
-6.44
-2.21
3.40
9.97
16.79
23.18
28.62
32.86
35.92
37.98
39.25
39.86
39.88
39.27
37.91
35.59
32.11
27.36
21.40
14.53
7.22
0.07
-6.40
-11.80
-16.00
-19.05
-21.17
-22.63
-23.71
-24.55
-25.19
-25.56
-25.62
-25.41
-25.11
-24.96
-25.13
-25.66
-26.43
-27.20
-27.69
-27.70
-27.16
-26.18
-24.99
-23.83
-22.82
-21.86
-20.55
-18.39
-14.89
-9.84
-3.47
3.72
11.09
18.22
24.91
31.18
36.94
41.87
45.38
46.89
46.14
43.42
39.55
35.57
32.41
30.51
29.75
29.55
29.04
27.33
23.66
17.56
8.99
-1.59
-13.31
-25.08
-35.85
-44.85
-51.72
-56.44
-59.18
-60.12
-59.35
-56.85
-52.62
-46.83
-39.90
-32.52
-25.50
-19.63
-15.38
-12.79
-11.42
-10.45
-9.00
-6.31
-1.88
4.41
12.34
21.38
30.70
39.29
46.16
50.49
51.85
50.23
46.00
39.68
31.88
23.10
13.78
4.31
-4.92
-13.42
-20.65
-26.06
-29.18
-29.80
-28.10
-24.68
-20.41
-16.11
-12.30
-9.00
-5.84
-2.32
1.88
6.62
11.38
15.40
17.99
18.79
17.81
15.38
11.97
8.01
3.83
-0.34
-4.25
-7.63
-10.19
-11.70
-12.14
-11.67
-10.62
-9.32
-8.07
-7.09
-6.52
-6.48
-7.00
-7.99
-9.25
-10.51
-11.52
-12.16
-12.37
-12.11
-11.26
-9.63
-7.04
-3.44
0.96
5.76
10.47
14.66
18.14
20.92
23.16
25.07
26.82
28.56
30.38
32.30
34.25
36.07
37.53
38.42
38.62
38.16
37.10
35.41
32.93
29.39
24.62
18.70
12.09
5.51
-0.25
-4.70
-7.72
-9.57
-10.70
-11.52
-12.23
-12.80
-13.12
-13.15
-13.00
-12.93
-13.17
-13.78
-14.62
-15.39
-15.87
-16.06
-16.22
-16.79
-18.10
-20.13
-22.54
-24.73
-26.19
-26.70
-26.32
-25.28
-23.69
-21.44
-18.31
-14.21
-9.39
-4.50
-0.30
2.69
4.41
5.37
6.36
8.10
10.99
14.92
19.34
23.47
26.50
27.74
26.75
23.36
17.71
10.18
1.38
-7.96
-17.05
-25.18
-31.79
-36.58
-39.54
-40.93
-41.10
-40.41
-39.05
-37.02
-34.23
-30.57
-26.01
-20.72
-15.02
-9.32
-4.04
0.54
4.35
7.61
10.81
14.62
19.66
26.26
34.31
43.19
51.85
59.05
63.58
64.42
61.01
53.35
42.10
28.53
14.27
0.89
-10.52
-19.56
-26.43
-31.48
-34.84
-36.26
-35.21
-31.42
-25.21
-17.73
-10.53
-5.08
-2.14
-1.56
-2.50
-3.91
-5.01
-5.47
-5.33
-4.77
-3.84
-2.46
-0.54
1.82
4.23
6.14
6.99
6.47
4.54
1.43
-2.46
-6.68
-10.72
-14.14
-16.51
-17.51
-16.95
-14.90
-11.64
-7.67
-3.58
0.06
2.85
4.62
5.48
5.75
5.90
6.34
7.35
8.97
11.05
13.34
15.56
17.52
19.13
20.40
21.41
22.27
23.11
24.08
25.27
26.63
27.94
28.82
28.88
27.83
25.67
22.60
18.95
15.03
11.06
7.21
3.65
0.62
-1.64
-2.99
-3.42
-3.05
-2.02
-0.43
1.67
4.17
6.83
9.22
10.85
11.31
10.40
8.11
4.61
0.14
-5.07
-10.73
-16.56
-22.29
-27.67
-32.55
-36.77
-40.20
-42.65
-43.93
-43.93
-42.70
-40.48
-37.56
-34.20
-30.46
-26.28
-21.46
-15.81
-9.28
-2.01
5.74
13.54
20.97
27.64
33.24
37.58
40.49
41.76
41.06
38.06
32.60
24.84
15.30
4.73
-6.07
-16.50
-26.14
-34.72
-42.03
-47.86
-52.12
-54.77
-55.80
-55.13
-52.53
-47.74
-40.70
-31.81
-21.96
-12.39
-4.20
1.99
6.26
9.22
11.71
14.44
17.74
21.61
25.79
29.95
33.68
36.56
38.12
37.87
35.43
30.62
23.63
15.13
6.23
-1.71
-7.38
-9.88
-9.06
-5.63
-0.92
3.51
6.50
7.58
7.02
5.55
3.90
2.48
1.36
0.47
-0.21
-0.48
-0.12
0.88
2.19
3.19
3.26
2.09
-0.12
-2.74
-5.01
-6.33
-6.48
-5.56
-3.81
-1.39
1.66
5.30
9.34
13.31
16.56
18.48
18.81
17.72
15.80
13.74
12.07
10.86
9.81
8.39
6.05
2.51
-2.18
-7.67
-13.49
-19.24
-24.74
-30.04
-35.17
-39.96
-43.90
-46.23
-46.30
-43.86
-39.27
-33.36
-27.14
-21.39
-16.53
-12.64
-9.58
-7.02
-4.36
-0.71
4.92
13.18
23.91
35.92
47.32
56.19
61.33
62.65
60.93
57.32
52.67
47.34
41.29
34.50
27.31
20.45
14.75
10.76
8.48
7.39
6.74
5.87
4.48
2.64
0.62
-1.31
-3.03
-4.53
-5.81
-6.82
-7.48
-7.74
-7.70
-7.59
-7.61
-7.83
-8.15
-8.39
-8.46
-8.45
-8.62
-9.24
-10.41
-12.00
-13.71
-15.35
-16.90
-18.60
-20.71
-23.35
-26.34
-29.25
-31.56
-32.83
-32.84
-31.58
-29.12
-25.58
-21.06
-15.71
-9.78
-3.68
2.15
7.33
11.62
15.00
17.60
19.66
21.34
22.72
23.80
24.53
24.85
24.69
23.91
22.26
19.51
15.52
10.47
4.79
-0.85
-5.82
-9.75
-12.54
-14.40
-15.62
-16.51
-17.27
-18.01
-18.75
-19.46
-19.99
-20.18
-19.88
-19.08
-17.90
-16.59
-15.39
-14.48
-13.90
-13.54
-13.20
-12.59
-11.40
-9.37
-6.35
-2.40
2.23
7.12
11.78
15.78
18.79
20.66
21.38
21.12
20.14
18.78
17.33
15.98
14.74
13.51
12.11
10.41
8.38
6.08
3.69
1.40
-0.62
-2.24
-3.41
-4.17
-4.63
-4.89
-5.00
-4.97
-4.75
-4.29
-3.61
-2.79
-1.95
-1.16
-0.38
0.45
1.43
2.60
3.88
5.14
6.21
7.00
7.51
7.77
7.80
7.60
7.15
6.45
5.61
4.80
4.18
3.84
3.77
3.80
3.79
3.60
3.20
2.64
1.99
1.29
0.59
-0.07
-0.64
-1.11
-1.46
-1.75
-2.02
-2.32
-2.69
-3.14
-3.67
-4.28
-4.93
-5.51
-5.83
-5.73
-5.07
-3.92
-2.45
-0.97
0.25
1.06
1.50
1.74
1.98
2.38
2.92
3.46
3.82
3.86
3.60
3.13
2.65
2.30
2.08
1.92
1.66
1.19
0.48
-0.34
-1.16
-1.82
-2.26
-2.47
-2.48
-2.36
-2.13
-1.89
-1.70
-1.66
-1.83
-2.18
-2.62
-3.05
-3.43
-3.78
-4.20
-4.76
-5.42
-6.02
-6.33
-6.18
-5.50
-4.40
-3.10
-1.78
-0.57
0.53
1.55
2.56
3.55
4.45
5.12
5.45
5.43
5.13
4.75
4.49
4.46
4.66
4.99
5.27
5.34
5.15
4.72
4.19
3.66
3.24
2.94
2.73
2.55
2.34
2.07
1.70
1.26
0.77
0.22
-0.35
-0.94
-1.51
-2.01
-2.42
-2.74
-2.99
-3.26
-3.62
-4.10
-4.71
-5.35
-5.89
-6.21
-6.17
-5.75
-4.96
-3.86
-2.58
-1.26
-0.04
0.97
1.71
2.21
2.54
2.79
3.00
3.17
3.26
3.25
3.13
2.89
2.52
2.03
1.44
0.84
0.35
0.12
0.18
0.46
0.78
0.94
0.85
0.50
-0.00
-0.56
-1.08
-1.52
-1.87
-2.17
-2.47
-2.87
-3.48
-4.33
-5.31
-6.24
-6.85
-7.00
-6.69
-6.07
-5.35
-4.76
-4.40
-4.31
-4.49
-4.79
-4.94
-4.51
-3.00
-0.09
4.18
9.27
14.33
18.46
21.11
22.19
22.05
21.19
20.03
18.75
17.31
15.65
13.75
11.68
9.48
7.15
4.63
1.90
-0.95
-3.66
-5.91
-7.47
-8.22
-8.26
-7.78
-7.03
-6.23
-5.57
-5.20
-5.15
-5.37
-5.68
-5.87
-5.77
-5.34
-4.75
-4.26
-4.11
-4.41
-5.01
-5.65
-6.10
-6.29
-6.30
-6.30
-6.39
-6.54
-6.61
-6.42
-5.85
-4.91
-3.71
-2.41
-1.14
-0.01
0.94
1.71
2.35
2.96
3.58
4.23
4.82
5.25
5.45
5.41
5.20
4.88
4.46
3.90
3.16
2.31
1.47
0.84
0.53
0.50
0.61
0.66
0.51
0.18
-0.27
-0.71
-1.10
-1.46
-1.83
-2.23
-2.62
-2.90
-2.98
-2.81
-2.43
-1.98
-1.61
-1.46
-1.61
-2.04
-2.63
-3.21
-3.61
-3.71
-3.50
-3.03
-2.39
-1.62
-0.74
0.23
1.23
2.13
2.78
3.09
3.03
2.70
2.26
1.87
1.63
1.54
1.54
1.61
1.75
1.98
2.27
2.55
2.67
2.50
1.99
1.27
0.55
0.02
-0.24
-0.30
-0.34
-0.48
-0.76
-1.05
-1.24
-1.27
-1.22
-1.24
-1.50
-2.06
-2.91
-3.93
-5.00
-5.99
-6.83
-7.46
-7.87
-8.10
-8.21
-8.30
-8.45
-8.65
-8.82
-8.82
-8.51
-7.92
-7.22
-6.78
-6.95
-7.93
-9.67
-11.78
-13.72
-15.01
-15.41
-15.04
-14.30
-13.71
-13.66
-14.31
-15.53
-16.84
-17.44
-16.24
-12.19
-4.63
6.20
19.01
31.71
42.03
48.40
50.39
48.76
44.87
40.07
35.18
30.56
26.34
22.74
20.09
18.67
18.38
18.79
19.31
19.48
19.18
18.56
17.81
16.94
15.66
13.52
10.10
5.15
-1.35
-9.14
-17.79
-26.72
-35.31
-42.92
-49.02
-53.24
-55.40
-55.59
-54.16
-51.58
-48.31
-44.55
-40.16
-34.69
-27.73
-19.26
-9.83
-0.41
8.04
15.08
20.89
26.06
31.09
35.89
39.86
42.21
42.58
41.45
39.95
39.30
40.22
42.52
45.30
47.47
48.23
47.41
45.21
41.84
37.21
30.96
22.84
13.05
2.42
-7.87
-16.88
-24.34
-30.65
-36.57
-42.56
-48.45
-53.50
-56.88
-58.15
-57.53
-55.63
-52.98
-49.71
-45.57
-40.27
-33.78
-26.39
-18.39
-9.80
-0.39
10.04
21.16
31.94
40.96
47.03
49.82
50.01
48.89
47.64
46.76
45.90
44.16
40.63
34.78
26.69
16.87
6.04
-5.02
-15.66
-25.37
-33.73
-40.40
-45.15
-47.95
-48.95
-48.49
-47.05
-45.05
-42.68
-39.86
-36.25
-31.50
-25.40
-18.06
-9.83
-1.24
7.24
15.29
22.76
29.56
35.66
40.99
45.44
48.80
50.74
50.86
48.74
44.19
37.39
28.98
19.91
11.11
3.21
-3.61
-9.52
-14.77
-19.43
-23.35
-26.30
-28.14
-28.91
-28.84
-28.15
-26.94
-25.18
-22.78
-19.75
-16.30
-12.78
-9.60
-7.06
-5.30
-4.26
-3.76
-3.55
-3.36
-3.00
-2.37
-1.52
-0.57
0.34
1.08
1.62
2.00
2.33
2.69
3.14
3.68
4.21
4.58
4.65
4.27
3.40
2.14
0.65
-0.77
-1.89
-2.56
-2.82
-2.88
-3.02
-3.47
-4.32
-5.50
-6.78
-7.91
-8.70
-9.07
-9.06
-8.75
-8.28
-7.75
-7.25
-6.82
-6.49
-6.26
-6.08
-5.89
-5.64
-5.35
-5.24
-5.76
-7.42
-10.49
-14.38
-17.40
-16.89
-10.15
4.38
26.09
52.07
77.95
99.42
113.58
119.53
118.03
110.71
99.16
84.58
67.64
48.67
27.62
4.01
-22.99
-54.17
-89.45
-127.06
-163.23
-192.58
-209.38
-209.42
-191.70
-159.10
-117.55
-74.00
-34.11
-0.75
26.01
47.60
65.22
78.73
86.91
88.70
84.35
75.86
66.28
58.31
53.08
49.88
46.87
42.21
35.01
25.62
15.35
5.80
-1.80
-7.05
-10.30
-12.35
-13.86
-15.07
-15.67
-15.10
-13.00
-9.56
-5.56
-2.11
-0.15
0.00
-1.26
-2.96
-4.05
-3.84
-2.24
0.28
3.00
5.25
6.67
7.25
7.25
6.99
6.73
6.51
6.25
5.81
5.17
4.42
3.76
3.41
3.45
3.80
4.27
4.63
4.72
4.53
4.12
3.63
3.18
2.87
2.72
2.72
2.78
2.81
2.69
2.34
1.79
1.13
0.53
0.13
-0.04
-0.04
-0.02
-0.07
-0.15
-0.13
0.18
0.84
1.78
2.76
3.53
3.93
4.00
3.88
3.77
3.79
3.90
4.00
4.00
3.87
3.64
3.38
3.16
3.00
2.89
2.84
2.83
2.88
2.92
2.87
2.61
2.05
1.21
0.20
-0.84
-1.75
-2.45
-2.95
-3.28
-3.48
-3.54
-3.45
-3.21
-2.92
-2.70
-2.68
-2.88
-3.20
-3.43
-3.40
-3.02
-2.33
-1.48
-0.62
0.19
0.95
1.71
2.52
3.34
4.11
4.77
5.30
5.71
6.06
6.34
6.54
6.61
6.51
6.27
5.98
5.73
5.56
5.44
5.31
5.11
4.82
4.51
4.24
4.03
3.87
3.65
3.24
2.52
1.42
0.00
-1.62
-3.27
-4.77
-6.02
-7.04
-7.98
-9.03
-10.37
-12.06
-13.98
-15.92
-17.61
-18.84
-19.59
-20.00
-20.32
-20.82
-21.60
-22.56
-23.43
-23.88
-23.65
-22.70
-21.17
-19.29
-17.35
-15.50
-13.78
-12.02
-10.00
-7.43
-4.16
-0.21
4.19
8.65
12.85
16.54
19.68
22.32
24.49
26.13
27.08
27.24
26.55
25.17
23.36
21.40
19.48
17.68
15.93
14.13
12.26
10.32
8.45
6.75
5.23
3.80
2.30
0.60
-1.32
-3.33
-5.22
-6.75
-7.75
-8.18
-8.11
-7.66
-6.97
-6.08
-5.04
-3.85
-2.61
-1.45
-0.63
-0.30
-0.50
-1.07
-1.71
-2.15
-2.23
-1.98
-1.56
-1.19
-1.01
-1.14
-1.63
-2.50
-3.72
-5.22
-6.87
-8.47
-9.94
-11.29
-12.64
-14.10
-15.70
-17.33
-18.80
-19.95
-20.68
-20.94
-20.66
-19.70
-17.92
-15.22
-11.65
-7.44
-3.00
1.22
4.75
7.21
8.37
8.28
7.42
6.70
7.17
9.67
14.27
20.17
25.80
29.46
29.98
27.13
21.67
14.98
8.41
2.91
-1.30
-4.52
-7.35
-10.40
-14.04
-18.38
-23.22
-27.99
-31.66
-32.87
-30.17
-22.63
-10.35
5.27
21.80
36.53
47.34
53.37
55.06
53.62
50.39
46.20
41.31
35.63
29.11
21.90
14.41
7.03
-0.02
-6.81
-13.56
-20.39
-27.12
-33.11
-37.43
-39.22
-38.03
-34.11
-28.36
-22.06
-16.42
-12.17
-9.48
-8.05
-7.37
-6.95
-6.48
-5.78
-4.79
-3.49
-1.92
-0.19
1.57
3.19
4.49
5.40
5.86
5.95
5.81
5.60
5.48
5.50
5.60
5.60
5.28
4.46
3.15
1.56
0.00
-1.22
-1.94
-2.25
-2.43
-2.83
-3.70
-5.08
-6.84
-8.78
-10.76
-12.74
-14.76
-16.92
-19.24
-21.70
-24.20
-26.67
-29.02
-31.18
-33.13
-34.83
-36.38
-37.97
-39.93
-42.61
-46.19
-50.45
-54.74
-58.10
-59.55
-58.43
-54.49
-47.80
-38.49
-26.69
-12.64
2.99
19.02
33.92
46.54
56.62
65.06
73.70
84.38
98.33
115.67
135.53
156.30
175.83
191.33
199.59
197.64
183.89
159.26
127.49
94.08
64.35
41.56
26.09
16.05
8.88
2.75
-2.91
-8.09
-13.15
-19.37
-28.58
-42.13
-60.01
-80.58
-101.17
-119.03
-132.16
-139.65
-141.63
-138.86
-132.42
-123.30
-112.27
-99.78
-86.08
-71.35
-55.94
-40.37
-25.14
-10.70
2.58
14.28
23.74
30.21
33.15
32.64
29.49
25.07
20.72
17.18
14.43
11.90
8.98
5.43
1.46
-2.50
-6.18
-9.55
-12.76
-15.85
-18.58
-20.55
-21.39
-20.95
-19.47
-17.40
-15.16
-13.03
-11.05
-9.08
-7.03
-4.83
-2.57
-0.41
1.43
2.81
3.68
4.16
4.50
5.05
6.02
7.41
8.96
10.22
10.77
10.38
9.17
7.52
6.00
5.04
4.81
5.16
5.71
6.01
5.80
5.04
3.89
2.58
1.38
0.48
0.10
0.51
1.96
4.59
8.27
12.53
16.78
20.54
23.64
26.32
28.98
31.91
34.98
37.75
39.67
40.41
40.07
39.09
37.97
36.85
35.42
32.99
28.88
22.79
15.00
6.31
-2.32
-10.11
-16.73
-22.26
-27.00
-31.20
-34.92
-37.99
-40.15
-41.24
-41.26
-40.45
-39.09
-37.40
-35.31
-32.57
-28.80
-23.66
-17.10
-9.38
-1.03
7.29
14.93
21.41
26.42
29.78
31.38
31.16
29.02
24.95
19.05
11.65
3.29
-5.37
-13.68
-21.24
-27.86
-33.50
-38.08
-41.25
-42.54
-41.39
-37.55
-31.22
-23.08
-14.10
-5.24
2.76
9.55
15.04
19.24
22.21
23.95
24.55
24.21
23.31
22.28
21.44
20.86
20.35
19.55
18.12
15.94
13.17
10.20
7.51
5.47
4.20
3.61
3.45
3.46
3.50
3.58
3.72
3.87
3.88
3.52
2.60
1.16
-0.55
-2.17
-3.39
-4.13
-4.52
-4.79
-5.10
-5.40
-5.55
-5.40
-4.98
-4.52
-4.31
-4.53
-5.08
-5.72
-6.17
-6.27
-6.11
-5.87
-5.68
-5.49
-5.13
-4.47
-3.57
-2.71
-2.21
-2.23
-2.67
-3.22
-3.56
-3.55
-3.30
-3.02
-2.90
-2.94
-3.02
-3.02
-2.88
-2.66
-2.45
-2.28
-2.12
-1.90
-1.62
-1.35
-1.18
-1.11
-1.08
-0.94
-0.60
-0.09
0.47
0.89
1.04
0.88
0.47
-0.12
-0.82
-1.52
-2.13
-2.57
-2.83
-2.96
-3.10
-3.45
-4.20
-5.43
-7.03
-8.75
-10.25
-11.14
-11.16
-10.17
-8.24
-5.60
-2.57
0.51
3.37
5.79
7.60
8.73
9.18
9.06
8.59
8.08
7.85
8.13
9.04
10.54
12.41
14.32
15.84
16.52
16.02
14.23
11.36
7.92
4.52
1.69
-0.25
-1.28
-1.57
-1.31
-0.64
0.35
1.60
2.93
4.08
4.76
4.78
4.13
3.00
1.72
0.54
-0.42
-1.37
-2.68
-4.72
-7.67
-11.34
-15.22
-18.77
-21.62
-23.67
-25.00
-25.63
-25.34
-23.73
-20.45
-15.51
-9.46
-3.28
2.02
5.68
7.42
7.42
6.19
4.42
2.82
2.04
2.55
4.50
7.69
11.64
15.71
19.32
22.11
23.93
24.84
24.94
24.34
23.17
21.52
19.51
17.24
14.74
12.00
8.95
5.58
2.01
-1.49
-4.60
-6.99
-8.52
-9.32
-9.74
-10.17
-10.82
-11.70
-12.62
-13.30
-13.62
-13.60
-13.41
-13.23
-13.10
-12.86
-12.26
-11.11
-9.39
-7.31
-5.19
-3.33
-1.92
-0.87
0.01
0.98
2.21
3.69
5.27
6.70
7.81
8.55
8.96
9.20
9.33
9.36
9.18
8.71
7.96
7.18
6.79
7.21
8.71
11.21
14.31
17.44
20.06
21.76
22.23
21.24
18.54
14.07
8.04
1.04
-6.09
-12.51
-17.67
-21.47
-24.14
-26.06
-27.51
-28.59
-29.24
-29.31
-28.69
-27.28
-25.03
-21.90
-17.96
-13.37
-8.45
-3.56
0.93
4.74
7.75
10.06
11.84
13.31
14.61
15.80
16.80
17.52
17.84
17.72
17.05
15.72
13.49
10.13
5.52
-0.18
-6.52
-12.77
-18.05
-21.54
-22.72
-21.52
-18.42
-14.37
-10.47
-7.58
-6.08
-5.74
-5.89
-5.87
-5.33
-4.53
-4.23
-5.32
-8.32
-12.99
-18.26
-22.41
-23.70
-20.92
-13.85
-3.30
9.17
21.72
32.73
41.03
46.07
47.80
46.67
43.47
39.24
34.99
31.45
28.81
26.68
24.28
20.68
15.18
7.60
-1.71
-11.91
-21.84
-30.38
-36.66
-40.33
-41.57
-40.94
-39.12
-36.62
-33.66
-30.18
-26.01
-21.05
-15.38
-9.32
-3.31
2.17
6.64
9.77
11.38
11.57
10.69
9.26
7.79
6.65
5.96
5.62
5.39
5.07
4.56
3.88
3.19
2.65
2.40
2.50
2.93
3.60
4.38
5.10
5.63
5.88
5.83
5.54
5.07
4.52
3.98
3.53
3.24
3.12
3.13
3.19
3.20
3.12
2.98
2.85
2.77
2.70
2.56
2.25
1.74
1.08
0.40
-0.20
-0.64
-0.92
-1.07
-1.14
-1.18
-1.25
-1.40
-1.63
-1.93
-2.25
-2.55
-2.84
-3.12
-3.42
-3.70
-3.90
-3.97
-3.92
-3.88
-4.00
-4.34
-4.84
-5.23
-5.24
-4.64
-3.44
-1.87
-0.27
1.01
1.81
2.14
2.19
2.16
2.22
2.41
2.72
3.12
3.57
4.05
4.52
4.91
5.13
5.16
5.07
4.94
4.89
4.90
4.88
4.73
4.36
3.83
3.26
2.79
2.50
2.36
2.25
2.06
1.75
1.35
0.95
0.64
0.43
0.29
0.13
-0.08
-0.34
-0.57
-0.68
-0.59
-0.30
0.13
0.56
0.85
0.89
0.69
0.32
-0.12
-0.46
-0.56
-0.26
0.54
1.81
3.32
4.64
5.29
4.97
3.73
2.00
0.40
-0.55
-0.70
-0.31
0.17
0.35
0.14
-0.28
-0.60
-0.60
-0.30
0.12
0.40
0.36
-0.03
-0.71
-1.55
-2.43
-3.28
-4.05
-4.66
-5.06
-5.20
-5.10
-4.86
-4.67
-4.71
-5.06
-5.69
-6.43
-7.08
-7.47
-7.57
-7.48
-7.39
-7.46
-7.74
-8.13
-8.38
-8.25
-7.55
-6.18
-4.21
-1.78
0.89
3.55
5.93
7.79
8.98
9.45
9.33
8.81
8.11
7.46
6.96
6.67
6.58
6.61
6.57
6.21
5.30
3.72
1.53
-1.08
-3.83
-6.47
-8.77
-10.62
-12.02
-13.05
-13.90
-14.75
-15.70
-16.66
-17.36
-17.41
-16.52
-14.57
-11.75
-8.42
-5.02
-1.88
0.76
2.82
4.25
5.07
5.32
5.11
4.63
4.13
3.88
4.06
4.75
5.87
7.22
8.58
9.77
10.71
11.42
11.95
12.34
12.56
12.58
12.35
11.95
11.43
10.89
10.33
9.73
9.01
8.15
7.16
6.12
5.05
3.91
2.64
1.19
-0.38
-1.87
-3.07
-3.85
-4.25
-4.45
-4.67
-5.03
-5.49
-5.95
-6.27
-6.47
-6.63
-6.90
-7.34
-7.99
-8.85
-9.89
-11.15
-12.55
-13.99
-15.20
-15.91
-15.94
-15.25
-13.97
-12.27
-10.30
-8.13
-5.77
-3.22
-0.57
2.09
4.63
6.95
9.05
10.97
12.80
14.62
16.46
18.26
19.78
20.71
20.70
19.51
17.09
13.70
9.75
5.70
1.89
-1.53
-4.58
-7.33
-9.84
-12.08
-13.97
-15.41
-16.32
-16.69
-16.51
-15.77
-14.50
-12.75
-10.66
-8.37
-6.05
-3.83
-1.69
0.43
2.68
5.12
7.77
10.53
13.24
15.78
18.07
20.02
21.52
22.46
22.69
22.18
21.04
19.50
17.77
15.92
13.87
11.45
8.57
5.37
2.16
-0.76
-3.20
-5.27
-7.18
-9.11
-11.10
-12.98
-14.59
-15.84
-16.80
-17.60
-18.31
-18.88
-19.18
-19.15
-18.83
-18.30
-17.65
-16.85
-15.80
-14.38
-12.57
-10.41
-8.07
-5.69
-3.38
-1.17
1.00
3.25
5.69
8.43
11.47
14.64
17.66
20.20
21.96
22.77
22.63
21.71
20.26
18.56
16.79
15.00
13.07
10.81
8.08
4.92
1.57
-1.67
-4.58
-7.10
-9.33
-11.40
-13.41
-15.31
-17.00
-18.44
-19.65
-20.73
-21.80
-22.88
-23.90
-24.73
-25.24
-25.31
-24.86
-23.81
-22.11
-19.72
-16.66
-13.02
-8.94
-4.65
-0.42
3.45
6.65
8.99
10.43
11.12
11.31
11.31
11.32
11.40
11.53
11.70
11.93
12.25
12.60
12.79
12.58
11.86
10.85
10.04
10.03
11.09
13.01
15.10
16.55
16.80
15.85
14.18
12.47
11.23
10.60
10.36
10.19
9.86
9.29
8.59
7.85
7.04
6.05
4.77
3.22
1.59
0.20
-0.73
-1.15
-1.22
-1.27
-1.56
-2.26
-3.38
-4.86
-6.71
-8.98
-11.74
-14.92
-18.23
-21.19
-23.19
-23.84
-23.03
-21.04
-18.44
-15.76
-13.28
-10.85
-7.98
-4.16
0.77
6.41
11.84
15.95
17.83
17.08
13.87
8.86
2.93
-3.07
-8.44
-12.75
-15.83
-17.83
-19.07
-19.89
-20.47
-20.67
-20.08
-18.15
-14.54
-9.34
-3.14
3.15
8.67
13.03
16.40
19.42
22.70
26.45
30.26
33.23
34.45
33.40
30.16
25.36
19.80
14.11
8.52
3.03
-2.45
-7.81
-12.71
-16.63
-19.12
-19.99
-19.43
-17.87
-15.83
-13.67
-11.55
-9.47
-7.47
-5.68
-4.32
-3.62
-3.59
-4.01
-4.43
-4.34
-3.39
-1.49
1.17
4.26
7.41
10.35
12.84
14.66
15.57
15.35
13.96
11.61
8.82
6.19
4.26
3.27
3.07
3.28
3.46
3.30
2.64
1.49
-0.15
-2.33
-5.16
-8.67
-12.82
-17.40
-22.07
-26.43
-30.12
-32.78
-34.10
-33.81
-31.75
-27.91
-22.54
-16.19
-9.62
-3.63
1.12
4.35
6.15
6.95
7.30
7.68
8.42
9.62
11.23
13.08
14.99
16.75
18.22
19.33
20.12
20.64
20.95
20.98
20.56
19.53
17.84
15.63
13.21
10.90
8.86
7.08
5.37
3.56
1.61
-0.28
-1.68
-2.04
-0.75
2.73
8.78
17.37
27.98
39.50
50.48
59.51
65.69
68.97
69.98
69.59
68.26
65.53
60.08
50.39
35.57
16.11
-6.00
-27.69
-45.74
-57.68
-62.47
-60.69
-54.21
-45.48
-36.75
-29.46
-24.10
-20.33
-17.48
-14.92
-12.16
-8.85
-4.66
0.66
7.00
13.72
19.68
23.63
24.77
23.15
19.63
15.56
12.09
9.82
8.61
7.78
6.50
4.17
0.64
-3.70
-8.12
-11.69
-13.58
-13.21
-10.42
-5.48
0.91
7.71
13.80
18.26
20.73
21.57
21.41
20.74
19.60
17.56
14.06
8.92
2.54
-4.18
-10.31
-15.61
-20.50
-25.54
-30.72
-35.05
-36.72
-34.17
-26.79
-15.37
-2.29
9.59
18.09
22.44
23.06
20.85
16.13
9.17
0.70
-8.96
-19.40
-30.04
-40.32
-49.82
-57.96
-64.66
-68.63
-67.43
-60.63
-49.76
-37.34
-26.20
-18.54
-15.34
-17.79
-25.13
-34.42
-44.81
-56.55
-69.88
-85.07
-102.59
-122.86
-147.39
-174.49
-197.56
-210.75
-209.37
-190.69
-155.79
-109.83
-49.54
15.84
63.93
93.81
112.54
125.47
136.51
147.37
157.59
165.43
167.01
160.52
147.79
129.26
105.09
76.37
44.94
13.22
-15.80
-40.11
-56.72
-61.66
-54.87
-39.39
-19.46
0.82
18.73
33.51
44.92
53.94
62.27
69.51
74.09
74.82
71.42
64.74
56.34
47.50
39.50
33.69
30.20
28.51
28.12
28.75
30.41
33.25
37.24
42.15
47.70
53.08
57.24
59.15
58.00
53.39
45.46
35.00
23.25
11.67
1.52
-6.39
-11.93
-15.55
-18.21
-21.02
-24.93
-30.54
-37.88
-46.38
-55.08
-62.85
-68.73
-72.18
-73.08
-71.64
-68.21
-63.14
-56.73
-49.21
-40.82
-31.82
-22.56
-13.41
-4.79
2.88
9.20
13.97
17.14
18.91
19.64
19.65
19.13
18.00
16.09
13.24
9.56
5.32
0.98
-3.04
-6.40
-8.96
-10.69
-11.63
-11.85
-11.42
-10.48
-9.25
-7.92
-6.67
-5.63
-4.86
-4.45
-4.49
-5.02
-6.00
-7.28
-8.61
-9.87
-11.04
-12.19
-13.42
-14.71
-15.86
-16.63
-16.82
-16.40
-15.55
-14.52
-13.49
-12.54
-11.63
-10.72
-9.82
-9.04
-8.48
-8.16
-8.01
-7.83
-7.48
-6.91
-6.26
-5.75
-5.59
-5.87
-6.47
-7.17
-7.78
-8.20
-8.48
-8.71
-8.90
-8.93
-8.60
-7.75
-6.42
-4.85
-3.40
-2.41
-2.10
-2.51
-3.49
-4.81
-6.22
-7.49
-8.48
-9.15
-9.59
-9.93
-10.29
-10.68
-11.01
-11.15
-11.01
-10.66
-10.31
-10.26
-10.72
-11.79
-13.30
-14.84
-15.78
-15.46
-13.40
-9.50
-4.12
2.00
8.02
13.25
17.38
20.55
23.14
25.60
28.26
31.16
34.14
36.83
38.81
39.67
39.07
36.84
33.04
27.95
22.10
16.12
10.69
6.33
3.35
1.81
1.51
2.07
3.01
3.90
4.41
4.45
4.10
3.57
3.11
2.86
2.82
2.87
2.83
2.57
2.01
1.17
0.12
-1.02
-2.17
-3.22
-4.12
-4.88
-5.54
-6.17
-6.83
-7.54
-8.31
-9.09
-9.79
-10.29
-10.40
-9.88
-8.56
-6.42
-3.63
-0.51
2.58
5.34
7.59
9.30
10.50
11.21
11.40
11.05
10.21
9.02
7.69
6.42
5.35
4.53
3.94
3.53
3.27
3.15
3.17
3.41
3.89
4.61
5.53
6.48
7.31
7.86
8.04
7.85
7.37
6.65
5.73
4.60
3.25
1.73
0.17
-1.21
-2.26
-2.88
-3.18
-3.35
-3.64
-4.18
-4.93
-5.64
-6.06
-5.98
-5.40
-4.51
-3.56
-2.75
-2.14
-1.62
-1.08
-0.42
0.33
1.07
1.69
2.09
2.22
2.10
1.75
1.26
0.71
0.26
-0.00
-0.02
0.21
0.62
1.16
1.75
2.31
2.73
2.93
2.86
2.58
2.21
1.89
1.72
1.69
1.73
1.76
1.69
1.51
1.26
0.97
0.66
0.34
0.04
-0.23
-0.43
-0.56
-0.63
-0.66
-0.64
-0.58
-0.47
-0.32
-0.16
0.02
0.23
0.51
0.89
1.36
1.85
2.27
2.53
2.53
2.26
1.71
0.99
0.24
-0.33
-0.54
-0.28
0.42
1.43
2.59
3.79
4.94
5.98
6.80
7.27
7.31
6.93
6.28
5.51
4.73
3.87
2.75
1.25
-0.62
-2.62
-4.45
-5.82
-6.59
-6.83
-6.65
-6.17
-5.44
-4.52
-3.47
-2.43
-1.55
-0.90
-0.46
