1565050247.00
64.000000
-0.00
-0.00
-0.00
-0.00
-0.00
-0.00
-0.00
-0.00
-0.00
-0.00
0.00
0.01
0.01
-0.00
-0.03
-0.05
-0.05
0.00
0.13
0.36
0.66
1.01
1.37
1.72
2.06
2.40
2.79
3.24
3.80
4.42
5.06
5.66
6.20
6.68
7.16
7.69
8.34
9.19
10.17
11.16
12.06
12.82
13.49
14.24
15.27
16.75
18.88
21.47
24.25
26.93
29.34
31.56
33.89
36.78
40.54
45.54
51.44
57.71
63.77
69.27
74.29
79.32
85.03
91.97
100.65
110.58
120.97
130.92
139.90
147.95
155.70
164.49
172.98
183.45
196.49
212.20
229.37
245.15
255.23
254.99
241.03
212.45
171.63
122.38
69.05
14.84
-38.59
-90.94
-142.32
-192.46
-240.56
-285.18
-325.44
-360.66
-390.33
-413.57
-429.10
-435.41
-431.13
-415.66
-389.29
-353.65
-311.16
-265.37
-219.21
-174.75
-133.12
-94.72
-59.64
-27.79
0.75
25.83
47.35
65.49
80.61
93.22
103.84
112.81
120.32
126.36
130.82
133.56
134.60
134.02
131.90
128.80
125.03
120.77
116.09
110.97
105.37
99.36
93.02
86.48
79.88
73.31
66.85
60.57
54.53
48.77
43.37
38.37
33.77
29.54
25.60
21.88
18.30
14.82
11.42
8.12
4.98
2.05
-0.63
-3.04
-5.17
-7.04
-8.67
-10.08
-11.32
-12.42
-13.42
-14.36
-15.27
-16.20
-17.15
-18.08
-18.97
-19.76
-20.40
-20.83
-20.99
-20.86
-20.43
-19.69
-18.64
-17.33
-15.79
-14.09
-12.26
-10.37
-8.48
-6.62
-4.83
-3.14
-1.56
-0.11
1.19
2.33
3.30
4.12
4.78
5.27
5.61
5.80
5.85
5.73
5.43
4.93
4.23
3.31
2.19
0.87
-0.63
-2.27
-3.98
-5.71
-7.37
-8.89
-10.20
-11.27
-12.06
-12.57
-12.84
-12.88
-12.71
-12.38
-11.96
-11.51
-11.06
-10.69
-10.46
-10.42
-10.61
-11.05
-11.75
-12.70
-13.85
-15.16
-16.54
-17.92
-19.22
-20.37
-21.33
-22.11
-22.73
-23.21
-23.60
-23.89
-24.08
-24.14
-24.03
-23.65
-22.96
-21.89
-20.39
-18.48
-16.18
-13.53
-10.62
-7.54
-4.38
-1.19
1.97
5.13
8.34
11.64
15.05
18.60
22.28
26.13
30.16
34.41
38.92
43.69
48.72
53.99
59.41
64.90
70.41
75.94
81.58
87.39
93.39
99.53
105.69
111.68
117.31
122.48
127.16
131.44
135.41
139.11
142.39
144.92
146.29
146.09
144.12
140.45
135.40
129.38
122.68
115.31
106.92
96.96
84.98
70.88
55.13
38.71
22.71
7.97
-5.38
-17.99
-30.98
-45.47
-62.00
-80.24
-99.01
-116.91
-132.98
-147.15
-160.48
-174.76
-191.87
-213.16
-238.89
-268.07
-298.55
-327.01
-349.57
-362.40
-362.79
-350.25
-326.93
-297.39
-267.26
-241.39
-222.21
-209.14
-199.16
-188.35
-173.82
-154.98
-133.54
-112.33
-93.87
-79.18
-67.65
-57.98
-49.20
-41.69
-36.91
-36.40
-40.37
-46.55
-50.48
-47.53
-35.33
-15.34
7.41
26.69
38.24
41.77
40.83
40.34
43.47
49.58
54.48
53.11
43.14
26.70
9.64
-1.38
-2.37
5.81
18.13
28.28
31.86
28.82
23.18
20.40
23.91
32.97
42.99
48.30
45.53
35.71
23.78
15.59
14.45
19.30
25.69
28.70
26.44
21.44
18.97
23.49
35.50
50.73
62.26
64.10
54.61
37.25
18.43
4.04
-3.35
-5.39
-6.25
-9.71
-16.64
-24.26
-27.48
-21.74
-6.12
15.30
34.37
42.23
33.61
9.95
-20.39
-45.67
-56.47
-50.64
-34.83
-21.48
-22.39
-42.49
-77.08
-114.11
-140.01
-145.71
-129.67
-96.55
-53.01
-4.01
48.11
101.41
151.11
188.03
200.66
180.35
126.71
50.02
-31.06
-95.53
-127.34
-120.59
-80.51
-20.21
44.83
101.82
143.43
167.32
173.76
163.17
135.85
93.44
41.44
-10.15
-49.37
-67.09
-61.68
-40.12
-14.92
2.36
6.63
1.16
-5.76
-6.79
-0.17
9.50
15.14
12.25
2.36
-8.11
-12.22
-7.05
4.43
15.30
19.03
13.29
1.26
-10.41
-15.43
-11.34
-0.69
10.35
15.53
12.04
1.94
-8.89
-14.15
-10.74
-0.58
10.49
16.05
12.83
2.50
-9.22
-15.95
-14.42
-6.15
3.60
9.24
8.13
2.15
-3.76
-4.83
0.58
9.89
17.75
19.22
12.64
0.77
-10.54
-15.69
-12.54
-3.68
5.26
9.11
6.28
-0.28
-5.07
-3.48
5.20
17.05
25.58
25.67
16.65
2.76
-9.02
-13.03
-8.03
1.95
10.15
11.02
3.73
-7.25
-14.70
-13.05
-1.94
13.31
24.51
25.56
16.03
1.47
-9.91
-12.30
-5.68
4.27
10.05
6.90
-4.24
-17.49
-25.83
-25.22
-16.94
-6.57
-0.70
-3.14
-12.98
-25.15
-33.56
-34.73
-29.44
-22.42
-19.42
-23.97
-35.15
-48.54
-58.29
-60.70
-56.62
-50.92
-49.73
-56.64
-70.53
-86.10
-98.21
-104.47
-107.06
-111.43
-122.71
-141.96
-164.74
-183.29
-191.01
-188.54
-183.07
-184.86
-201.43
-233.07
-272.16
-306.69
-326.14
-326.55
-313.86
-299.10
-292.35
-297.77
-312.34
-328.29
-337.31
-334.16
-304.33
-240.95
-143.74
-19.08
120.84
260.85
386.22
485.73
553.79
590.80
603.44
600.44
590.28
578.91
568.37
556.68
537.98
507.14
462.76
406.65
343.63
279.53
219.09
165.29
119.76
83.55
57.56
42.05
35.11
33.31
33.03
31.31
26.95
20.41
13.33
7.94
5.87
7.21
10.61
14.20
16.28
16.10
13.89
10.73
8.03
6.89
7.56
9.38
11.32
12.33
11.82
9.80
6.71
3.27
-0.00
-2.88
-5.56
-8.43
-11.99
-16.62
-22.45
-29.40
-37.26
-45.89
-55.21
-65.29
-76.18
-88.04
-101.11
-115.56
-131.39
-148.64
-167.33
-187.42
-208.76
-230.94
-253.44
-275.38
-296.25
-314.42
-327.84
-334.16
-331.00
-316.90
-290.26
-250.31
-197.44
-133.41
-61.10
15.51
91.86
163.33
225.69
275.67
311.00
330.64
334.67
324.35
301.52
268.57
228.07
182.50
134.21
85.18
37.12
-8.57
-50.58
-87.77
-119.21
-144.12
-161.89
-172.20
-175.11
-171.11
-161.07
-146.18
-127.93
-107.89
-87.59
-68.35
-51.32
-37.27
-26.65
-19.61
-16.00
-15.41
-17.34
-21.17
-26.37
-32.43
-38.91
-45.57
-52.26
-58.89
-65.45
-71.98
-78.46
-84.86
-91.01
-96.62
-101.30
-104.51
-105.63
-103.93
-98.65
-89.06
-74.55
-54.91
-30.15
-0.54
33.35
70.69
110.35
150.96
191.01
228.89
262.96
291.66
313.57
327.49
332.53
328.15
314.29
291.34
260.13
221.99
178.63
132.01
84.19
37.16
-7.30
-47.73
-83.09
-112.76
-136.60
-154.83
-167.98
-176.75
-181.96
-184.40
-184.75
-183.63
-181.58
-179.07
-176.46
-174.05
-172.04
-170.56
-169.64
-169.28
-169.44
-170.09
-171.18
-172.66
-174.38
-176.11
-177.53
-178.25
-177.89
-176.20
-173.14
-168.88
-163.77
-158.23
-152.56
-146.88
-141.12
-135.19
-129.07
-123.00
-117.61
-113.65
-111.76
-112.12
-114.28
-117.24
-119.77
-120.91
-120.31
-118.34
-115.91
-113.89
-112.61
-111.55
-109.43
-104.73
-96.36
-84.15
-68.97
-52.37
-35.92
-20.41
-5.53
10.30
29.81
56.64
94.85
147.74
216.20
297.39
384.40
467.75
538.55
591.76
627.79
651.73
670.37
688.51
706.71
721.36
726.84
718.46
694.41
656.07
606.69
549.84
488.27
423.98
358.71
294.53
234.03
179.77
133.32
94.91
63.81
39.46
22.47
14.26
15.86
26.38
42.55
59.72
74.26
85.51
96.34
112.02
137.15
173.15
217.71
266.49
315.83
365.00
416.78
473.73
538.36
610.84
688.03
764.14
832.21
885.46
918.13
925.73
904.80
853.42
771.24
660.21
524.99
372.92
212.85
53.82
-96.47
-232.71
-351.92
-453.36
-537.75
-606.25
-659.91
-699.46
-725.53
-738.95
-741.09
-733.75
-719.03
-699.05
-675.49
-649.55
-621.85
-592.69
-562.24
-530.78
-498.69
-466.49
-434.67
-403.59
-373.55
-344.63
-316.82
-290.17
-264.65
-240.27
-217.04
-194.80
-173.26
-152.09
-130.65
-108.24
-84.29
-58.43
-30.73
-1.85
27.13
55.14
80.00
99.49
111.56
114.62
107.61
89.96
61.72
23.52
-22.40
-73.45
-126.57
-178.99
-227.35
-268.03
-297.71
-313.52
-313.30
-296.07
-262.54
-214.87
-156.61
-92.46
-27.75
31.60
80.35
114.58
131.88
131.77
116.02
88.13
52.91
16.02
-17.48
-43.22
-58.40
-62.38
-56.81
-44.98
-31.70
-22.13
-20.70
-30.79
-53.34
-86.74
-127.25
-169.59
-207.78
-236.23
-250.60
-245.67
-221.43
-181.01
-129.53
-72.99
-17.09
33.40
75.26
106.98
128.57
140.53
144.44
142.56
136.96
129.39
121.13
112.94
105.25
98.25
91.43
84.65
77.98
71.53
65.48
59.92
54.90
50.37
46.26
42.24
38.22
34.27
30.42
26.75
23.29
20.03
16.93
14.03
11.26
8.74
6.59
4.80
3.27
1.78
0.13
-1.81
-3.96
-6.09
-7.84
-8.75
-8.90
-8.62
-8.42
-8.84
-10.18
-12.28
-14.60
-16.37
-16.92
-16.10
-14.32
-12.50
-11.63
-12.37
-14.68
-17.78
-20.64
-22.09
-21.54
-19.02
-15.22
-11.39
-9.15
-10.09
-14.87
-22.34
-28.95
-29.61
-19.58
3.22
36.84
75.54
111.59
137.63
148.61
142.88
121.92
89.81
52.23
15.42
-15.14
-35.86
-45.84
-46.78
-41.96
-34.80
-27.77
-21.96
-17.88
-15.65
-15.27
-16.49
-18.49
-20.09
-20.30
-18.73
-15.80
-12.56
-10.15
-9.28
-9.95
-11.48
-12.93
-13.42
-12.63
-10.79
-8.59
-6.80
-5.92
-6.03
-6.77
-7.58
-7.90
-7.52
-6.53
-5.37
-4.46
-4.10
-4.31
-4.83
-5.32
-5.45
-5.20
-4.75
-4.45
-4.65
-5.43
-6.58
-7.74
-8.48
-8.58
-8.29
-8.05
-8.49
-9.96
-12.40
-15.23
-17.68
-19.05
-19.08
-18.26
-17.47
-17.78
-19.81
-23.39
-27.64
-31.29
-33.41
-33.59
-32.32
-30.55
-29.36
-29.47
-31.29
-35.08
-40.72
-46.86
-50.74
-48.63
-37.12
-15.27
14.69
47.64
77.60
100.16
114.47
122.78
128.55
134.81
141.37
146.55
148.16
144.79
136.43
124.11
108.86
90.51
70.00
47.44
23.53
-0.21
-21.72
-39.10
-51.12
-57.68
-59.89
-59.08
-57.28
-55.75
-54.99
-54.83
-54.73
-54.33
-53.59
-53.05
-53.04
-54.39
-57.35
-61.72
-66.81
-71.70
-75.53
-77.56
-77.51
-75.12
-70.57
-64.09
-55.94
-46.51
-36.26
-25.72
-15.47
-6.10
2.09
8.71
13.67
17.09
19.02
19.68
19.26
17.94
15.85
13.13
9.99
6.56
3.09
-0.30
-3.44
-6.22
-8.44
-10.11
-11.23
-11.63
-11.45
-10.82
-10.00
-9.32
-9.23
-10.11
-12.36
-16.43
-22.03
-29.01
-37.07
-45.88
-55.03
-64.14
-73.00
-81.48
-89.82
-97.48
-104.36
-110.56
-116.19
-121.46
-126.55
-131.77
-137.44
-144.05
-150.92
-157.69
-164.00
-169.39
-173.23
-174.60
-172.06
-163.00
-151.63
-138.53
-123.85
-107.56
-89.63
-70.32
-50.27
-30.62
-12.93
0.94
10.45
15.31
15.83
13.09
8.55
3.75
0.08
-1.52
-0.56
4.06
13.13
27.22
46.69
71.34
100.13
131.20
162.12
190.30
213.98
232.08
244.35
251.34
254.37
255.37
256.61
260.02
266.18
273.70
278.92
277.14
264.66
240.52
207.24
169.91
134.15
104.08
81.41
65.44
54.13
45.31
37.15
28.27
17.72
5.16
-8.54
-20.81
-27.59
-24.34
-7.26
25.30
72.11
128.98
189.55
246.65
293.64
325.43
338.94
333.12
308.48
266.91
211.34
145.54
73.90
0.96
-69.08
-132.82
-187.62
-231.47
-262.83
-280.58
-284.33
-274.83
-253.93
-224.25
-188.83
-150.39
-111.31
-73.49
-38.49
-7.52
18.64
39.66
55.65
66.81
73.34
75.45
73.38
67.62
59.06
48.79
37.91
27.30
17.56
9.06
2.05
-3.34
-7.23
-10.05
-12.67
-16.00
-20.62
-26.49
-32.77
-38.30
-42.06
-43.65
-43.36
-42.01
-40.40
-38.95
-37.67
-36.27
-34.59
-32.73
-30.85
-28.95
-26.81
-24.06
-20.62
-17.05
-14.51
-14.52
-18.48
-27.22
-40.72
-58.36
-79.06
-101.67
-125.06
-148.02
-169.38
-187.86
-202.30
-211.66
-215.39
-213.37
-205.85
-193.08
-174.74
-149.83
-116.90
-74.70
-23.08
36.34
100.14
163.44
220.90
267.63
299.98
315.83
314.58
296.91
264.57
220.37
168.16
112.67
58.98
11.72
-25.87
-52.67
-69.63
-79.00
-83.05
-83.06
-79.30
-71.52
-59.97
-46.05
-32.23
-21.29
-15.34
-15.07
-19.81
-28.09
-38.35
-49.59
-61.22
-72.81
-83.51
-91.95
-96.47
-95.66
-88.99
-76.91
-60.75
-42.12
-22.68
-3.80
13.38
27.88
38.89
45.93
49.41
50.66
51.98
55.80
63.91
76.93
94.31
114.81
137.01
159.78
181.80
201.31
215.67
221.88
217.98
204.06
182.69
157.87
133.30
110.79
89.91
68.89
46.19
21.77
-3.00
-26.17
-46.37
-63.44
-78.23
-91.66
-103.96
-114.70
-123.09
-128.62
-131.36
-131.80
-130.52
-127.84
-123.50
-116.69
-106.22
-90.80
-69.63
-42.90
-12.29
19.13
47.59
69.81
84.11
90.79
91.62
88.77
83.91
77.73
70.41
62.47
55.05
49.91
48.82
52.82
61.81
74.65
89.43
103.98
116.40
125.46
131.18
135.06
139.74
147.98
161.65
180.68
203.07
225.50
244.40
256.92
261.35
257.16
244.69
225.02
199.79
171.23
141.79
113.37
86.54
60.04
31.21
-2.62
-42.30
-85.86
-128.53
-164.25
-187.74
-196.28
-190.49
-173.88
-151.64
-129.16
-111.11
-101.02
-101.06
-112.05
-133.42
-163.17
-198.22
-234.97
-269.93
-300.72
-326.49
-348.31
-368.29
-388.25
-408.03
-424.70
-433.04
-427.39
-403.95
-362.14
-304.75
-236.76
-164.02
-92.18
-26.40
28.80
69.98
95.47
106.23
105.74
99.04
90.99
84.85
81.66
80.83
81.19
81.66
81.70
81.17
80.25
79.58
80.05
82.82
88.80
98.05
109.16
119.46
125.92
126.27
119.78
107.14
90.10
70.64
50.59
31.30
13.78
-1.13
-12.91
-21.40
-27.26
-31.17
-33.32
-33.00
-29.30
-21.80
-11.23
0.31
9.90
13.73
9.05
-4.59
-25.59
-52.17
-83.48
-119.31
-159.61
-202.68
-247.16
-290.03
-326.22
-349.96
-358.19
-351.67
-333.78
-310.50
-288.12
-276.18
-282.22
-306.81
-341.39
-371.98
-383.33
-362.51
-304.79
-213.87
-105.55
0.40
87.70
147.37
174.32
165.93
124.02
53.36
-5.21
-14.30
33.90
115.69
204.17
283.15
339.75
381.89
412.83
432.31
435.00
416.76
375.73
317.56
250.65
183.11
123.18
75.42
40.90
16.38
-2.08
-16.47
-26.22
-31.38
-34.15
-37.74
-34.41
-25.49
-18.20
-16.12
-14.23
-3.51
20.84
56.06
94.48
126.65
144.18
144.58
130.41
107.46
81.34
56.26
34.69
20.54
16.95
22.52
33.83
44.43
49.23
45.68
35.94
27.00
27.33
42.20
69.60
104.54
137.85
162.45
171.08
156.31
117.14
59.75
-6.10
-72.72
-131.11
-183.83
-227.94
-261.46
-285.90
-306.65
-334.64
-368.28
-411.10
-440.28
-438.51
-398.50
-329.06
-246.47
-163.99
-90.51
-29.73
16.33
48.79
66.39
72.34
70.56
67.59
72.89
91.92
124.82
165.29
206.05
238.85
261.02
276.54
282.51
285.44
291.98
307.12
332.24
366.93
406.48
443.45
468.32
471.90
450.21
402.63
333.90
251.87
167.06
88.08
18.84
-40.53
-91.52
-132.48
-161.57
-176.06
-176.13
-162.19
-136.04
-102.16
-65.14
-29.63
2.06
25.46
37.38
30.63
5.24
-32.66
-75.41
-114.18
-150.59
-179.96
-201.28
-217.30
-237.73
-270.46
-304.95
-334.64
-354.77
-363.62
-361.16
-349.10
-301.10
-211.90
-98.78
4.72
71.89
92.64
71.70
23.27
-36.12
-92.41
-148.31
-203.55
-259.97
-314.36
-358.20
-380.32
-372.72
-334.68
-273.10
-203.19
-115.65
-29.64
30.39
53.62
52.44
49.76
66.45
106.76
162.95
227.76
291.75
355.02
411.09
460.37
503.47
538.00
559.35
562.52
548.77
517.64
472.36
418.56
363.49
310.43
257.51
199.55
116.06
12.46
-89.36
-164.80
-201.44
-199.72
-171.06
-132.29
-98.82
-79.39
-71.43
-70.23
-71.49
-73.00
-73.49
-73.00
-71.79
-70.14
-68.91
-68.43
-72.32
-85.24
-108.73
-139.33
-170.28
-194.85
-208.40
-208.65
-193.70
-164.04
-122.85
-75.44
-28.70
10.04
35.06
44.52
41.21
31.77
22.43
16.17
13.33
12.23
11.17
9.48
7.52
6.04
5.74
6.54
7.35
7.32
5.99
3.55
0.52
-2.55
-5.49
-8.52
-12.01
-16.58
-22.54
-29.78
-37.59
-44.94
-50.77
-54.32
-55.38
-53.95
-50.19
-44.48
-37.29
-29.03
-20.12
-11.02
-2.20
5.77
12.47
17.58
21.03
22.96
23.58
23.29
22.40
21.23
19.96
18.78
17.89
17.61
18.21
19.74
22.27
25.69
29.86
34.48
39.29
44.09
48.81
53.40
57.74
61.68
65.02
67.65
69.49
70.70
71.66
72.88
74.79
77.57
81.25
85.85
91.53
98.46
106.95
117.31
129.53
142.91
156.07
167.36
175.40
179.94
181.87
182.95
184.96
188.77
193.70
197.46
197.36
191.11
177.37
155.44
124.94
86.33
42.30
-2.81
-44.78
-79.36
-103.48
-116.30
-119.94
-118.68
-116.95
-117.03
-119.16
-124.16
-131.41
-138.86
-143.49
-142.67
-135.08
-120.83
-100.65
-77.10
-57.72
-49.23
-54.84
-73.26
-100.83
-133.88
-170.30
-208.68
-250.53
-303.03
-371.29
-454.75
-546.68
-637.76
-719.76
-787.76
-838.46
-836.52
-761.39
-616.47
-429.99
-237.18
-62.38
84.93
197.41
286.89
359.42
410.79
436.04
434.48
411.55
373.62
329.63
286.40
254.45
239.76
237.55
237.10
228.08
206.24
174.38
139.70
109.21
88.35
76.84
69.41
61.34
51.39
42.14
37.13
38.44
44.97
54.14
61.23
61.56
52.91
36.31
15.60
-4.65
-20.79
-31.24
-35.80
-36.24
-35.09
-34.39
-35.29
-38.10
-42.51
-48.31
-55.41
-63.48
-71.80
-79.20
-84.14
-85.35
-82.16
-74.83
-64.43
-52.55
-41.27
-31.63
-24.58
-20.69
-20.48
-24.29
-32.31
-44.09
-58.51
-74.29
-88.36
-98.17
-101.62
-97.93
-87.15
-69.56
-45.02
-12.94
27.73
80.69
145.29
219.83
300.26
380.87
455.79
520.09
570.10
589.80
570.08
509.82
417.68
307.24
192.01
82.36
-15.05
-96.77
-161.47
-206.41
-233.79
-246.54
-248.61
-244.21
-236.52
-227.08
-216.09
-202.73
-184.58
-160.50
-130.46
-95.83
-58.35
-18.92
22.70
64.62
104.51
140.88
172.66
199.68
220.82
232.81
230.51
208.94
166.42
107.01
40.44
-21.59
-69.32
-98.58
-111.19
-112.68
-108.88
-103.58
-97.78
-90.87
-82.60
-73.82
-66.27
-61.41
-59.41
-59.13
-58.73
-56.51
-51.92
-45.61
-39.11
-33.97
-31.14
-30.47
-30.93
-31.14
-29.99
-27.13
-23.03
-18.69
-15.09
-12.84
-11.84
-11.49
-10.99
-9.73
-7.59
-4.79
-1.85
0.78
2.87
4.63
6.54
9.24
13.21
18.61
25.38
33.18
41.56
49.77
57.13
63.01
67.09
68.99
68.52
65.79
61.10
55.10
48.34
41.23
34.09
26.98
19.89
12.66
5.05
-3.02
-11.47
-19.90
-27.91
-35.06
-40.99
-45.42
-48.35
-50.32
-51.78
-53.54
-56.30
-60.96
-68.19
-78.25
-90.57
-104.19
-118.00
-129.99
-138.17
-140.59
-136.18
-124.34
-105.40
-80.30
-48.86
-15.45
16.62
43.76
64.91
78.66
84.50
82.61
73.90
59.78
41.98
23.07
5.48
-8.70
-18.52
-23.48
-23.84
-20.67
-15.83
-11.38
-8.68
-8.61
-9.49
-11.49
-13.77
-15.07
-14.56
-11.92
-7.44
-1.49
5.52
13.59
22.43
32.47
44.10
57.06
70.46
83.01
93.67
101.77
108.03
112.00
113.61
112.54
107.90
98.31
82.58
60.24
31.14
-2.74
-39.40
-75.41
-105.74
-124.52
-126.80
-110.97
-80.27
-42.18
-6.01
20.58
34.77
38.83
37.84
36.76
37.73
40.09
41.86
41.64
39.31
36.42
34.79
35.24
37.57
40.82
44.43
48.65
53.63
58.19
59.50
54.01
39.31
16.02
-11.89
-38.32
-57.79
-67.79
-69.48
-66.62
-63.19
-61.68
-62.63
-65.31
-68.68
-72.57
-76.82
-81.21
-85.67
-89.96
-93.98
-97.78
-101.87
-106.63
-112.38
-119.65
-128.27
-138.36
-149.67
-161.64
-174.03
-185.93
-196.47
-204.61
-208.29
-203.94
-187.22
-154.30
-104.44
-40.67
27.70
90.51
139.81
172.22
189.20
195.05
194.72
191.56
187.40
182.39
177.17
173.12
171.64
173.65
177.39
180.17
178.95
170.79
154.33
129.91
98.98
63.70
26.44
-10.89
-46.20
-77.39
-102.32
-119.07
-125.83
-121.75
-107.22
-83.88
-54.88
-23.62
6.97
34.82
58.79
78.93
95.77
109.92
122.86
133.49
140.90
144.19
142.49
135.24
122.45
104.55
81.25
54.99
27.45
0.36
-24.75
-46.79
-65.20
-79.92
-91.50
-100.80
-108.62
-116.08
-123.84
-131.86
-139.65
-146.48
-150.79
-150.99
-145.63
-133.37
-113.86
-87.52
-55.45
-19.68
17.14
52.03
82.12
104.84
118.43
121.89
115.16
99.37
76.31
48.21
17.65
-12.60
-39.96
-62.14
-77.41
-84.80
-83.71
-74.55
-58.63
-37.75
-14.13
9.93
32.24
50.76
63.71
70.16
69.46
61.42
46.71
26.78
4.01
-18.60
-37.92
-51.49
-57.27
-54.78
-44.96
-29.54
-10.89
8.95
28.38
46.42
62.55
77.58
92.50
108.18
125.05
142.40
158.77
172.45
182.56
185.13
180.43
171.02
160.50
152.00
146.91
144.39
141.84
135.83
123.17
102.21
72.33
34.08
-10.76
-59.35
-107.70
-151.15
-185.27
-206.87
-214.60
-209.85
-196.24
-178.18
-159.45
-142.31
-127.38
-114.33
-102.61
-91.68
-81.48
-72.27
-64.72
-59.39
-56.58
-55.80
-55.84
-55.08
-52.14
-47.09
-41.60
-38.07
-37.69
-39.22
-38.78
-31.35
-12.98
17.22
56.42
98.85
137.75
167.39
184.40
188.07
179.85
162.70
140.40
116.94
95.87
79.66
69.12
63.20
59.54
55.54
49.37
40.74
30.72
21.05
13.27
8.21
5.71
4.69
3.39
-0.21
-7.81
-20.00
-35.71
-52.27
-66.20
-74.72
-76.83
-73.86
-68.80
-65.02
-64.80
-68.71
-75.62
-83.44
-89.78
-92.50
-89.84
-80.63
-64.49
-42.23
-16.19
10.02
32.17
46.77
52.17
49.21
40.73
30.73
23.04
20.28
23.31
31.22
42.05
53.74
65.13
76.32
88.45
102.64
119.02
136.36
152.84
167.17
179.37
190.29
200.21
207.54
209.04
201.27
182.88
155.98
125.64
97.77
76.57
63.04
55.34
50.35
45.39
39.27
31.59
22.63
12.79
2.47
-7.88
-17.68
-26.08
-32.14
-35.17
-35.77
-35.33
-35.50
-37.68
-42.71
-50.95
-62.56
-77.73
-96.25
-118.16
-141.63
-162.50
-175.08
-174.27
-157.67
-126.19
-83.28
-32.82
19.02
68.08
113.01
154.55
193.29
228.35
257.82
280.22
295.62
298.18
282.31
244.45
184.32
103.96
6.78
-102.04
-214.77
-321.36
-422.42
-518.95
-609.31
-687.95
-748.67
-788.87
-810.62
-819.12
-820.23
-833.67
-875.44
-951.30
-1054.67
-1171.68
-1288.43
-1394.35
-1481.92
-1469.24
-1307.97
-1002.47
-614.84
-225.26
110.45
370.88
557.50
675.43
749.79
786.99
791.55
772.70
745.64
725.88
722.90
736.33
760.55
783.74
784.89
752.30
688.04
604.90
517.66
436.50
366.04
308.15
265.22
230.82
200.61
173.62
151.81
137.19
129.20
124.00
117.25
104.97
84.18
58.36
35.05
21.38
20.23
29.49
43.87
58.26
69.70
75.86
75.71
69.80
58.22
42.26
24.71
8.80
-2.92
-9.04
-10.28
-9.20
-9.42
-14.74
-27.40
-47.36
-72.52
-98.20
-116.28
-119.46
-106.01
-81.58
-56.33
-38.90
-32.76
-33.91
-36.48
-35.50
-28.82
-19.90
-14.45
-17.62
-31.84
-55.51
-83.31
-108.67
-126.62
-136.79
-142.82
-149.03
-156.35
-160.53
-153.65
-128.44
-82.42
-19.16
53.03
124.54
187.55
236.72
268.42
279.98
269.78
238.53
190.46
133.06
75.08
23.94
-16.69
-47.31
-71.81
-96.23
-126.75
-167.63
-219.40
-277.50
-332.95
-374.96
-394.94
-389.90
-363.52
-324.37
-282.13
-243.76
-211.33
-182.66
-153.65
-120.89
-83.23
-41.87
0.74
42.01
80.08
114.13
144.21
171.09
195.83
219.83
244.24
269.38
293.77
313.76
324.55
322.47
307.41
284.15
261.45
249.05
253.92
277.28
313.89
353.86
385.76
399.93
390.81
357.65
303.90
235.74
160.17
83.06
8.14
-62.83
-128.50
-186.08
-230.41
-255.21
-255.72
-231.01
-184.95
-124.71
-57.71
11.08
80.07
149.32
217.48
279.13
325.69
348.36
341.89
307.16
251.00
184.13
118.50
65.12
32.01
23.41
39.10
74.26
120.31
167.08
205.69
230.61
240.05
233.54
211.88
177.07
132.99
85.32
40.73
5.48
-16.49
-24.54
-23.60
-19.61
-16.74
-15.96
-16.28
-17.04
-18.73
-23.06
-32.36
-52.29
-86.54
-134.51
-190.99
-248.65
-301.36
-345.51
-379.92
-405.02
-426.88
-450.81
-478.79
-509.23
-539.66
-569.69
-601.47
-638.26
-651.82
-623.80
-554.76
-464.81
-377.03
-302.63
-239.64
-179.67
-114.76
-42.02
30.33
90.56
130.00
147.21
147.13
137.41
124.60
112.42
101.61
87.92
68.13
42.96
17.24
-4.05
-16.84
-20.35
-16.24
-7.41
1.17
5.57
3.99
-3.19
-15.24
-32.06
-54.43
-83.07
-117.65
-157.06
-198.55
-237.99
-270.55
-291.92
-299.20
-291.19
-267.92
-230.10
-179.64
-120.03
-56.09
6.81
63.90
112.05
150.18
179.06
200.54
219.29
238.91
260.59
283.17
304.76
324.37
342.42
359.84
377.37
398.94
426.10
457.10
487.48
512.85
531.31
543.74
552.51
560.32
575.01
601.83
640.84
686.04
727.50
754.75
759.91
739.51
662.16
519.97
330.63
131.01
-43.58
-175.36
-264.68
-320.30
-351.57
-365.72
-362.27
-341.70
-308.12
-269.02
-231.85
-201.52
-178.07
-160.04
-147.01
-135.22
-123.13
-112.26
-106.38
-108.74
-120.72
-140.39
-164.01
-189.47
-213.18
-233.86
-253.26
-276.09
-301.76
-330.88
-363.05
-386.57
-393.97
-382.24
-355.07
-320.08
-284.54
-252.31
-224.51
-200.27
-179.00
-162.91
-153.48
-149.66
-146.72
-137.28
-114.47
-76.37
-26.61
26.81
73.86
107.73
125.99
129.10
117.63
91.01
49.03
-4.16
-58.49
-101.05
-120.83
-114.49
-88.33
-55.13
-28.10
-15.34
-16.96
-27.22
-39.81
-49.95
-56.06
-58.12
-55.72
-47.11
-30.03
-3.14
32.33
71.93
109.75
140.53
161.59
173.34
178.53
180.71
182.55
184.59
185.59
183.67
177.39
166.87
153.85
140.95
130.71
124.85
123.79
126.64
130.97
132.74
127.12
110.16
80.82
42.20
0.97
-35.14
-60.38
-73.18
-76.08
-73.72
-70.09
-66.82
-63.34
-58.39
-51.76
-44.75
-39.60
-37.89
-39.50
-42.73
-45.01
-44.15
-39.54
-32.30
-24.66
-18.92
-16.20
-15.97
-16.29
-14.56
-8.97
0.78
13.12
25.31
34.23
37.46
33.51
21.96
3.53
-19.57
-43.35
-62.58
-72.14
-69.64
-56.64
-38.42
-21.79
-12.16
-11.38
-17.53
-26.57
-34.93
-41.05
-45.56
-49.92
-54.78
-59.00
-60.19
-56.00
-45.22
-28.41
-7.54
14.44
34.97
52.54
66.81
78.51
88.62
97.60
105.33
111.53
116.06
119.15
120.74
119.61
113.24
98.86
75.29
44.11
11.87
-13.73
-26.69
-25.02
-11.29
9.11
30.59
49.37
63.94
73.80
78.15
75.91
65.85
47.77
23.08
-5.30
-33.82
-59.09
-78.93
-92.60
-100.24
-102.69
-100.61
-94.28
-83.70
-68.99
-50.71
-30.01
-8.58
11.82
29.28
42.74
51.98
57.51
60.15
60.78
60.05
58.27
55.53
51.12
44.64
35.97
25.39
13.54
1.45
-9.67
-18.69
-24.82
-28.75
-31.39
-33.83
-37.05
-41.65
-47.78
-55.28
-64.42
-70.48
-72.80
-72.28
-70.75
-70.28
-72.40
-77.78
-86.47
-98.14
-112.72
-131.45
-155.51
-185.83
-223.04
-267.33
-318.24
-373.87
-429.99
-479.72
-515.11
-528.72
-516.72
-481.02
-429.15
-371.68
-318.35
-274.95
-242.26
-217.80
-197.94
-179.98
-162.72
-145.81
-128.57
-109.44
-86.26
-57.36
-22.54
16.80
57.97
98.21
135.58
169.64
201.39
232.75
265.59
301.05
339.50
380.69
424.12
468.69
512.11
550.51
578.96
592.76
589.10
568.10
532.50
486.56
434.25
378.34
320.44
262.00
205.16
152.82
107.81
71.67
44.32
24.24
9.43
-1.75
-10.11
-15.75
-18.37
-17.60
-13.29
-5.23
6.43
20.68
35.45
48.11
56.33
58.96
56.52
50.98
45.88
44.50
48.49
57.08
67.65
76.88
81.79
80.39
72.35
60.55
49.19
41.68
38.68
38.01
35.82
28.37
13.19
-9.89
-36.74
-61.80
-81.01
-93.65
-100.89
-103.97
-103.32
-99.46
-93.93
-85.94
-73.74
-54.79
-26.51
14.03
69.11
137.96
215.08
272.21
283.38
239.54
155.92
58.94
-30.67
-104.28
-162.60
-210.09
-250.64
-282.55
-301.85
-306.09
-298.27
-283.46
-266.80
-251.62
-238.83
-227.11
-210.76
-183.46
-141.33
-86.20
-25.47
32.06
79.21
111.96
129.61
136.17
137.40
138.05
140.23
143.99
148.60
153.23
156.48
155.86
148.91
133.48
108.80
76.92
42.87
13.06
-7.64
-17.70
-20.75
-21.04
-22.15
-25.94
-32.56
-41.58
-52.98
-67.22
-84.87
-106.51
-131.67
-158.56
-183.85
-202.41
-208.64
-198.17
-170.16
-128.78
-82.53
-41.10
-11.85
2.90
6.25
4.27
2.73
4.40
8.39
11.54
11.10
6.32
-0.96
-7.74
-11.42
-11.30
-8.74
-6.48
-6.70
-9.56
-13.62
-17.37
-21.33
-28.66
-42.82
-64.44
-89.09
-107.88
-112.57
-100.70
-77.54
-53.47
-37.64
-32.46
-32.96
-30.89
-20.56
-3.02
14.80
25.10
24.25
15.03
4.53
-0.37
3.54
15.31
31.41
47.42
61.78
74.70
87.19
99.93
113.92
126.91
136.52
140.86
139.23
132.41
121.78
109.05
95.66
82.52
70.33
59.73
51.01
44.22
39.17
35.23
31.65
27.73
23.29
19.14
16.59
17.05
22.13
33.54
52.54
78.93
110.08
137.49
152.94
150.44
129.19
94.63
56.57
25.11
6.34
0.66
3.33
9.26
15.20
20.29
25.39
31.64
39.43
47.82
55.50
61.38
65.44
67.80
68.58
67.34
62.83
55.09
43.36
27.13
6.27
-18.44
-46.25
-76.94
-111.31
-150.90
-196.58
-247.14
-297.82
-340.93
-368.11
-373.91
-358.11
-326.02
-286.37
-248.04
-217.42
-197.06
-186.17
-182.03
-181.31
-180.57
-176.27
-165.13
-144.72
-114.59
-76.66
-34.86
5.99
41.42
68.62
87.07
98.23
105.03
110.67
117.59
126.50
136.11
143.64
146.09
141.64
130.66
115.80
101.11
90.56
86.41
88.40
93.85
98.84
99.64
94.09
82.32
66.54
50.01
35.74
25.32
18.36
12.85
6.15
-4.10
-19.26
-39.70
-64.66
-92.18
-118.94
-140.86
-154.24
-157.89
-154.84
-152.17
-158.46
-179.34
-213.84
-253.54
-285.88
-299.49
-289.14
-257.34
-211.83
-161.03
-110.26
-60.86
-12.13
35.58
79.53
115.30
139.20
151.16
155.30
158.52
167.67
186.70
215.00
247.86
278.14
298.41
303.93
293.08
267.56
231.20
188.51
142.86
96.54
50.02
1.99
-48.25
-100.25
-151.42
-196.87
-230.47
-247.81
-246.42
-227.90
-197.68
-160.79
-120.81
-79.22
-36.11
8.57
52.90
96.13
137.54
175.88
211.81
245.68
276.77
303.81
326.59
345.22
363.42
384.55
393.95
378.43
330.96
256.06
168.50
96.30
44.26
7.71
-22.61
-56.25
-99.90
-152.35
-207.45
-257.06
-293.66
-313.71
-313.92
-293.50
-255.53
-204.88
-148.21
-92.97
-45.08
-7.15
20.48
41.60
59.99
76.84
92.00
104.65
113.62
117.36
113.42
98.41
71.84
36.81
0.40
-27.07
-35.77
-21.14
13.41
57.43
97.61
124.31
134.29
129.90
116.11
96.91
73.06
42.75
4.05
-43.17
-92.46
-132.73
-154.04
-153.42
-135.96
-110.80
-85.66
-63.95
-45.16
-26.94
-7.84
11.69
29.34
42.93
51.69
56.69
59.59
62.17
65.91
71.17
77.47
83.79
89.58
94.96
100.66
106.95
112.23
114.78
112.88
105.56
92.53
74.25
51.25
25.89
-0.54
-29.61
-63.15
-103.09
-151.18
-209.26
-278.21
-356.22
-437.57
-513.31
-575.72
-617.98
-636.55
-631.63
-606.77
-566.75
-514.76
-451.27
-360.27
-238.37
-95.32
48.86
174.29
269.70
333.70
371.85
392.17
401.76
403.12
398.00
388.57
377.79
368.00
359.06
347.87
329.85
301.54
261.13
214.53
166.78
123.78
90.00
66.39
50.72
39.76
30.88
22.00
13.20
5.23
-2.34
-10.50
-21.07
-35.22
-52.38
-71.14
-90.01
-107.48
-113.91
-104.92
-80.14
-43.76
-1.13
44.41
90.77
136.59
180.03
221.06
256.76
284.33
300.89
305.74
300.84
287.87
267.08
241.76
216.22
193.14
174.71
161.13
146.70
132.26
119.49
109.59
102.77
97.50
89.28
82.98
79.23
78.34
81.46
88.56
98.90
111.36
124.24
135.11
141.97
142.12
134.34
119.29
97.84
71.31
41.47
10.16
-20.93
-49.87
-75.95
-98.21
-115.33
-126.84
-132.83
-133.88
-131.05
-125.66
-118.76
-111.90
-106.00
-101.26
-97.65
-95.08
-93.37
-92.48
-92.41
-93.08
-94.59
-96.61
-98.45
-99.32
-98.61
-96.19
-92.41
-88.03
-83.87
-80.68
-78.65
-77.50
-76.75
-76.16
-76.02
-77.30
-81.24
-88.93
-100.77
-116.21
-133.97
-152.67
-171.41
-190.10
-209.49
-230.63
-254.46
-281.68
-312.75
-347.78
-385.95
-424.74
-459.55
-484.22
-493.00
-482.71
-454.25
-412.33
-363.48
-313.35
-264.87
-218.39
-173.23
-129.81
-90.36
-58.07
-34.62
-18.52
-5.33
10.14
31.23
57.99
87.52
115.85
140.06
159.22
173.88
184.81
191.89
193.84
188.98
176.28
156.10
130.33
101.93
74.33
50.61
32.86
21.48
15.02
10.73
5.78
-1.31
-10.15
-18.76
-24.59
-25.71
-21.73
-13.83
-4.25
4.77
11.91
17.41
23.04
31.78
46.82
70.75
104.73
148.09
198.45
252.24
305.35
353.51
392.86
419.90
432.00
427.87
408.03
374.85
332.01
283.75
234.47
188.73
151.31
126.81
118.36
125.90
145.11
168.04
185.50
190.49
180.64
158.48
129.64
99.86
72.68
48.97
28.00
9.03
-7.59
-20.82
-29.91
-35.31
-38.81
-42.79
-48.89
-57.22
-66.26
-73.65
-77.53
-77.52
-74.99
-72.56
-72.82
-77.16
-85.19
-95.00
-104.19
-111.15
-115.92
-120.21
-126.59
-137.22
-152.56
-171.19
-190.22
-206.58
-218.43
-225.96
-231.34
-238.08
-249.87
-269.47
-297.63
-332.15
-367.81
-397.06
-412.03
-407.32
-382.54
-343.12
-298.89
-260.53
-235.56
-225.59
-226.14
-229.03
-226.23
-213.04
-189.64
-160.32
-131.25
-108.11
-94.33
-90.33
-93.69
-99.98
-103.95
-100.81
-87.63
-64.15
-32.79
2.17
36.10
65.32
87.74
102.70
110.24
110.49
103.57
90.02
70.91
48.03
23.49
-0.68
-22.34
-39.17
-48.49
-47.59
-34.75
-10.39
22.33
57.86
89.51
111.41
120.06
115.22
99.81
78.90
57.98
41.18
30.16
23.70
19.00
13.50
6.69
0.80
-0.33
6.22
20.25
37.75
52.51
59.67
58.64
54.16
54.19
65.91
91.99
129.08
169.29
203.88
226.92
237.23
237.85
233.60
228.52
224.19
219.84
213.57
203.87
190.67
175.14
159.02
143.60
129.12
114.94
100.34
85.37
71.18
59.70
52.49
49.80
50.15
50.88
49.57
45.19
38.74
32.69
29.48
29.85
32.13
32.61
27.16
13.28
-8.58
-34.97
-60.82
-81.71
-96.01
-105.61
-115.21
-129.90
-152.41
-181.22
-210.37
-231.38
-236.31
-220.92
-186.20
-138.07
-85.37
-36.92
0.45
23.28
31.17
25.93
10.92
-9.76
-31.93
-52.29
-69.16
-82.81
-95.08
-108.13
-123.27
-139.73
-154.64
-164.17
-165.53
-158.29
-144.69
-128.62
-113.92
-103.16
-96.50
-91.91
-86.58
-78.71
-68.21
-56.46
-45.14
-35.31
-28.11
-23.24
-19.31
-14.84
-9.44
-3.78
1.14
4.93
7.84
7.90
4.07
-2.89
-11.17
-19.44
-27.29
-34.73
-41.36
-46.37
-53.22
-64.05
-77.88
-91.43
-101.67
-106.88
-106.98
-103.31
-99.15
-105.16
-129.64
-173.45
-228.92
-283.73
-325.34
-345.63
-343.07
-288.90
-180.93
-44.69
82.14
175.61
233.02
263.66
276.82
278.03
270.14
250.26
219.20
183.20
151.29
128.12
116.49
114.84
120.38
131.11
142.47
153.35
166.64
185.51
209.54
236.30
261.01
279.51
289.74
289.43
279.27
262.87
244.93
228.29
214.63
202.74
191.06
178.95
165.58
151.37
137.71
128.79
122.94
119.06
115.14
109.82
103.20
96.15
90.16
86.97
88.13
90.65
96.82
106.24
115.78
120.32
114.70
96.19
66.60
32.06
0.51
-20.40
-28.34
-25.88
-18.32
-10.66
-5.83
-4.25
-5.22
-8.59
-14.54
-24.80
-40.66
-61.84
-85.09
-107.27
-125.28
-137.39
-143.74
-145.52
-145.44
-145.89
-148.07
-151.71
-155.50
-157.67
-157.18
-154.08
-149.29
-145.02
-143.03
-144.30
-148.97
-156.65
-166.40
-176.39
-184.84
-186.14
-175.64
-150.64
-112.12
-64.91
-16.17
27.25
61.11
84.73
100.18
109.66
114.29
113.51
106.04
91.69
71.57
47.86
22.88
-1.70
-25.50
-48.62
-71.24
-92.90
-111.63
-125.41
-132.71
-133.14
-127.57
-118.25
-107.76
-98.61
-92.40
-88.72
-86.57
-84.68
-81.98
-77.83
-72.08
-64.46
-53.73
-43.39
-33.51
-23.23
-11.44
2.66
19.09
37.14
55.67
73.57
90.07
105.85
121.80
139.13
159.08
182.69
210.27
240.82
271.60
298.29
316.65
323.09
316.15
297.12
269.59
238.34
207.79
180.92
158.96
142.19
129.91
121.07
114.50
108.95
103.05
95.49
85.23
71.66
55.08
36.42
17.13
-1.17
-17.06
-29.66
-38.76
-44.65
-48.01
-49.43
-49.46
-48.50
-46.85
-44.79
-42.74
-41.10
-40.20
-40.18
-40.87
-41.87
-42.74
-43.16
-43.07
-42.60
-42.02
-41.46
-40.99
-40.49
-39.91
-39.29
-38.90
-39.11
-40.27
-42.56
-45.93
-50.18
-54.99
-60.09
-65.30
-70.40
-75.10
-79.05
-81.90
-83.22
-82.81
-80.51
-76.31
-70.22
-62.46
-53.57
-44.59
-36.93
-32.04
-30.86
-33.50
-39.05
-45.86
-52.00
-55.89
-56.72
-54.68
-50.90
-47.31
-46.16
-49.43
-58.16
-71.80
-87.88
-102.43
-110.96
-109.80
-97.26
-74.05
-42.60
-6.02
32.96
72.16
109.52
142.37
167.58
182.32
185.50
178.48
164.67
148.05
131.49
115.84
100.44
84.41
67.95
52.66
40.60
33.06
29.69
28.72
28.07
26.51
24.21
22.44
22.83
26.26
32.39
39.73
46.22
49.87
49.54
45.20
37.85
29.16
20.73
13.54
7.59
2.22
-3.36
-9.43
-15.57
-20.77
-23.94
-24.45
-22.44
-18.71
-14.33
-10.21
-6.85
-4.28
-2.23
-0.40
1.20
2.09
1.20
-2.84
-11.06
-23.46
-38.40
-52.71
-62.49
-64.61
-58.10
-44.79
-28.96
-15.67
-8.99
-10.55
-19.33
-32.28
-45.51
-55.32
-58.69
-53.74
-39.83
-17.94
9.25
37.62
62.46
79.53
86.15
81.70
67.71
47.47
25.45
6.36
-5.85
-9.10
-3.66
7.95
21.94
34.58
43.31
47.31
47.06
43.70
38.31
31.51
23.54
14.52
4.63
-5.79
-16.17
-25.96
-34.51
-41.07
-44.84
-45.09
-41.56
-34.69
-25.81
-16.75
-9.34
-4.66
-2.69
-2.54
-2.94
-2.97
-2.27
-1.11
0.23
1.66
3.41
5.84
9.11
13.14
17.65
22.17
25.94
27.81
26.27
20.00
8.43
-7.54
-25.26
-41.00
-50.92
-52.42
-45.04
-30.76
-13.64
1.34
9.58
8.35
-2.30
-19.33
-37.57
-51.32
-56.26
-50.90
-36.69
-17.33
2.83
20.18
32.66
39.56
40.93
36.88
27.51
13.16
-5.19
-25.67
-45.76
-62.87
-75.04
-81.59
-83.18
-81.65
-79.33
-78.34
-79.95
-84.33
-90.63
-97.39
-102.87
-105.36
-103.33
-95.96
-84.02
-70.32
-59.48
-56.15
-62.67
-77.25
-94.00
-105.29
-104.79
-90.25
-63.63
-29.46
7.59
44.04
77.69
106.73
129.55
145.40
155.15
161.16
165.70
168.95
168.21
159.26
139.08
108.16
70.78
33.18
0.78
-23.73
-40.25
-49.80
-52.95
-49.46
-39.06
-22.64
-2.66
17.48
34.69
47.26
55.28
60.00
62.90
64.90
66.00
65.45
62.39
56.22
47.00
35.44
22.76
10.26
-0.75
-9.26
-14.69
-16.92
-16.43
-14.29
-11.87
-10.35
-10.20
-10.95
-11.50
-10.81
-8.59
-5.51
-3.03
-2.90
-6.89
-16.75
-34.12
-59.89
-93.33
-131.16
-167.54
-195.32
-208.59
-205.01
-187.11
-161.21
-134.73
-112.94
-97.16
-85.14
-72.71
-56.10
-33.35
-4.64
28.15
62.01
93.28
118.39
134.40
140.02
136.15
125.66
112.45
100.18
91.20
86.36
85.62
88.76
95.69
106.06
118.57
130.72
139.23
141.11
134.77
120.89
102.08
81.93
63.55
48.33
35.43
22.43
6.91
-11.76
-31.06
-45.63
-48.72
-34.98
-3.07
42.87
93.61
137.38
163.32
164.65
140.31
94.69
35.95
-26.26
-82.86
-126.78
-153.71
-162.33
-154.17
-133.05
-104.12
-72.76
-43.52
-19.28
-1.21
11.05
18.98
24.77
30.65
38.28
48.12
58.98
68.54
74.42
75.41
72.30
67.59
64.12
63.18
63.76
62.86
57.09
44.37
24.87
0.86
-23.99
-45.56
-59.77
-62.91
-52.46
-28.33
5.80
42.33
71.28
83.41
73.33
41.19
-7.72
-64.84
-120.89
-167.74
-199.50
-213.13
-208.69
-189.29
-160.19
-127.25
-94.84
-64.42
-34.44
-2.01
34.67
74.36
112.55
142.84
159.11
157.51
137.49
101.87
56.20
7.91
-34.92
-64.90
-77.09
-70.47
-48.40
-17.93
12.34
34.74
44.74
41.86
29.26
12.25
-3.58
-14.08
-17.56
-14.92
-8.90
-2.74
1.29
2.55
2.05
1.37
1.68
3.03
4.52
5.04
4.00
1.55
-1.93
-6.36
-12.28
-20.38
-30.69
-41.84
-51.18
-55.53
-52.34
-40.80
-22.28
0.01
21.87
39.29
49.47
51.46
46.23
36.16
23.99
11.98
1.35
-7.69
-15.25
-21.29
-25.25
-26.35
-24.13
-18.93
-11.86
-4.55
1.44
5.21
6.68
6.48
5.59
4.65
3.78
2.52
0.41
-2.62
-5.94
-8.49
-9.35
-8.35
-6.28
-4.48
-4.12
-5.49
-7.67
-9.06
-8.16
-4.48
1.09
6.42
8.99
6.75
-1.00
-13.36
-28.13
-42.39
-53.04
-57.12
-52.48
-38.63
-17.92
4.31
20.90
25.47
15.69
-4.97
-28.08
-43.82
-45.66
-33.51
-13.81
3.51
9.27
-1.67
-29.53
-70.60
-119.01
-168.15
-211.47
-242.96
-258.06
-254.52
-233.08
-197.40
-152.98
-105.51
-59.49
-17.47
19.86
53.10
83.57
112.70
141.53
170.31
198.29
223.93
245.34
260.97
269.98
272.60
269.84
263.08
253.49
241.66
227.68
211.32
192.30
170.47
146.17
120.12
93.34
66.86
41.57
18.23
-2.72
-21.09
-36.99
-50.24
-60.42
-66.96
-69.72
-69.28
-66.66
-63.53
-61.74
-63.16
-68.26
-76.19
-85.10
-93.22
-99.27
-101.86
-100.25
-94.37
-85.86
-76.05
-66.29
-57.57
-51.04
-47.42
-45.32
-42.47
-36.72
-28.73
-19.27
-9.72
-1.23
4.64
6.88
7.05
7.55
10.58
15.11
21.12
29.02
40.53
56.96
69.79
72.87
64.57
62.24
71.10
91.53
115.04
136.66
152.83
161.86
165.16
165.44
165.46
164.85
164.02
163.09
162.52
161.01
155.84
144.16
123.17
91.47
48.23
-3.17
-56.93
-106.17
-146.51
-176.05
-194.32
-200.88
-194.24
-174.04
-140.80
-98.14
-52.45
-11.86
17.28
32.19
35.40
33.42
32.95
38.77
51.86
70.27
90.16
107.79
118.42
119.78
113.05
101.53
88.74
76.22
63.32
47.91
27.86
-1.58
-41.90
-89.79
-139.37
-185.78
-227.93
-267.60
-307.13
-347.62
-393.74
-447.56
-506.78
-565.19
-615.49
-651.69
-669.65
-668.09
-619.04
-517.18
-383.56
-253.41
-150.73
-77.87
-24.06
21.78
63.80
99.76
120.11
120.01
103.56
81.97
67.12
64.25
72.07
86.16
103.33
119.12
132.85
147.91
171.00
206.44
253.76
309.45
364.46
412.59
448.56
470.69
469.09
440.62
388.09
318.93
242.24
165.48
94.27
31.24
-22.00
-64.71
-95.17
-113.09
-120.82
-122.06
-119.92
-115.35
-107.56
-94.50
-74.38
-45.03
-6.05
40.00
88.40
133.78
169.01
190.08
197.09
193.15
183.84
174.27
165.93
156.49
141.13
115.70
79.75
37.15
-6.37
-45.09
-75.25
-95.28
-104.35
-103.45
-95.19
-85.62
-76.05
-66.67
-58.35
-48.53
-37.03
-24.14
-10.38
3.95
19.22
36.42
55.56
74.20
91.65
106.77
118.79
127.56
133.57
137.77
141.09
144.45
147.35
149.03
148.28
144.41
137.49
128.19
117.63
107.05
96.93
87.13
77.55
67.91
58.31
49.18
41.03
34.08
28.13
22.32
15.40
6.52
-4.69
-17.82
-32.01
-46.38
-60.50
-74.58
-89.35
-105.80
-124.68
-146.66
-172.10
-200.86
-231.88
-262.75
-289.93
-309.61
-319.04
-317.58
-306.83
-289.82
-269.60
-248.14
-226.32
-204.52
-183.57
-165.08
-150.94
-142.13
-137.79
-134.93
-129.32
-117.21
-96.78
-69.10
-37.86
-8.07
15.82
31.18
37.98
38.09
34.31
29.06
23.69
18.59
13.65
9.03
5.43
4.12
6.37
12.81
22.95
35.19
47.31
57.36
64.30
68.23
70.03
70.57
70.29
68.98
66.28
62.17
57.40
53.36
51.72
53.95
60.99
72.96
89.07
107.36
124.90
138.43
145.38
144.95
138.55
129.58
121.97
118.51
119.44
122.00
121.39
112.51
91.85
58.81
16.05
-31.29
-76.91
-115.19
-142.41
-157.58
-162.03
-158.49
-149.81
-138.12
-124.76
-110.62
-96.76
-84.51
-75.08
-68.93
-65.31
-62.64
-59.33
-54.75
-49.65
-45.70
-44.47
-46.34
-49.98
-52.71
-51.65
-44.83
-32.22
-15.69
1.51
16.05
25.50
28.93
26.85
20.58
11.64
1.31
-9.26
-18.85
-25.99
-29.25
-27.84
-22.05
-13.48
-4.54
2.31
5.49
4.64
0.66
-4.76
-9.85
-13.11
-13.63
-10.88
-4.87
4.02
14.94
26.57
37.36
45.82
50.78
51.70
48.87
43.19
36.07
29.08
23.63
20.65
20.44
22.74
26.80
31.69
36.68
41.41
46.03
50.93
56.43
62.49
68.62
73.92
77.48
78.76
78.07
76.59
76.08
78.44
84.99
95.87
109.58
122.85
131.03
129.14
113.19
81.87
37.66
-13.39
-63.18
-104.13
-131.56
-144.91
-147.19
-143.06
-136.61
-130.09
-124.02
-118.01
-111.77
-105.26
-98.51
-91.06
-82.05
-70.77
-57.40
-43.40
-31.00
-22.23
-18.10
-18.08
-20.50
-23.33
-25.15
-25.55
-25.10
-24.86
-25.73
-27.98
-31.18
-34.53
-37.21
-38.35
-37.06
-32.40
-23.87
-11.91
1.64
13.84
21.49
22.50
16.81
6.59
-4.62
-13.33
-17.35
-16.44
-12.01
-6.30
-1.36
1.54
2.01
0.36
-2.80
-6.84
-11.31
-15.74
-19.47
-21.66
-21.46
-18.56
-13.28
-6.52
0.74
7.93
15.44
24.52
36.94
54.18
76.33
101.72
126.81
147.21
158.97
160.12
151.44
136.44
120.37
108.47
104.35
108.93
120.35
134.93
148.55
158.02
161.73
159.71
152.86
142.33
128.93
112.99
94.59
73.56
49.82
23.31
-5.82
-37.04
-69.09
-99.96
-127.15
-148.19
-161.57
-167.02
-165.73
-159.65
-150.93
-141.15
-131.28
-121.78
-112.88
-104.96
-98.26
-92.89
-88.52
-84.41
-79.66
-73.48
-65.46
-55.56
-44.09
-31.54
-18.67
-6.42
4.18
12.11
16.63
17.49
15.03
10.22
4.64
0.13
-1.59
0.54
6.47
14.98
24.13
32.06
37.87
41.92
45.58
50.37
57.07
65.10
72.80
78.18
79.96
78.42
75.09
72.13
71.43
73.83
78.90
85.05
89.69
89.43
80.53
59.95
26.77
-16.54
-64.02
-107.56
-139.53
-155.23
-154.49
-141.07
-120.74
-99.22
-80.59
-67.16
-59.70
-57.95
-60.78
-66.39
-72.49
-76.74
-77.37
-73.50
-65.27
-53.58
-39.85
-25.83
-13.21
-3.19
3.78
8.23
11.30
13.92
16.09
16.72
14.11
7.09
-4.09
-17.58
-30.67
-40.77
-46.46
-47.98
-46.74
-44.58
-42.84
-41.92
-41.16
-39.27
-34.83
-26.84
-15.12
-0.49
15.32
29.97
41.07
46.90
46.87
41.86
33.80
25.03
17.50
12.24
9.27
7.92
7.33
6.80
5.99
4.75
3.00
0.64
-2.27
-5.39
-7.96
-9.13
-8.43
-6.08
-3.03
-0.58
0.16
-1.25
-4.55
-9.05
-14.03
-18.95
-23.35
-26.67
-28.28
-27.48
-24.02
-18.36
-11.73
-5.73
-1.64
-0.05
-0.82
-3.29
-6.60
-9.96
-12.57
-13.70
-12.74
-9.39
-3.82
3.33
11.09
18.43
24.34
28.14
29.52
28.69
26.33
23.45
21.01
19.57
19.24
19.60
20.02
20.07
19.48
18.07
15.65
12.03
7.09
1.05
-5.40
-11.17
-15.11
-16.42
-15.16
-12.14
-8.61
-5.98
-5.21
-6.58
-9.71
-13.68
-17.54
-20.60
-22.60
-23.33
-22.67
-20.35
-16.05
-9.62
-1.15
8.76
19.03
28.51
36.39
42.13
45.35
45.72
42.92
37.12
29.08
19.53
9.59
0.62
-6.59
-12.03
-16.13
-19.61
-22.58
-24.75
-27.12
-30.59
-35.43
-41.38
-48.14
-55.22
-62.73
-70.57
-78.21
-86.69
-95.79
-103.54
-107.62
-107.41
-104.27
-102.07
-104.21
-111.89
-126.18
-144.69
-161.65
-170.46
-166.86
-149.54
-121.40
-86.74
-33.16
38.63
114.87
176.62
211.47
213.38
192.19
158.43
120.88
85.28
56.53
36.22
25.19
23.71
30.77
44.75
62.14
79.63
94.69
103.75
104.71
98.36
87.41
74.81
63.15
53.30
45.63
40.41
36.56
33.04
29.95
28.01
27.63
28.96
31.08
33.10
34.42
34.25
32.14
28.55
24.42
20.58
17.66
15.57
14.12
13.17
12.44
11.78
11.29
11.27
11.89
13.20
14.93
16.77
18.42
19.64
20.15
19.80
18.53
16.33
13.32
9.67
5.61
1.38
-2.73
-6.53
-9.84
-12.56
-14.65
-16.12
-17.07
-17.63
-17.96
-18.24
-18.61
-19.21
-20.15
-21.46
-23.13
-25.09
-27.21
-29.32
-31.21
-32.67
-33.51
-33.59
-32.84
-31.23
-28.81
-25.66
-21.86
-17.50
-12.66
-7.34
-1.57
4.64
11.27
18.24
25.36
32.37
38.87
44.41
48.60
51.08
51.71
50.51
47.69
43.57
38.62
33.27
28.03
23.32
19.47
16.64
14.84
13.90
13.60
13.71
14.05
14.53
15.11
15.79
16.60
17.59
18.78
20.23
21.98
24.05
26.37
28.80
31.16
33.23
34.84
35.85
36.14
35.57
34.07
31.54
28.02
23.66
18.68
13.44
8.32
3.70
-0.07
-2.72
-4.05
-3.89
-2.22
0.93
5.42
11.02
17.37
24.01
30.33
35.72
39.59
41.36
40.63
37.20
31.07
22.52
12.10
0.58
-11.12
-22.02
-31.31
-38.37
-42.92
-45.02
-45.02
-43.44
-40.89
-37.95
-35.12
-32.80
-31.22
-30.47
-30.48
-31.04
-31.90
-32.79
-33.51
-33.91
-34.00
-33.78
-33.28
-32.53
-31.52
-30.32
-29.00
-27.64
-26.27
-24.92
-23.53
-22.04
-20.39
-18.51
-16.37
-13.97
-11.29
-8.32
-5.07
-1.58
2.11
5.88
9.60
13.15
16.35
19.02
21.03
22.23
22.52
21.86
20.22
17.71
14.50
10.88
7.13
3.56
0.48
-1.85
-3.29
-3.81
-3.44
-2.35
-0.81
0.89
2.46
3.64
4.32
4.47
4.15
3.54
2.81
2.09
1.55
1.29
1.31
1.63
2.20
2.89
3.62
4.30
4.80
5.12
5.25
5.24
5.16
5.06
5.05
5.18
5.52
6.11
6.96
8.10
9.48
11.12
12.98
14.98
17.04
18.98
20.62
21.74
22.16
21.70
20.32
17.98
14.75
10.71
5.98
0.76
-4.75
-10.33
-15.76
-20.83
-25.39
-29.36
-32.70
-35.40
-37.40
-38.67
-39.15
-38.86
-37.83
-36.07
-33.65
-30.60
-27.00
-22.91
-18.41
-13.67
-8.87
-4.22
0.12
3.97
7.20
9.65
11.27
12.02
12.00
11.35
10.22
8.85
7.46
6.29
5.50
5.25
5.65
6.70
8.35
10.45
12.91
15.57
18.34
21.10
23.76
26.23
28.40
30.19
31.54
32.38
32.64
32.25
31.13
29.26
26.58
23.13
18.96
14.21
9.01
3.55
-1.92
-7.15
-11.90
-15.93
-19.07
-21.17
-22.20
-22.23
-21.37
-19.78
-17.64
-15.13
-12.42
-9.62
-6.89
-4.37
-2.19
-0.45
0.83
1.67
2.11
2.24
2.13
1.79
1.24
0.52
-0.29
-1.11
-1.87
-2.51
-2.98
-3.31
-3.51
-3.62
-3.69
-3.74
-3.81
-3.92
-4.15
-4.53
-5.08
-5.79
-6.65
-7.60
-8.59
-9.54
-10.37
-10.97
-11.27
-11.20
-10.77
-10.05
-9.15
-8.20
-7.37
-6.76
-6.50
-6.63
-7.16
-8.03
-9.11
-10.19
-11.07
-11.58
-11.63
-11.24
-10.50
-9.54
-8.53
-7.53
-6.59
-5.72
-4.94
-4.21
-3.50
-2.79
-2.04
-1.27
-0.50
0.16
0.60
0.69
0.37
-0.37
-1.51
-2.89
-4.37
-5.75
-6.83
-7.47
-7.50
-6.83
-5.43
-3.38
-0.75
2.29
5.57
8.85
11.95
14.68
16.96
18.68
19.80
20.39
20.52
20.32
19.90
19.39
18.82
18.25
17.66
16.99
16.24
15.37
14.42
13.40
12.45
11.70
11.31
11.41
12.06
13.25
14.89
16.89
19.09
21.33
23.45
25.24
26.59
27.45
27.85
27.88
27.69
27.40
27.08
26.77
26.41
25.93
25.24
24.27
22.94
21.18
18.99
16.34
13.30
9.91
6.32
2.67
-0.86
-4.13
-6.99
-9.31
-11.02
-12.01
-12.27
-11.75
-10.54
-8.68
-6.29
-3.44
-0.21
3.36
7.31
11.61
16.25
21.19
26.34
31.57
36.72
41.52
45.66
48.81
50.66
50.91
49.39
45.99
40.78
33.99
26.01
17.41
8.84
1.06
-5.26
-9.60
-11.64
-11.35
-8.93
-4.79
0.45
6.03
11.15
15.01
16.98
16.63
13.89
8.92
2.17
-5.82
-14.42
-23.00
-30.98
-37.82
-43.07
-46.46
-47.97
-47.77
-46.21
-43.75
-40.87
-38.02
-35.59
-33.92
-33.23
-33.70
-35.30
-37.81
-40.93
-44.30
-47.62
-50.63
-53.15
-55.02
-56.09
-56.25
-55.55
-54.26
-52.82
-51.77
-51.57
-52.48
-54.56
-57.67
-61.59
-66.11
-70.87
-75.32
-78.72
-80.18
-78.94
-74.55
-66.97
-56.61
-44.24
-30.75
-16.93
-3.47
9.11
20.42
30.18
38.27
44.69
49.48
52.72
54.48
54.75
53.44
50.43
45.60
38.89
30.47
20.64
9.97
-0.87
-11.16
-20.18
-27.32
-32.15
-34.41
-34.02
-31.04
-25.69
-18.30
-9.34
0.72
11.36
22.04
32.21
41.34
49.01
54.92
58.95
61.10
61.51
60.38
57.93
54.36
49.85
44.57
38.72
32.46
25.89
19.11
12.18
5.15
-1.93
-9.00
-16.04
-23.01
-29.82
-36.26
-41.96
-46.51
-49.54
-50.88
-50.57
-48.83
-46.00
-42.45
-38.50
-34.48
-30.65
-27.27
-24.46
-22.25
-20.47
-18.88
-17.22
-15.24
-12.84
-10.04
-6.92
-3.60
-0.17
3.39
7.18
11.36
16.11
21.51
27.51
33.90
40.34
46.32
51.29
54.71
56.09
55.17
51.85
46.26
38.68
29.56
19.39
8.79
-1.59
-11.03
-18.94
-24.89
-28.76
-30.66
-30.95
-30.06
-28.40
-26.33
-24.14
-22.01
-20.12
-18.57
-17.34
-16.35
-15.45
-14.47
-13.30
-11.94
-10.53
-9.29
-8.48
-8.30
-8.83
-10.06
-11.80
-13.80
-15.76
-17.43
-18.60
-19.19
-19.26
-18.99
-18.74
-18.94
-20.05
-22.32
-25.82
-30.37
-35.60
-41.01
-46.07
-50.28
-53.23
-54.59
-54.17
-51.98
-48.18
-43.10
-37.12
-30.50
-23.38
-15.70
-7.31
2.05
12.49
24.08
36.63
49.84
63.23
76.28
88.41
99.05
107.70
113.96
117.57
118.39
116.51
112.13
105.60
97.36
87.90
77.64
67.03
56.46
46.31
36.91
28.57
21.49
15.78
11.43
8.24
5.92
4.04
2.16
-0.21
-3.41
-7.67
-12.96
-19.08
-25.60
-32.02
-37.81
-42.48
-45.71
-47.26
-47.07
-45.21
-41.89
-37.46
-32.31
-26.88
-21.54
-16.52
-11.96
-7.88
-4.26
-1.06
1.76
4.23
6.42
8.42
10.30
12.14
13.98
15.82
17.69
19.56
21.42
23.30
25.17
27.05
28.93
30.80
32.59
34.25
35.66
36.70
37.27
37.25
36.66
35.55
34.08
32.48
31.01
29.91
29.37
29.48
30.18
31.34
32.67
33.80
34.33
33.93
32.28
29.18
24.59
18.59
11.50
3.76
-4.11
-11.55
-18.02
-23.09
-26.54
-28.24
-28.32
-27.04
-24.75
-21.87
-18.75
-15.71
-12.98
-10.69
-8.91
-7.64
-6.80
-6.26
-5.87
-5.47
-4.99
-4.41
-3.79
-3.17
-2.60
-2.06
-1.48
-0.77
0.21
1.56
3.32
5.54
8.27
11.53
15.30
19.54
24.11
28.80
33.33
37.34
40.54
42.58
43.16
41.95
38.72
33.30
25.69
16.07
4.74
-7.82
-21.04
-34.37
-47.29
-59.35
-70.17
-79.48
-87.16
-93.18
-97.60
-100.48
-101.90
-101.84
-100.28
-97.16
-92.52
-86.44
-79.13
-70.89
-62.09
-53.11
-44.31
-36.11
-28.83
-22.76
-18.04
-14.70
-12.61
-11.55
-11.14
-10.94
-10.54
-9.58
-7.77
-4.97
-1.15
3.57
8.94
14.64
20.33
25.67
30.35
34.10
36.74
38.21
38.52
37.81
36.25
34.12
31.60
28.88
26.11
23.39
20.83
18.50
16.45
14.69
13.23
12.06
11.17
10.53
10.15
9.98
10.07
10.40
10.89
11.47
12.02
12.41
12.52
12.22
11.41
10.04
8.10
5.64
2.77
-0.36
-3.54
-6.58
-9.34
-11.70
-13.58
-14.95
-15.83
-16.21
-16.13
-15.66
-14.89
-13.94
-12.91
-11.91
-10.92
-9.94
-8.87
-7.68
-6.38
-4.98
-3.53
-2.08
-0.66
0.73
2.07
3.38
4.69
6.01
7.41
8.91
10.50
12.08
13.53
14.72
15.57
16.06
16.21
16.10
15.84
15.49
15.18
14.95
14.86
14.96
15.18
15.44
15.58
15.48
14.99
14.02
12.52
10.46
7.88
4.90
1.69
-1.47
-4.33
-6.69
-8.36
-9.28
-9.42
-8.85
-7.72
-6.20
-4.52
-2.95
-1.66
-0.78
-0.40
-0.53
-1.14
-2.24
-3.73
-5.56
-7.62
-9.71
-11.71
-13.45
-14.82
-15.68
-15.97
-15.64
-14.70
-13.24
-11.33
-9.12
-6.75
-4.35
-1.99
0.20
2.16
3.86
5.31
6.58
7.75
8.90
10.10
11.41
12.79
14.19
15.48
16.47
16.99
16.86
15.99
14.31
11.85
8.71
5.06
1.14
-2.80
-6.50
-9.71
-12.27
-14.08
-15.10
-15.33
-14.78
-13.50
-11.59
-9.19
-6.49
-3.78
-1.29
0.76
2.21
3.04
3.34
3.21
2.85
2.40
2.06
1.94
2.17
2.75
3.71
4.98
6.43
7.92
9.32
10.57
11.65
12.58
13.38
14.07
14.64
15.02
15.15
14.95
14.35
13.32
11.80
9.77
7.23
4.20
0.78
-2.87
-6.62
-10.24
-13.51
-16.17
-18.00
-18.86
-18.70
-17.56
-15.59
-13.04
-10.18
-7.26
-4.56
-2.22
-0.38
0.93
1.77
2.24
2.41
2.41
2.33
2.27
2.31
2.50
2.85
3.33
3.93
4.59
5.28
5.97
6.62
7.18
7.60
7.86
7.99
8.05
8.11
8.29
8.65
9.24
10.08
11.08
12.14
13.11
13.75
13.89
13.35
12.00
9.82
6.87
3.27
-0.78
-5.03
-9.24
-13.09
-16.35
-18.83
-20.37
-20.88
-20.38
-18.96
-16.81
-14.17
-11.29
-8.44
-5.82
-3.56
-1.75
-0.46
0.29
0.46
0.08
-0.75
-1.91
-3.29
-4.70
-6.02
-7.08
-7.68
-7.68
-6.95
-5.44
-3.18
-0.34
2.88
6.22
9.44
12.38
14.90
16.86
18.18
18.77
18.57
17.54
15.68
13.09
9.96
6.52
3.02
-0.29
-3.21
-5.57
-7.25
-8.19
-8.37
-7.85
-6.73
-5.16
-3.36
-1.52
0.15
1.49
2.39
2.77
2.66
2.13
1.33
0.45
-0.35
-0.92
-1.15
-0.94
-0.25
0.92
2.59
4.71
7.20
9.88
12.59
15.15
17.50
19.59
21.41
22.97
24.22
25.13
25.60
25.52
24.79
23.30
20.95
17.63
13.28
7.90
1.60
-5.36
-12.58
-19.52
-25.66
-30.49
-33.65
-34.94
-34.34
-31.97
-28.03
-22.91
-17.02
-10.90
-5.07
-0.01
3.88
6.36
7.31
6.79
4.90
1.82
-2.23
-6.99
-12.12
-17.30
-22.19
-26.49
-29.93
-32.35
-33.59
-33.56
-32.14
-29.32
-25.15
-19.79
-13.54
-6.82
-0.05
6.38
12.16
17.08
21.04
23.99
25.99
27.13
27.49
27.23
26.43
25.15
23.41
21.13
18.28
14.83
10.79
6.26
1.44
-3.36
-7.83
-11.64
-14.56
-16.43
-17.17
-16.80
-15.34
-12.92
-9.70
-5.88
-1.66
2.77
7.28
11.76
16.17
20.44
24.50
28.19
31.31
33.71
35.21
35.62
34.87
32.92
29.89
26.00
21.62
17.20
13.28
10.25
8.40
7.78
8.29
9.61
11.28
12.76
13.48
12.94
10.81
6.96
1.57
-4.96
-12.07
-19.09
-25.40
-30.49
-34.01
-35.85
-36.13
-35.17
-33.41
-31.33
-29.35
-27.75
-26.67
-26.10
-25.95
-26.05
-26.19
-26.19
-25.90
-25.27
-24.31
-23.14
-21.89
-20.70
-19.62
-18.64
-17.73
-16.82
-15.83
-14.68
-13.34
-11.80
-10.07
-8.22
-6.30
-4.41
-2.62
-0.96
0.55
1.91
3.17
4.37
5.55
6.76
8.02
9.29
10.55
11.73
12.76
13.56
14.13
14.41
14.46
14.33
14.10
13.86
13.65
13.50
13.33
13.05
12.50
11.52
9.97
7.75
4.88
1.44
-2.40
-6.37
-10.17
-13.51
-16.10
-17.75
-18.39
-18.03
-16.77
-14.83
-12.45
-9.85
-7.26
-4.88
-2.84
-1.26
-0.15
0.52
0.86
0.96
0.96
0.94
0.93
0.96
0.98
1.02
1.05
1.09
1.14
1.23
1.37
1.59
1.92
2.34
2.93
3.68
4.61
5.73
7.03
8.50
10.11
11.82
13.52
15.11
16.39
17.17
17.26
16.50
14.83
12.24
8.88
4.90
0.61
-3.71
-7.74
-11.21
-13.93
-15.74
-16.65
-16.68
-15.99
-14.73
-13.13
-11.35
-9.58
-7.92
-6.42
-5.06
-3.79
-2.49
-1.10
0.42
2.10
3.85
5.61
7.30
8.87
10.26
11.47
12.44
13.21
13.84
14.43
15.08
15.85
16.73
17.69
18.73
19.77
20.85
22.02
23.28
24.71
26.27
27.89
29.46
30.83
31.77
32.12
31.72
30.39
28.08
24.79
20.54
15.52
9.91
3.96
-2.04
-7.82
-13.16
-17.81
-21.58
-24.35
-26.08
-26.87
-26.86
-26.26
-25.29
-24.16
-22.97
-21.80
-20.71
-19.71
-18.82
-17.99
-17.13
-16.20
-15.17
-14.01
-12.87
-11.84
-11.04
-10.57
-10.50
-10.73
-11.12
-11.46
-11.48
-10.98
-9.79
-7.78
-5.00
-1.62
2.13
5.92
9.34
12.06
13.74
14.16
13.30
11.19
8.04
4.12
-0.25
-4.80
-9.22
-13.31
-16.84
-19.61
-21.54
-22.52
-22.58
-21.76
-20.17
-17.91
-15.13
-12.01
-8.75
-5.61
-2.74
-0.24
1.87
3.70
5.38
7.08
8.96
11.14
13.62
16.33
19.13
21.76
23.89
25.24
25.50
24.47
22.09
18.47
13.86
8.66
3.28
-1.82
-6.28
-9.80
-12.21
-13.48
-13.74
-13.25
-12.26
-11.08
-9.92
-8.89
-8.04
-7.39
-6.88
-6.36
-5.69
-4.68
-3.21
-1.26
1.06
3.48
5.73
7.56
8.82
9.49
9.64
9.41
8.88
8.15
7.26
6.38
5.67
5.32
5.51
6.31
7.69
9.42
11.20
12.68
13.63
14.06
14.13
14.16
14.44
15.17
16.30
17.70
19.12
20.35
21.24
21.68
21.56
20.85
19.68
18.32
17.10
16.13
15.15
13.62
10.82
6.33
0.21
-6.95
-14.37
-21.31
-27.41
-32.69
-37.19
-40.84
-43.25
-43.92
-42.48
-39.00
-33.97
-28.25
-22.76
-18.22
-15.07
-13.28
-12.55
-12.37
-12.31
-12.06
-11.50
-10.67
-9.68
-8.59
-7.32
-5.74
-3.74
-1.43
0.96
3.14
4.89
6.30
7.62
9.23
11.42
14.22
17.42
20.63
23.53
25.81
27.37
28.13
28.05
27.09
25.27
22.71
19.55
16.00
12.26
8.57
5.07
1.92
-0.81
-3.16
-5.20
-7.05
-8.81
-10.49
-11.90
-12.83
-13.11
-12.74
-11.97
-11.13
-10.58
-10.49
-10.81
-11.29
-11.70
-11.96
-12.19
-12.61
-13.31
-14.05
-14.24
-13.14
-10.12
-5.09
1.32
7.89
13.08
15.68
15.27
12.70
9.68
8.03
9.00
12.66
17.95
23.16
26.83
28.21
27.36
24.77
21.01
16.89
13.59
12.59
15.05
20.83
27.70
31.97
30.28
21.38
6.83
-9.77
-24.83
-36.86
-47.16
-58.89
-75.20
-97.14
-122.91
-148.60
-169.76
-182.77
-185.90
-179.43
-165.17
-145.67
-123.44
-100.41
-77.92
-56.89
-38.20
-22.68
-10.79
-2.14
4.65
11.42
19.83
30.66
43.61
57.37
70.25
80.82
88.34
92.90
95.25
96.36
97.01
97.63
98.19
98.42
98.14
97.26
95.97
94.54
93.21
91.95
90.47
88.20
84.61
79.29
72.14
63.39
53.53
43.26
33.24
24.14
16.43
10.43
6.30
3.99
3.23
3.60
4.53
5.45
5.74
4.87
2.48
-1.58
-7.19
-13.98
-21.46
-29.02
-36.03
-41.93
-46.23
-48.63
-48.92
-47.15
-43.49
-38.39
-32.39
-26.13
-20.22
-15.15
-11.27
-8.77
-7.72
-8.03
-9.53
-11.97
-15.11
-18.75
-22.74
-26.95
-31.27
-35.45
-39.06
-41.59
-42.52
-41.50
-38.42
-33.46
-27.00
-19.56
-11.66
-3.77
3.66
10.27
15.74
19.89
22.67
24.16
24.57
24.19
23.34
22.23
21.07
19.94
18.94
18.13
17.56
17.26
17.29
17.62
18.19
18.90
19.60
20.14
20.41
20.34
19.89
19.04
17.78
16.11
14.08
11.71
9.09
6.32
3.54
0.92
-1.38
-3.19
-4.35
-4.74
-4.32
-3.11
-1.24
1.08
3.63
6.12
8.35
10.12
11.33
11.97
12.08
11.80
11.33
10.86
10.53
10.40
10.39
10.31
9.95
9.06
7.45
4.95
1.49
-2.97
-8.30
-14.29
-20.61
-26.85
-32.67
-37.80
-41.93
-44.83
-46.22
-45.81
-43.42
-39.07
-33.03
-25.86
-18.19
-10.62
-3.60
2.62
7.95
12.35
15.88
18.61
20.64
22.17
23.52
24.94
26.73
29.00
31.73
34.74
37.80
40.57
42.67
43.73
43.41
41.54
38.15
33.53
28.14
22.55
17.24
12.53
8.48
4.98
1.88
-0.94
-3.39
-5.24
-6.13
-5.81
-4.27
-1.82
0.93
3.09
3.71
1.92
-2.80
-10.43
-20.27
-30.95
-40.76
-48.08
-51.88
-51.98
-48.99
-44.00
-38.12
-32.20
-26.73
-21.94
-18.07
-15.29
-13.73
-13.44
-14.24
-15.82
-17.80
-19.83
-21.49
-22.37
-22.01
-20.04
-16.38
-11.36
-5.64
-0.16
4.09
6.40
6.51
4.84
2.32
0.27
-0.14
1.75
5.74
10.87
15.65
18.62
18.81
16.00
10.66
3.72
-3.74
-10.71
-16.38
-20.07
-21.35
-20.10
-16.66
-11.95
-7.32
-4.06
-3.05
-4.26
-6.91
-9.78
-11.85
-12.53
-11.88
-10.24
-7.92
-5.09
-1.83
1.70
5.13
8.07
10.25
11.62
12.41
13.02
13.68
14.45
15.05
15.11
14.35
12.82
10.98
9.60
9.28
10.06
11.31
11.92
10.90
7.94
3.56
-1.24
-5.55
-9.02
-11.89
-14.56
-17.08
-18.99
-19.48
-17.87
-14.08
-8.77
-3.13
1.49
4.20
4.80
3.72
1.90
0.21
-0.78
-1.07
-1.01
-1.16
-1.90
-3.34
-5.45
-8.01
-10.81
-13.52
-15.88
-17.75
-19.24
-20.73
-22.60
-25.16
-28.15
-30.78
-32.05
-31.33
-28.54
-24.26
-19.51
-15.38
-12.91
-12.45
-13.82
-16.30
-19.11
-21.65
-23.65
-25.28
-26.92
-29.10
-31.84
-34.78
-37.18
-38.56
-38.61
-37.19
-34.40
-29.00
-21.47
-13.97
-9.89
-11.91
-21.24
-36.70
-55.62
-75.26
-93.47
-109.55
-123.83
-137.25
-150.26
-163.22
-175.71
-185.64
-191.16
-191.08
-185.30
-174.35
-159.19
-140.04
-117.32
-89.14
-53.38
-8.79
44.53
105.15
171.34
235.72
292.88
338.84
374.45
402.51
426.38
448.83
471.71
496.64
525.54
560.98
585.81
585.61
550.01
477.41
375.55
258.45
141.98
40.04
-37.97
-90.13
-118.35
-128.07
-125.67
-117.15
-106.77
-97.04
-89.21
-83.45
-80.23
-79.08
-78.82
-78.48
-78.77
-80.89
-85.43
-91.81
-97.86
-102.67
-105.11
-104.33
-100.77
-97.90
-100.17
-111.25
-132.54
-162.15
-193.67
-219.51
-231.49
-216.46
-171.10
-105.13
-38.21
5.22
18.57
3.53
-33.32
-80.37
-125.22
-158.67
-175.36
-173.79
-155.24
-122.09
-79.12
-31.84
14.82
55.88
85.80
100.78
100.30
87.50
68.35
47.89
29.63
15.44
5.33
-2.32
-9.10
-15.45
-20.65
-23.01
-21.96
-17.98
-12.28
-6.57
-2.79
-2.09
-4.36
-8.33
-11.86
-13.32
-11.69
-6.74
1.12
10.85
21.33
31.63
41.12
49.52
56.50
61.80
65.19
66.53
65.85
63.35
59.41
54.52
49.19
43.81
38.58
33.58
28.67
23.68
18.46
12.89
6.89
0.50
-6.20
-13.06
-19.80
-26.14
-31.75
-36.27
-39.40
-40.87
-40.55
-38.40
-34.59
-29.40
-23.26
-16.71
-10.34
-4.77
-0.54
1.90
2.27
0.49
-3.34
-8.88
-15.68
-23.20
-30.83
-37.97
-44.10
-48.81
-51.82
-53.01
-52.40
-50.13
-46.45
-41.69
-36.14
-30.13
-23.88
-17.59
-11.40
-5.37
0.46
6.06
11.39
16.39
20.95
24.94
28.18
30.53
31.85
32.08
31.21
29.29
26.46
22.90
18.85
14.55
10.21
6.04
2.23
-1.11
-3.93
-6.16
-7.82
-8.94
-9.54
-9.69
-9.42
-8.79
-7.83
-6.59
-5.09
-3.40
-1.51
0.53
2.64
4.78
6.85
8.76
10.42
11.75
12.65
13.08
13.08
12.68
11.97
11.09
10.16
9.35
8.74
8.40
8.35
8.53
8.82
9.09
9.17
8.91
8.23
7.05
5.39
3.32
1.01
-1.43
-3.73
-5.73
-7.28
-8.25
-8.62
-8.38
-7.63
-6.50
-5.20
-3.87
-2.68
-1.78
-1.24
-1.09
-1.29
-1.74
-2.31
-2.86
-3.25
-3.41
-3.23
-2.71
-1.84
-0.66
0.77
2.42
4.22
6.17
8.22
10.34
12.53
14.71
16.83
18.77
20.44
21.71
22.45
22.57
22.02
20.80
18.98
16.66
13.99
11.16
8.33
5.66
3.30
1.32
-0.23
-1.35
-2.13
-2.70
-3.15
-3.61
-4.12
-4.66
-5.23
-5.75
-6.12
-6.25
-6.03
-5.35
-4.17
-2.47
-0.39
1.90
4.15
6.12
7.55
8.29
8.21
7.29
5.62
3.33
0.69
-2.01
-4.43
-6.29
-7.36
-7.52
-6.78
-5.27
-3.18
-0.76
1.70
3.92
5.66
6.77
7.14
6.76
5.67
3.97
1.84
-0.56
-3.05
-5.44
-7.58
-9.36
-10.70
-11.56
-11.93
-11.84
-11.37
-10.61
-9.68
-8.75
-7.96
-7.44
-7.29
-7.60
-8.35
-9.51
-11.00
-12.69
-14.45
-16.08
-17.45
-18.39
-18.82
-18.72
-18.09
-16.96
-15.42
-13.55
-11.47
-9.30
-7.14
-5.08
-3.18
-1.43
0.25
1.93
3.67
5.53
7.56
9.70
11.88
13.97
15.80
17.23
18.10
18.30
17.76
16.54
14.74
12.53
10.14
7.77
5.65
3.94
2.75
2.07
1.89
2.04
2.38
2.69
2.80
2.52
1.80
0.61
-1.00
-2.88
-4.85
-6.64
-7.99
-8.70
-8.64
-7.74
-6.10
-3.96
-1.64
0.45
1.92
2.45
1.73
-0.37
-3.80
-8.34
-13.61
-19.04
-24.02
-27.93
-30.21
-30.54
-28.77
-24.97
-19.47
-12.70
-5.27
2.19
9.05
14.84
19.15
21.83
22.84
22.31
20.52
17.81
14.54
11.05
7.67
4.60
2.05
0.10
-1.24
-1.94
-2.07
-1.70
-0.94
0.13
1.39
2.76
4.15
5.47
6.69
7.75
8.64
9.33
9.82
10.12
10.24
10.21
10.05
9.79
9.44
9.04
8.60
8.16
7.77
7.48
7.36
7.46
7.83
8.44
9.27
10.22
11.15
11.90
12.24
11.99
10.99
9.15
6.50
3.17
-0.66
-4.73
-8.76
-12.50
-15.67
-18.09
-19.63
-20.23
-19.92
-18.84
-17.14
-15.03
-12.74
-10.45
-8.34
-6.51
-5.03
-3.93
-3.19
-2.75
-2.52
-2.39
-2.24
-1.96
-1.47
-0.70
0.36
1.68
3.24
4.94
6.72
8.52
10.30
12.02
13.68
15.27
16.77
18.16
19.36
20.26
20.76
20.66
19.84
18.16
15.57
12.09
7.82
2.97
-2.22
-7.42
-12.34
-16.70
-20.28
-22.92
-24.59
-25.30
-25.16
-24.30
-22.89
-21.10
-19.09
-16.99
-14.90
-12.91
-11.05
-9.34
-7.84
-6.53
-5.45
-4.59
-3.95
-3.51
-3.28
-3.19
-3.21
-3.26
-3.27
-3.17
-2.89
-2.33
-1.44
-0.23
1.37
3.33
5.59
8.12
10.84
13.65
16.47
19.23
21.83
24.21
26.31
28.06
29.47
30.50
31.14
31.43
31.40
31.13
30.70
30.16
29.55
28.86
28.03
26.88
25.17
22.62
18.95
13.92
7.37
-0.66
-9.92
-19.97
-30.20
-39.89
-48.31
-54.82
-58.89
-60.29
-58.98
-55.21
-49.39
-42.10
-33.96
-25.55
-17.38
-9.80
-3.07
2.68
7.36
10.98
13.54
15.06
15.58
15.15
13.91
11.98
9.59
6.97
4.40
2.14
0.38
-0.70
-1.07
-0.74
0.12
1.34
2.69
3.93
4.84
5.19
4.87
3.79
1.97
-0.53
-3.59
-7.03
-10.62
-14.10
-17.26
-19.89
-21.82
-22.96
-23.28
-22.83
-21.73
-20.14
-18.23
-16.20
-14.24
-12.47
-11.01
-9.92
-9.20
-8.85
-8.82
-9.02
-9.36
-9.74
-10.04
-10.16
-9.99
-9.43
-8.40
-6.88
-4.84
-2.33
0.60
3.82
7.17
10.52
13.72
16.63
19.16
21.26
22.92
24.17
25.07
25.68
26.08
26.31
26.36
26.20
25.73
24.85
23.44
21.41
18.75
15.50
11.82
7.93
4.16
0.80
-1.82
-3.45
-3.93
-3.24
-1.47
1.15
4.27
7.55
10.63
13.24
15.20
16.42
16.88
16.62
15.80
14.54
13.04
11.45
9.89
8.43
7.10
5.91
4.80
3.76
2.79
1.93
1.22
0.75
0.58
0.79
1.43
2.47
3.85
5.44
7.07
8.50
9.51
9.86
9.39
8.00
5.68
2.52
-1.29
-5.51
-9.85
-14.04
-17.80
-20.92
-23.26
-24.73
-25.28
-24.97
-23.87
-22.10
-19.82
-17.17
-14.32
-11.45
-8.70
-6.24
-4.22
-2.72
-1.83
-1.56
-1.87
-2.69
-3.90
-5.33
-6.85
-8.29
-9.51
-10.40
-10.88
-10.93
-10.55
-9.77
-8.62
-7.17
-5.44
-3.44
-1.20
1.27
3.93
6.73
9.58
12.33
14.80
16.78
18.06
18.44
17.78
16.02
13.18
9.39
4.87
-0.09
-5.16
-10.03
-14.40
-18.05
-20.84
-22.71
-23.71
-23.92
-23.48
-22.55
-21.28
-19.82
-18.26
-16.67
-15.11
-13.61
-12.16
-10.78
-9.43
-8.11
-6.78
-5.41
-4.01
-2.52
-0.95
0.70
2.45
4.24
6.09
7.95
9.80
11.56
13.25
14.83
16.32
17.77
19.22
20.75
22.37
24.13
26.01
27.95
29.84
31.51
32.74
33.28
32.97
31.61
29.18
25.73
21.37
16.30
10.76
5.05
-0.56
-5.75
-10.31
-14.03
-16.77
-18.53
-19.33
-19.29
-18.53
-17.24
-15.60
-13.82
-12.07
-10.52
-9.31
-8.53
-8.22
-8.33
-8.81
-9.49
-10.23
-10.85
-11.18
-11.10
-10.49
-9.29
-7.49
-5.18
-2.40
0.70
3.96
7.24
10.38
13.28
15.86
18.07
19.89
21.30
22.30
22.89
23.03
22.66
21.75
20.22
18.04
15.20
11.76
7.81
3.52
-0.88
-5.15
-9.05
-12.36
-14.89
-16.54
-17.29
-17.20
-16.40
-15.05
-13.36
-11.51
-9.66
-7.94
-6.42
-5.11
-4.00
-3.02
-2.12
-1.23
-0.26
0.82
2.05
3.46
5.04
6.77
8.64
10.62
12.66
14.68
16.58
18.25
19.59
20.49
20.87
20.71
20.00
18.80
17.17
15.23
13.09
10.82
8.49
6.07
3.60
1.00
-1.75
-4.71
-7.85
-11.14
-14.50
-17.83
-21.02
-23.96
-26.60
-28.90
-30.84
-32.48
-33.84
-34.98
-35.91
-36.62
-37.03
-37.10
-36.70
-35.76
-34.22
-32.04
-29.24
-25.90
-22.12
-18.06
-13.85
-9.64
-5.54
-1.63
2.09
5.62
9.03
12.38
15.77
19.27
22.84
26.45
29.96
33.24
36.09
38.29
39.64
39.98
39.23
37.32
34.33
30.36
25.61
20.26
14.56
8.77
3.13
-2.10
-6.71
-10.56
-13.54
-15.66
-16.96
-17.50
-17.40
-16.78
-15.80
-14.58
-13.28
-12.04
-10.96
-10.09
-9.43
-8.96
-8.65
-8.43
-8.20
-7.90
-7.45
-6.82
-5.99
-5.00
-3.89
-2.67
-1.32
0.22
2.00
4.11
6.61
9.47
12.64
16.00
19.36
22.48
25.11
26.97
27.87
27.70
26.44
24.19
21.13
17.52
13.69
9.94
6.49
3.54
1.18
-0.58
-1.79
-2.60
-3.18
-3.68
-4.26
-5.00
-5.99
-7.22
-8.65
-10.18
-11.71
-13.13
-14.30
-15.12
-15.56
-15.56
-15.13
-14.29
-13.05
-11.45
-9.57
-7.45
-5.12
-2.63
-0.05
2.56
5.13
7.62
9.95
12.07
13.94
15.54
16.88
17.97
18.83
19.48
19.95
20.22
20.27
20.02
19.42
18.40
16.91
14.88
12.31
9.25
5.77
1.95
-2.05
-6.10
-10.03
-13.68
-16.92
-19.60
-21.63
-22.91
-23.41
-23.12
-22.11
-20.47
-18.36
-15.98
-13.53
-11.22
-9.23
-7.71
-6.72
-6.29
-6.39
-6.93
-7.79
-8.85
-9.99
-11.13
-12.16
-13.03
-13.67
-14.04
-14.08
-13.77
-13.04
-11.89
-10.31
-8.30
-5.91
-3.20
-0.27
2.81
5.96
9.09
12.17
15.15
18.03
20.73
23.22
25.39
27.11
28.23
28.57
27.98
26.37
23.73
20.08
15.61
10.59
5.36
0.26
-4.36
-8.23
-11.19
-13.17
-14.27
-14.64
-14.52
-14.18
-13.85
-13.73
-13.89
-14.37
-15.10
-15.97
-16.83
-17.54
-17.99
-18.12
-17.91
-17.39
-16.60
-15.60
-14.46
-13.19
-11.84
-10.41
-8.86
-7.20
-5.43
-3.55
-1.56
0.52
2.70
4.97
7.35
9.86
12.52
15.33
18.27
21.26
24.17
26.83
29.04
30.58
31.26
30.94
29.53
27.05
23.63
19.42
14.73
9.87
5.13
0.80
-2.92
-5.87
-7.93
-9.01
-9.15
-8.48
-7.23
-5.74
-4.34
-3.32
-2.85
-2.93
-3.38
-4.02
-4.68
-5.23
-5.67
-6.12
-6.74
-7.58
-8.57
-9.52
-10.21
-10.52
-10.47
-10.17
-10.08
-10.61
-11.82
-13.33
-14.41
-14.38
-12.85
-9.85
-5.76
-1.75
1.01
2.01
1.73
1.35
2.19
5.02
10.00
16.66
23.21
27.80
29.41
28.35
25.74
22.67
19.31
15.01
8.67
-2.18
-19.62
-44.55
-76.19
-112.47
-150.53
-187.51
-220.02
-237.16
-230.67
-199.62
-152.84
-104.08
-64.90
-40.32
-30.27
-30.97
-37.86
-48.73
-62.68
-79.01
-95.74
-111.24
-122.14
-126.41
-122.40
-109.64
-89.67
-64.03
-33.85
0.99
39.09
77.90
113.25
142.70
164.80
178.29
183.65
181.99
175.36
165.28
157.81
151.01
143.80
135.70
126.30
116.93
108.80
103.10
99.89
98.82
97.77
97.67
100.72
109.66
129.70
159.51
197.93
241.54
285.42
322.69
350.41
368.27
365.84
339.33
290.87
227.91
158.62
96.91
39.69
-17.42
-77.58
-142.44
-209.46
-271.77
-319.61
-343.47
-337.32
-303.32
-249.54
-189.86
-139.70
-109.16
-101.44
-113.04
-136.58
-163.46
-186.45
-197.90
-191.62
-164.18
-115.12
-48.59
27.07
101.19
163.55
206.15
226.10
224.84
207.12
180.14
151.11
125.34
104.90
88.63
73.02
54.76
31.86
4.03
-27.29
-59.96
-91.95
-121.53
-147.32
-168.17
-182.74
-189.76
-188.38
-178.45
-160.63
-136.46
-108.15
-78.25
-49.50
-24.40
-5.19
6.34
8.93
2.05
-13.93
-37.62
-66.65
-97.94
-128.12
-154.01
-173.05
-183.60
-185.11
-177.93
-163.16
-142.38
-117.33
-89.85
-61.50
-33.44
-6.29
19.58
43.83
65.62
83.62
96.28
102.50
102.26
96.73
88.13
78.77
70.47
64.22
60.31
58.67
59.14
61.32
64.29
66.67
66.90
63.97
58.06
50.60
43.77
39.51
38.70
40.85
44.37
47.54
49.15
48.87
47.04
44.24
40.83
36.98
32.84
28.77
25.31
22.84
21.25
19.89
17.78
14.22
9.22
3.54
-1.59
-5.11
-6.56
-6.19
-4.83
-3.48
-2.90
-3.39
-4.72
-6.38
-7.87
-8.94
-9.71
-10.42
-11.29
-12.19
-12.84
-12.99
-12.79
-12.76
-13.37
-14.66
-15.86
-15.62
-12.51
-5.84
3.91
15.21
25.94
34.21
38.85
39.58
36.82
31.39
24.32
16.74
10.04
5.60
4.64
7.71
14.35
22.88
30.92
36.08
36.82
33.13
26.42
18.94
12.90
9.67
9.42
11.20
13.60
15.28
15.43
13.79
10.52
5.99
0.53
-5.70
-12.59
-20.02
-27.57
-34.59
-40.45
-44.76
-47.53
-49.11
-49.88
-49.93
-48.92
-46.18
-41.19
-34.09
-25.68
-17.32
-10.30
-5.46
-2.85
-2.02
-2.24
-2.94
-3.83
-4.91
-6.25
-7.81
-9.31
-10.26
-10.17
-8.70
-5.80
-1.71
3.20
8.45
13.51
17.87
21.05
22.65
22.50
20.71
17.74
14.25
10.86
8.07
6.07
4.75
3.74
2.56
0.81
-1.70
-4.87
-8.38
-11.70
-14.40
-16.17
-17.01
-17.30
-17.58
-18.44
-20.12
-22.34
-24.18
-24.39
-21.78
-15.76
-6.71
4.18
15.20
24.77
31.85
36.10
37.69
36.99
34.29
29.74
23.66
16.64
9.69
3.97
0.42
-0.62
0.50
2.90
5.53
7.59
8.67
8.77
8.27
7.67
7.46
7.91
8.96
10.03
10.30
9.02
5.88
1.24
-3.96
-8.70
-12.26
-14.51
-15.76
-16.49
-17.09
-17.75
-18.63
-19.79
-21.08
-21.94
-21.40
-18.39
-12.32
-3.57
6.51
16.08
23.59
28.33
30.52
30.75
29.49
26.60
21.62
14.11
4.29
-6.81
-17.47
-25.71
-29.70
-28.25
-20.99
-8.65
7.00
23.32
37.27
46.18
48.43
43.96
34.23
21.59
8.58
-2.79
-11.45
-17.05
-19.77
-20.05
-18.60
-16.44
-15.02
-15.87
-20.04
-27.59
-37.27
-46.89
-53.98
-56.67
-54.14
-46.68
-35.33
-21.44
-6.44
8.34
21.60
32.17
39.32
42.99
43.82
43.01
41.68
40.50
39.42
37.88
35.17
30.95
25.42
19.20
13.16
7.95
3.92
1.06
-0.86
-2.16
-3.10
-3.86
-4.56
-5.25
-6.01
-6.89
-7.93
-9.08
-10.29
-11.40
-12.27
-12.76
-12.82
-12.54
-12.18
-12.12
-12.66
-13.91
-15.68
-17.46
-18.75
-19.19
-18.93
-18.53
-18.78
-20.32
-23.36
-27.52
-31.88
-35.17
-36.10
-33.64
-27.34
-17.53
-5.47
6.97
17.58
24.58
27.01
25.04
19.75
12.69
5.39
-1.04
-6.08
-9.63
-11.86
-13.06
-13.55
-13.62
-13.52
-13.35
-12.95
-11.92
-9.77
-6.04
-0.55
6.45
14.24
21.61
26.97
28.72
25.62
17.31
4.59
-10.56
-25.55
-37.79
-45.48
-47.91
-45.34
-38.53
-28.32
-15.52
-1.00
13.99
27.73
38.27
43.92
43.85
38.32
28.62
16.67
4.55
-5.80
-12.78
-15.31
-12.92
-5.85
4.87
17.52
30.16
40.91
48.33
51.74
51.17
47.27
41.14
33.95
26.78
20.32
14.82
10.08
5.70
1.36
-2.88
-6.52
-8.81
-9.15
-7.30
-3.73
0.63
4.58
7.14
7.79
6.65
4.24
1.25
-1.76
-4.63
-7.42
-10.29
-13.23
-15.94
-17.82
-18.31
-17.03
-14.10
-10.14
-6.10
-2.96
-1.48
-1.93
-4.11
-7.48
-11.33
-15.08
-18.37
-21.13
-23.49
-25.71
-27.97
-30.36
-32.57
-33.98
-33.55
-30.14
-22.92
-11.85
2.01
16.67
29.73
39.17
43.93
44.13
40.91
35.79
30.19
25.09
20.86
17.40
14.42
11.68
9.26
7.42
6.51
6.64
7.52
8.38
8.37
6.88
3.94
0.13
-3.66
-6.78
-9.05
-10.82
-12.61
-14.58
-16.40
-17.26
-16.39
-13.56
-9.29
-4.77
-1.28
0.23
-0.41
-2.65
-5.58
-8.30
-10.30
-11.46
-11.93
-12.04
-12.23
-12.89
-14.45
-16.99
-20.10
-22.81
-23.64
-21.13
-14.41
-3.67
9.78
23.77
36.00
44.72
49.04
49.09
45.58
39.53
31.92
23.53
14.99
6.97
0.19
-4.61
-6.93
-6.71
-4.48
-1.08
2.59
5.98
8.97
11.81
14.61
17.14
18.62
18.11
15.13
10.05
4.24
-0.36
-2.02
0.03
5.35
12.38
19.22
24.39
27.39
28.76
29.59
31.00
33.67
37.77
43.12
49.46
56.64
64.56
73.10
81.98
90.86
99.47
107.64
114.89
119.98
120.78
114.79
100.27
77.36
48.68
18.62
-8.12
-28.26
-41.11
-48.65
-54.74
-63.57
-78.05
-98.46
-122.20
-144.27
-158.93
-161.64
-150.72
-127.97
-97.86
-65.81
-36.36
-12.25
5.61
17.37
23.49
24.46
20.92
14.09
5.85
-1.54
-6.08
-6.57
-3.14
2.72
8.68
12.27
11.81
7.07
-0.80
-9.81
-18.08
-24.55
-29.23
-32.71
-35.63
-38.09
-39.61
-39.44
-37.15
-32.92
-27.62
-22.43
-18.40
-16.11
-15.46
-15.92
-16.73
-17.27
-17.27
-16.76
-16.01
-15.28
-14.70
-14.18
-13.47
-12.38
-10.75
-8.59
-6.05
-3.33
-0.59
2.04
4.50
6.75
8.64
10.01
10.64
10.32
8.86
6.24
2.56
-1.93
-6.90
-11.98
-16.80
-21.10
-24.67
-27.40
-29.31
-30.48
-31.06
-31.26
-31.27
-31.23
-31.22
-31.29
-31.36
-31.30
-30.94
-30.09
-28.61
-26.40
-23.42
-19.72
-15.43
-10.73
-5.83
-0.96
3.69
7.98
11.81
15.18
18.14
20.74
23.05
25.08
26.80
28.18
29.07
29.35
28.88
27.50
25.17
21.92
17.86
13.25
8.41
3.66
-0.70
-4.38
-7.19
-9.02
-9.82
-9.65
-8.64
-6.96
-4.87
-2.65
-0.57
1.13
2.25
2.68
2.44
1.59
0.31
-1.20
-2.71
-3.99
-4.90
-5.30
-5.15
-4.44
-3.22
-1.57
0.35
2.37
4.33
6.07
7.55
8.84
10.13
11.69
13.72
16.35
19.46
22.81
25.97
28.49
29.93
29.88
28.06
24.24
18.33
10.32
0.48
-10.68
-22.33
-33.35
-42.57
-48.83
-51.34
-49.83
-44.71
-36.86
-27.56
-18.15
-9.67
-2.75
2.60
6.80
10.58
14.57
19.03
23.50
26.90
27.75
24.78
17.54
7.02
-4.41
-13.62
-17.80
-15.60
-7.73
3.34
14.11
21.42
23.32
19.45
10.95
-0.17
-11.46
-20.45
-24.98
-23.69
-16.40
-4.41
9.63
22.49
31.34
34.55
32.15
25.52
16.72
7.83
0.36
-4.87
-7.58
-7.81
-5.83
-2.07
2.80
7.97
12.58
15.93
17.60
17.60
16.20
13.88
11.10
8.21
5.45
2.95
0.88
-0.58
-1.22
-0.96
0.11
1.72
3.46
4.92
5.79
5.99
5.64
5.00
4.39
4.01
3.94
4.07
4.18
4.03
3.40
2.18
0.31
-2.13
-5.04
-8.27
-11.68
-15.08
-18.27
-21.06
-23.21
-24.61
-25.13
-24.79
-23.68
-21.94
-19.76
-17.33
-14.81
-12.28
-9.86
-7.58
-5.45
-3.48
-1.68
-0.04
1.45
2.79
3.98
5.03
5.94
6.75
7.49
8.23
9.01
9.85
10.73
11.62
12.50
13.37
14.26
15.23
16.35
17.65
19.11
20.64
22.11
23.37
24.15
24.25
23.41
21.47
18.35
14.07
8.84
2.96
-3.16
-9.12
-14.50
-19.01
-22.42
-24.62
-25.60
-25.39
-24.17
-22.14
-19.54
-16.62
-13.61
-10.73
-8.18
-6.10
-4.57
-3.68
-3.41
-3.73
-4.54
-5.67
-6.91
-8.05
-8.93
-9.42
-9.46
-9.09
-8.42
-7.57
-6.68
-5.83
-5.10
-4.49
-3.92
-3.29
-2.36
-0.95
1.14
4.00
7.61
11.83
16.41
21.06
25.43
29.17
31.86
33.12
32.68
30.40
26.45
21.20
15.17
8.87
2.77
-2.86
-7.88
-12.30
-16.14
-19.48
-22.39
-24.91
-27.04
-28.74
-29.96
-30.59
-30.55
-29.85
-28.54
-26.75
-24.67
-22.52
-20.49
-18.71
-17.18
-15.83
-14.52
-13.04
-11.22
-8.94
-6.12
-2.70
1.29
5.80
10.73
15.89
21.05
25.97
30.41
34.14
36.99
38.87
39.70
39.55
38.45
36.53
33.89
30.56
26.60
22.03
16.93
11.46
5.83
0.33
-4.75
-9.15
-12.66
-15.11
-16.44
-16.68
-15.93
-14.40
-12.39
-10.23
-8.22
-6.57
-5.42
-4.76
-4.54
-4.59
-4.75
-4.84
-4.75
-4.36
-3.68
-2.71
-1.51
-0.19
1.17
2.47
3.67
4.73
5.65
6.43
7.12
7.76
8.40
9.06
9.72
10.38
10.92
11.26
11.24
10.79
9.83
8.30
6.21
3.55
0.37
-3.23
-7.06
-10.92
-14.52
-17.60
-19.93
-21.31
-21.63
-20.87
-19.10
-16.41
-12.98
-9.01
-4.74
-0.40
3.78
7.64
11.05
13.92
16.21
17.91
19.04
19.67
19.90
19.85
19.60
19.25
18.83
18.32
17.63
16.67
15.38
13.67
11.61
9.26
6.84
4.60
2.78
1.60
1.20
1.62
2.71
4.26
5.88
7.16
7.69
7.20
5.56
2.88
-0.56
-4.36
-8.09
-11.34
-13.86
-15.46
-16.13
-15.92
-15.01
-13.61
-11.96
-10.27
-8.68
-7.32
-6.25
-5.50
-5.08
-4.96
-5.15
-5.61
-6.31
-7.16
-8.08
-8.90
-9.49
-9.70
-9.41
-8.56
-7.16
-5.29
-3.09
-0.74
1.53
3.50
4.98
5.84
5.98
5.41
4.19
2.51
0.56
-1.41
-3.18
-4.59
-5.56
-6.09
-6.27
-6.26
-6.26
-6.46
-7.01
-7.96
-9.27
-10.87
-12.57
-14.19
-15.56
-16.54
-17.07
-17.14
-16.76
-15.96
-14.76
-13.10
-10.95
-8.18
-4.75
-0.58
4.28
9.72
15.54
21.45
27.16
32.35
36.79
40.30
42.81
44.32
44.89
44.61
43.56
41.83
39.41
36.34
32.61
28.22
23.22
17.65
11.65
5.36
-1.01
-7.28
-13.25
-18.74
-23.61
-27.72
-31.01
-33.41
-34.92
-35.55
-35.40
-34.58
-33.23
-31.58
-29.79
-28.05
-26.50
-25.26
-24.38
-23.84
-23.61
-23.54
-23.54
-23.44
-23.10
-22.36
-21.15
-19.40
-17.10
-14.33
-11.18
-7.83
-4.47
-1.31
1.46
3.67
5.24
6.13
6.38
6.14
5.54
4.82
4.23
3.98
4.33
5.49
7.62
10.82
15.14
20.49
26.65
33.29
39.92
45.98
50.88
54.00
54.86
53.18
48.87
42.14
33.47
23.53
13.13
3.11
-5.75
-12.83
-17.73
-20.33
-20.75
-19.33
-16.54
-12.95
-9.12
-5.59
-2.78
-1.00
-0.48
-1.32
-3.54
-7.05
-11.73
-17.33
-23.57
-30.09
-36.44
-42.18
-46.87
-50.10
-51.54
-51.02
-48.52
-44.21
-38.43
-31.62
-24.36
-17.22
-10.76
-5.46
-1.63
0.52
0.97
-0.16
-2.63
-6.10
-10.19
-14.50
-18.64
-22.22
-24.94
-26.53
-26.77
-25.52
-22.72
-18.35
-12.52
-5.41
2.73
11.56
20.67
29.62
37.96
45.26
51.15
55.33
57.61
57.92
56.28
52.84
47.89
41.74
34.80
27.49
20.24
13.46
7.49
2.62
-0.98
-3.25
-4.22
-4.06
-2.96
-1.24
0.80
2.87
4.72
6.14
7.02
7.32
7.03
6.24
5.01
3.48
1.78
0.07
-1.50
-2.76
-3.58
-3.82
-3.42
-2.39
-0.79
1.21
3.42
5.53
7.25
8.28
8.34
7.31
5.13
1.94
-2.01
-6.30
-10.51
-14.18
-16.87
-18.27
-18.18
-16.49
-13.23
-8.53
-2.61
4.25
11.73
19.54
27.38
34.96
41.94
47.94
52.56
55.50
56.57
55.74
53.19
49.21
44.13
38.35
32.21
25.99
19.94
14.29
9.18
4.74
1.01
-1.93
-4.04
-5.30
-5.76
-5.62
-5.27
-5.24
-6.20
-8.84
-13.66
-20.86
-30.25
-41.28
-53.09
-64.69
-75.13
-83.60
-89.64
-93.01
-93.75
-92.02
-88.08
-82.22
-74.86
-66.38
-57.21
-47.80
-38.43
-29.35
-20.65
-12.39
-4.61
2.52
8.81
14.03
17.94
20.27
20.77
19.43
16.69
13.50
11.18
10.95
13.34
17.88
23.26
27.79
30.10
29.73
27.07
23.16
19.18
16.09
14.41
14.23
15.22
16.70
17.77
17.61
15.89
13.01
10.05
8.49
9.55
13.68
20.29
28.01
35.18
40.45
43.19
43.47
41.87
39.08
35.65
31.93
28.21
24.80
22.09
20.52
20.35
21.59
23.92
26.80
29.65
32.00
33.65
34.66
35.24
35.53
35.46
34.67
32.62
28.85
23.16
15.73
7.07
-2.15
-11.32
-19.98
-27.83
-34.74
-40.60
-45.41
-49.16
-51.93
-53.90
-55.32
-56.48
-57.51
-58.39
-58.86
-58.47
-56.71
-53.14
-47.57
-40.04
-30.99
-21.04
-10.97
-1.54
6.64
13.15
17.85
20.82
22.38
22.95
23.01
23.01
23.26
23.94
25.08
26.50
27.93
29.05
29.52
29.10
27.63
25.10
21.61
17.43
12.82
8.10
3.57
-0.50
-3.94
-6.63
-8.54
-9.70
-10.18
-10.10
-9.56
-8.71
-7.67
-6.53
-5.39
-4.30
-3.36
-2.62
-2.16
-2.01
-2.25
-2.92
-4.04
-5.57
-7.45
-9.57
-11.72
-13.66
-15.10
-15.76
-15.34
-13.62
-10.43
-5.66
0.64
8.36
17.27
27.04
37.21
47.24
56.48
64.20
69.66
72.14
70.99
65.76
56.28
42.70
25.55
5.68
-15.75
-37.38
-57.82
-75.72
-89.97
-99.76
-104.61
-104.49
-99.70
-90.83
-78.69
-64.22
-48.36
-32.04
-16.11
-1.29
11.84
22.82
31.38
37.33
40.66
41.49
40.04
36.61
31.60
25.47
18.73
11.82
5.24
-0.65
-5.53
-9.23
-11.70
-12.98
-13.21
-12.60
-11.44
-9.99
-8.52
-7.24
-6.35
-6.00
-6.29
-7.30
-9.06
-11.58
-14.83
-18.74
-23.15
-27.85
-32.52
-36.81
-40.33
-42.68
-43.49
-42.49
-39.50
-34.51
-27.60
-18.98
-8.94
2.15
13.93
26.01
38.01
49.60
60.39
69.98
77.97
83.87
87.21
87.53
84.48
77.87
67.76
54.46
38.61
21.10
3.03
-14.43
-30.19
-43.28
-53.09
-59.32
-62.08
-61.83
-59.29
-55.34
-50.86
-46.64
-43.29
-41.13
-40.22
-40.38
-41.20
-42.18
-42.79
-42.56
-41.12
-38.26
-33.94
-28.32
-21.68
-14.39
-6.89
0.40
7.08
12.87
17.54
21.02
23.33
24.58
24.91
24.54
23.69
22.56
21.34
20.17
19.16
18.39
17.92
17.76
17.96
18.51
19.39
20.55
21.93
23.40
24.82
26.06
26.90
27.23
26.91
25.88
24.16
21.85
19.09
16.11
13.13
10.40
8.11
6.38
5.22
4.60
4.39
4.41
4.43
4.26
3.75
2.84
1.52
-0.16
-2.04
-3.97
-5.78
-7.34
-8.53
-9.33
-9.74
-9.79
-9.57
-9.12
-8.48
-7.66
-6.61
-5.24
-3.48
-1.29
1.38
4.47
7.84
11.30
14.56
17.35
19.33
20.26
19.93
18.30
15.39
11.38
6.53
1.19
-4.26
-9.46
-14.10
-17.91
-20.73
-22.52
-23.27
-23.07
-22.08
-20.45
-18.37
-16.02
-13.58
-11.22
-9.05
-7.21
-5.76
-4.75
-4.19
-4.04
-4.24
-4.68
-5.27
-5.89
-6.46
-6.93
-7.29
-7.56
-7.77
-7.98
-8.23
-8.54
-8.84
-9.05
-9.02
-8.59
-7.55
-5.74
-3.07
0.46
4.75
9.55
14.53
19.29
23.43
26.57
28.44
28.88
27.92
25.73
22.62
18.96
15.20
11.73
8.87
6.81
5.62
5.27
5.57
6.32
7.26
8.15
8.83
9.13
8.98
8.40
7.43
6.13
4.61
2.97
1.32
-0.25
-1.63
-2.78
-3.61
-4.11
-4.27
-4.09
-3.61
-2.88
-1.99
-0.98
0.05
1.07
2.04
2.97
3.87
4.73
5.56
6.35
7.06
7.59
7.83
7.70
7.07
5.87
4.05
1.63
-1.29
-4.59
-8.08
-11.55
-14.77
-17.57
-19.78
-21.31
-22.09
-22.13
-21.53
-20.38
-18.85
-17.09
-15.29
-13.55
-12.01
-10.74
-9.77
-9.07
-8.58
-8.24
-7.96
-7.67
-7.29
-6.78
-6.12
-5.33
-4.40
-3.34
-2.18
-0.93
0.40
1.80
3.27
4.80
6.39
8.05
9.79
11.57
13.37
15.15
16.82
18.28
19.43
20.16
20.36
19.97
18.95
17.29
15.04
12.27
9.11
5.71
2.28
-0.99
-3.88
-6.25
-8.01
-9.17
-9.79
-9.99
-9.89
-9.56
-9.05
-8.35
-7.48
-6.50
-5.56
-4.84
-4.53
-4.70
-5.31
-6.14
-6.89
-7.27
-7.11
-6.45
-5.52
-4.68
-4.25
-4.43
-5.24
-6.61
-8.30
-10.06
-11.62
-12.59
-12.60
-11.32
-8.68
-4.81
-0.03
5.51
11.90
19.43
28.31
38.29
48.48
57.54
64.13
67.43
67.31
64.23
58.91
51.87
43.42
33.76
23.26
12.47
2.22
-6.73
-13.85
-18.86
-21.73
-22.62
-21.73
-19.23
-15.40
-10.66
-5.62
-1.13
1.95
2.90
1.39
-2.32
-7.47
-13.04
-18.00
-21.63
-23.72
-24.46
-24.29
-23.66
-22.75
-21.48
-19.61
-17.06
-14.11
-11.34
-9.29
-8.20
-7.63
-6.39
-2.89
4.22
15.36
29.58
44.66
57.70
65.99
67.77
62.66
51.37
35.18
15.67
-5.56
-26.63
-45.37
-59.95
-69.61
-75.01
-77.49
-77.63
-74.05
-63.64
-43.52
-13.47
22.39
56.48
80.57
89.42
82.80
65.10
42.89
21.80
5.04
-6.67
-13.82
-16.77
-15.38
-9.84
-1.32
7.69
13.92
14.45
7.57
-6.50
-25.67
-46.83
-66.66
-82.68
-93.57
-99.21
-100.14
-97.16
-90.82
-81.34
-68.97
-54.09
-37.53
-20.41
-4.11
10.24
21.98
31.11
38.16
43.83
48.76
53.32
57.61
61.32
64.12
65.76
66.16
65.44
63.84
61.67
59.26
56.80
54.40
52.04
49.65
47.07
44.11
40.55
36.26
31.21
25.43
19.18
12.82
6.79
1.46
-2.86
-6.01
-8.00
-9.00
-9.33
-9.31
-9.29
-9.41
-9.76
-10.25
-10.69
-10.80
-10.27
-8.90
-6.58
-3.42
0.25
3.92
6.99
8.80
8.72
6.31
1.30
-6.30
-16.19
-27.81
-40.40
-53.07
-64.82
-74.77
-82.11
-86.29
-86.94
-84.01
-77.72
-68.51
-57.05
-44.10
-30.51
-17.09
-4.63
6.24
14.96
21.13
24.57
25.18
23.01
18.31
11.47
2.97
-6.54
-16.37
-25.76
-33.96
-40.33
-44.36
-45.72
-44.25
-40.03
-33.37
-24.66
-14.41
-3.15
8.60
20.33
31.62
42.13
51.52
59.52
65.82
70.12
72.18
71.77
68.77
63.20
55.23
45.27
33.92
21.91
10.09
-0.72
-9.77
-16.50
-20.57
-21.96
-20.89
-17.84
-13.42
-8.33
-3.21
1.44
5.27
8.16
10.16
11.51
12.53
13.61
15.05
17.15
20.04
23.73
28.10
32.85
37.57
41.81
45.05
46.82
46.66
44.27
39.49
32.37
23.17
12.34
0.47
-11.74
-23.59
-34.41
-43.70
-51.11
-56.51
-59.97
-61.75
-62.24
-61.90
-61.17
-60.43
-59.95
-59.84
-60.04
-60.35
-60.48
-60.05
-58.68
-56.04
-51.87
-46.08
-38.64
-29.70
-19.49
-8.29
3.57
15.74
27.87
39.62
50.61
60.51
68.90
75.40
79.61
81.18
79.87
75.60
68.42
58.66
46.80
33.52
19.62
5.96
-6.67
-17.56
-26.15
-32.11
-35.27
-35.75
-33.76
-29.64
-23.84
-16.85
-9.17
-1.29
6.32
13.23
19.03
23.42
26.16
27.10
26.22
23.64
19.56
14.30
8.27
1.87
-4.50
-10.48
-15.82
-20.34
-23.97
-26.74
-28.75
-30.12
-31.00
-31.55
-31.86
-32.04
-32.10
-32.01
-31.73
-31.17
-30.23
-28.81
-26.81
-24.18
-20.93
-17.08
-12.74
-8.05
-3.19
1.65
6.26
10.51
14.29
17.53
20.17
22.23
23.72
24.62
24.93
24.59
23.55
21.74
19.14
15.72
11.53
6.67
1.33
-4.31
-10.00
-15.53
-20.69
-25.36
-29.44
-32.96
-36.01
-38.73
-41.35
-44.15
-47.42
-51.46
-56.52
-62.73
-70.14
-78.57
-87.61
-96.61
-104.69
-110.78
-113.72
-112.43
-105.98
-93.85
-75.95
-52.80
-25.45
4.62
35.63
65.68
93.01
116.19
134.25
146.86
154.26
157.15
156.63
153.89
150.01
145.91
142.11
138.80
135.84
132.85
129.30
124.65
118.48
110.50
100.72
89.38
76.94
64.04
51.46
39.98
30.25
22.79
17.87
15.48
15.37
17.05
19.81
22.87
25.43
26.75
26.24
23.50
18.23
10.36
0.01
-12.61
-27.15
-43.14
-59.92
-76.74
-92.67
-106.70
-117.73
-124.76
-126.95
-123.77
-115.10
-101.29
-83.14
-61.90
-39.10
-16.37
4.68
22.71
36.75
46.22
50.97
51.29
47.75
41.06
31.99
21.25
9.40
-3.06
-15.76
-28.41
-40.69
-52.20
-62.50
-71.07
-77.34
-80.82
-81.13
-78.07
-71.68
-62.23
-50.22
-36.35
-21.39
-6.13
8.69
22.42
34.55
44.68
52.54
57.97
60.84
61.16
58.97
54.43
47.82
39.53
30.10
20.13
10.35
1.44
-5.94
-11.30
-14.37
-15.14
-13.85
-11.01
-7.31
-3.50
-0.37
1.45
1.56
-0.21
-3.68
-8.44
-13.90
-19.37
-24.20
-27.88
-30.17
-31.03
-30.72
-29.64
-28.31
-27.20
-26.64
-26.76
-27.44
-28.40
-29.13
-29.13
-27.90
-25.12
-20.68
-14.67
-7.42
0.55
8.61
16.12
22.50
27.27
30.14
30.96
29.81
26.89
22.58
17.34
11.70
6.20
1.37
-2.37
-4.72
-5.58
-4.99
-3.16
-0.50
2.47
5.20
7.15
7.84
6.91
4.10
-0.66
-7.24
-15.38
-24.81
-35.05
-45.63
-56.02
-65.67
-74.08
-80.79
-85.39
-87.55
-87.07
-83.82
-77.79
-69.02
-57.63
-43.85
-28.02
-10.56
7.96
26.85
45.22
62.07
76.40
87.29
93.88
95.67
92.48
84.59
72.72
57.94
41.54
24.89
9.37
-3.91
-14.12
-20.84
-24.00
-23.88
-20.99
-15.99
-9.61
-2.51
4.75
11.75
18.16
23.83
28.60
32.45
35.35
37.27
38.17
38.02
36.80
34.51
31.19
26.96
21.99
16.55
10.97
5.60
0.79
-3.14
-5.94
-7.43
-7.60
-6.56
-4.53
-1.88
0.96
3.45
5.01
5.02
2.96
-1.66
-9.22
-19.91
-33.66
-50.09
-68.60
-88.26
-107.89
-126.20
-141.89
-153.72
-160.77
-162.41
-158.45
-149.12
-135.06
-117.19
-96.64
-74.60
-52.21
-30.43
-10.01
8.54
25.01
39.34
51.64
62.14
71.08
78.74
85.35
91.09
96.11
100.51
104.40
107.84
110.89
113.59
115.98
117.99
119.52
120.40
120.38
119.16
116.37
111.73
105.02
96.21
85.43
73.02
59.56
45.81
32.59
20.74
10.95
3.73
-0.66
-2.27
-1.47
1.19
4.92
8.90
12.31
14.46
14.78
13.00
9.06
3.08
-4.57
-13.39
-22.82
-32.22
-41.01
-48.74
-55.00
-59.59
-62.40
-63.46
-62.89
-60.84
-57.47
-52.87
-47.13
-40.28
-32.36
-23.40
-13.47
-2.77
8.39
19.59
30.32
40.00
48.03
53.87
57.07
57.32
54.45
48.49
39.60
28.08
14.34
-1.10
-17.70
-34.84
-51.89
-68.24
-83.23
-96.29
-106.86
-114.51
-118.83
-119.59
-116.68
-110.14
-100.17
-87.11
-71.43
-53.77
-34.79
-15.26
4.04
22.35
38.93
53.16
64.52
72.67
77.41
78.79
77.03
72.53
65.86
57.70
48.75
39.70
31.14
23.50
17.05
11.85
7.75
4.52
1.84
-0.65
-3.17
-5.87
-8.70
-11.49
-13.94
-15.71
-16.44
-15.87
-13.85
-10.41
-5.74
-0.17
5.85
11.86
17.37
22.03
25.55
27.81
28.79
28.59
27.41
25.47
23.02
20.27
17.45
14.71
12.18
9.94
8.05
6.53
5.38
4.55
3.96
3.53
3.11
2.56
1.74
0.50
-1.20
-3.42
-6.08
-9.05
-12.12
-15.03
-17.52
-19.30
-20.16
-19.92
-18.52
-15.98
-12.43
-8.13
-3.40
1.37
5.75
9.31
11.70
12.61
11.90
9.57
5.77
0.78
-4.99
-11.04
-16.88
-22.06
-26.20
-28.99
-30.28
-30.01
-28.22
-25.02
-20.57
-15.10
-8.88
-2.22
4.55
11.08
17.00
21.99
25.80
28.32
29.51
29.51
28.55
26.95
25.09
23.33
21.95
21.16
21.07
21.63
22.74
24.16
25.63
26.84
27.50
27.37
26.22
23.92
20.44
15.84
10.30
4.07
-2.48
-8.99
-15.11
-20.56
-25.18
-28.93
-31.90
-34.30
-36.46
-38.67
-41.22
-44.32
-48.08
-52.48
-57.40
-62.64
-67.90
-72.92
-77.40
-81.12
-83.89
-85.62
-86.31
-86.05
-85.01
-83.42
-81.54
-79.61
-77.84
-76.27
-74.88
-73.48
-71.74
-69.26
-65.57
-60.28
-53.10
-43.93
-32.93
-20.44
-7.05
6.51
19.46
31.04
40.59
47.65
51.98
53.58
52.69
49.75
45.39
40.30
35.22
30.82
27.71
26.32
26.91
29.52
33.98
40.01
47.24
55.16
63.20
70.80
77.42
82.65
86.25
88.11
88.31
87.11
84.80
81.68
77.98
73.90
69.64
65.34
61.21
57.62
55.01
53.80
54.27
56.55
60.59
66.34
73.47
81.80
91.42
102.49
114.91
128.04
140.77
151.71
159.61
162.91
160.92
153.92
142.84
128.68
111.83
91.97
68.30
40.23
6.70
-32.06
-74.33
-117.51
-159.00
-197.14
-231.25
-261.40
-287.66
-311.48
-333.77
-354.09
-370.68
-380.63
-381.06
-369.95
-347.06
-305.70
-246.72
-178.19
-112.23
-59.39
-23.76
-3.98
3.73
3.01
-3.32
-14.19
-27.81
-40.82
-50.74
-54.67
-51.87
-43.80
-33.11
-21.85
-11.94
-3.54
5.37
16.51
32.17
53.20
79.55
109.47
142.55
179.10
216.63
252.84
284.01
308.42
325.33
334.50
334.92
324.27
299.12
257.17
207.18
153.31
102.15
60.15
30.95
13.89
4.96
-0.99
-7.46
-14.45
-22.80
-30.08
-34.54
-36.50
-38.00
-40.89
-45.50
-50.20
-52.03
-49.53
-41.96
-30.98
-19.94
-12.32
-10.02
-12.55
-17.50
-21.70
-23.25
-21.18
-16.37
-11.11
-7.94
-8.56
-13.14
-20.45
-28.49
-35.70
-41.06
-44.77
-47.94
-51.81
-57.03
-63.16
-68.69
-71.53
-69.94
-62.92
-50.93
-35.82
-20.32
-7.14
1.95
6.85
9.07
11.17
15.69
24.09
36.00
49.34
61.07
68.18
68.82
62.75
51.25
36.45
20.61
5.52
-7.73
-18.95
-29.04
-39.74
-53.00
-69.91
-89.46
-108.18
-120.91
-122.64
-110.86
-86.98
-55.73
-23.20
5.92
29.93
49.81
67.33
82.97
94.95
100.08
95.92
82.51
62.74
41.23
22.33
8.29
-1.12
-7.90
-14.40
-22.18
-31.70
-42.37
-52.85
-61.29
-65.67
-64.27
-56.29
-42.19
-23.74
-3.37
16.53
34.34
49.40
61.79
71.70
79.07
83.46
84.23
81.02
74.08
64.32
53.03
41.34
29.93
18.72
7.21
-5.11
-18.26
-31.53
-43.76
-53.71
-60.58
-64.27
-65.35
-64.96
-64.38
-64.60
-65.93
-67.86
-69.31
-69.06
-66.23
-60.50
-52.18
-41.83
-29.94
-16.71
-2.12
13.92
31.19
49.07
66.45
81.90
94.04
101.85
104.99
103.79
99.05
91.66
82.21
70.83
57.41
41.82
24.33
5.61
-13.35
-31.45
-47.66
-61.22
-71.61
-78.48
-81.61
-80.91
-76.47
-68.58
-57.86
-45.19
-31.62
-18.21
-5.79
5.12
14.33
21.91
28.04
32.90
36.57
39.01
40.09
39.65
37.51
33.56
27.82
20.42
11.67
2.04
-7.91
-17.54
-26.19
-33.22
-38.11
-40.51
-40.35
-37.77
-33.05
-26.42
-18.06
-8.15
2.97
14.66
25.98
35.86
43.42
48.17
50.13
49.74
47.54
44.05
39.65
34.64
29.31
24.04
19.24
15.23
12.21
10.07
8.53
7.08
5.22
2.50
-1.42
-6.73
-13.45
-21.50
-30.63
-40.42
-50.30
-59.57
-67.45
-73.24
-76.46
-76.88
-74.61
-70.04
-63.70
-56.16
-47.94
-39.41
-30.81
-22.28
-13.92
-5.74
2.23
9.97
17.44
24.55
31.19
37.29
42.78
47.73
52.17
56.08
59.30
61.49
62.26
61.27
58.40
53.78
47.79
40.90
33.60
26.34
19.47
13.28
8.03
3.95
1.13
-0.38
-0.69
-0.02
1.34
3.06
4.73
5.90
6.07
4.69
1.31
-4.44
-12.66
-23.13
-35.25
-48.06
-60.34
-70.86
-78.51
-82.50
-82.48
-78.59
-71.41
-61.86
-51.07
-40.21
-30.40
-22.54
-17.21
-14.64
-14.63
-16.64
-19.85
-23.31
-26.09
-27.46
-26.98
-24.57
-20.43
-14.99
-8.77
-2.25
4.25
10.59
16.73
22.67
28.29
33.34
37.42
40.16
41.37
41.11
39.76
37.95
36.32
35.31
34.97
35.00
34.88
34.16
32.68
30.62
28.48
26.78
25.87
25.85
26.54
27.64
28.74
29.30
28.80
26.79
23.15
18.19
12.63
7.16
1.96
-3.49
-10.18
-18.95
-29.86
-41.87
-53.24
-62.17
-67.49
-68.85
-66.41
-60.38
-50.77
-37.64
-21.60
-4.12
12.58
26.20
35.11
38.89
38.32
34.96
30.47
26.15
22.69
20.13
18.07
15.99
13.48
10.38
6.93
3.64
1.19
0.05
0.38
1.87
3.87
5.71
6.89
7.33
7.29
7.19
7.31
7.65
7.96
7.82
6.89
5.02
2.27
-1.22
-5.15
-9.16
-12.83
-15.78
-17.82
-19.08
-19.96
-20.83
-21.81
-22.47
-22.00
-19.47
-14.34
-6.72
2.51
11.94
20.08
25.71
28.25
27.74
24.80
20.47
15.91
12.22
10.06
9.55
10.15
10.98
11.08
9.92
7.65
4.95
2.72
1.50
1.21
1.13
0.24
-2.21
-6.35
-11.51
-16.71
-20.93
-23.61
-24.74
-24.72
-24.00
-22.92
-21.68
-20.35
-19.07
-17.83
-16.46
-14.52
-11.44
-6.87
-1.11
4.78
9.20
10.49
7.80
1.54
-6.47
-13.43
-16.22
-12.27
-0.26
19.46
44.70
71.60
95.33
111.08
115.31
106.78
87.24
60.98
33.58
10.28
-5.67
-13.80
-16.19
-16.43
-18.05
-23.35
-32.80
-45.16
-58.22
-69.58
-77.40
-80.92
-80.40
-76.88
-71.78
-66.47
-61.81
-58.04
-54.66
-50.52
-44.10
-34.11
-19.91
-2.04
17.79
37.25
54.14
67.03
75.81
81.38
84.96
87.39
88.67
88.04
84.60
77.86
68.07
56.23
43.49
30.64
17.73
4.16
-10.81
-27.43
-44.98
-61.80
-75.77
-85.08
-88.75
-86.91
-80.73
-72.05
-63.03
-55.58
-50.90
-49.05
-48.75
-47.74
-43.62
-34.99
-22.22
-7.49
6.12
16.06
21.37
23.06
23.42
24.87
28.82
35.13
42.17
47.56
48.96
44.82
34.81
20.01
2.88
-13.17
-24.50
-28.20
-23.10
-10.31
6.87
23.98
36.72
42.31
40.28
32.29
21.41
10.89
3.22
-0.52
-0.59
1.80
5.01
7.64
8.63
7.65
4.92
1.29
-2.10
-3.97
-3.39
-0.27
4.55
9.41
12.43
12.21
8.35
1.56
-6.65
-14.52
-20.63
-24.08
-24.65
-22.62
-18.72
-13.96
-9.61
-6.92
-6.80
-9.50
-14.38
-20.07
-24.79
-26.85
-25.20
-19.75
-11.34
-1.39
8.49
17.09
23.75
28.29
30.85
31.67
30.99
28.95
25.66
21.25
15.92
10.14
4.61
0.17
-2.52
-3.32
-2.81
-2.11
-2.37
-4.18
-7.09
-9.78
-10.70
-8.95
-4.84
0.14
3.98
5.04
2.80
-2.03
-7.87
-12.97
-16.13
-16.96
-15.85
-13.72
-11.67
-10.78
-11.88
-15.40
-21.28
-28.85
-37.01
-44.32
-49.21
-50.19
-46.01
-35.92
-19.84
1.30
25.61
50.38
72.63
89.75
99.96
102.53
97.80
87.00
72.08
55.48
39.72
26.90
18.17
13.38
11.16
9.32
5.70
-1.19
-11.68
-24.95
-39.45
-53.34
-65.05
-73.46
-78.01
-78.56
-75.41
-69.16
-60.70
-51.14
-41.56
-32.92
-25.74
-20.23
-16.30
-13.64
-11.78
-10.16
-8.05
-4.72
0.33
7.10
15.00
22.88
29.31
33.05
33.46
30.60
25.33
18.91
12.83
8.28
5.93
5.78
7.13
8.94
10.16
10.15
8.79
6.56
4.18
2.27
1.19
0.75
0.59
0.29
-0.30
-1.07
-1.65
-1.73
-1.13
0.11
1.85
3.90
6.07
8.21
10.08
11.46
12.09
11.82
10.70
8.91
6.65
3.98
0.88
-2.74
-6.79
-10.96
-14.75
-17.54
-18.96
-18.88
-17.51
-15.26
-12.59
-9.91
-7.59
-5.93
-5.17
-5.25
-5.61
-5.20
-2.79
2.49
10.68
20.71
30.75
38.83
43.59
44.71
42.75
38.83
33.99
28.99
24.10
19.45
15.05
10.96
7.26
3.99
1.22
-0.95
-2.34
-2.87
-2.67
-2.19
-2.07
-2.87
-4.90
-7.91
-11.31
-14.30
-16.21
-16.67
-15.68
-13.53
-10.64
-7.61
-5.09
-3.81
-4.26
-6.51
-9.98
-13.51
-15.87
-16.21
-14.69
-12.41
-10.99
-11.78
-15.02
-19.47
-22.84
-22.75
-17.78
-8.22
3.98
15.96
25.17
30.22
31.25
29.46
26.33
22.89
19.40
15.64
11.47
7.13
3.29
0.64
-0.54
-0.74
-0.97
-2.40
-5.69
-10.52
-15.55
-18.88
-18.86
-14.81
-7.46
1.30
9.09
13.99
15.12
12.89
8.50
3.45
-1.18
-4.93
-7.88
-10.28
-12.21
-13.52
-13.99
-13.48
-12.31
-11.16
-10.91
-12.18
-14.91
-18.43
-21.69
-23.81
-24.38
-23.50
-21.42
-18.12
-13.11
-5.76
4.27
16.53
29.59
41.37
49.64
52.66
49.74
41.43
29.42
16.01
3.58
-6.13
-12.38
-15.49
-16.44
-16.41
-16.26
-16.29
-16.24
-15.54
-13.78
-10.90
-7.21
-3.39
-0.08
2.31
3.74
4.50
4.98
5.32
5.43
5.01
3.81
1.73
-1.09
-4.34
-7.71
-10.87
-13.50
-15.29
-16.00
-15.71
-14.80
-13.88
-13.58
-14.27
-15.72
-17.15
-17.36
-15.16
-9.74
-0.98
10.51
23.50
36.46
47.93
56.73
62.17
64.01
62.42
57.89
51.11
42.87
33.96
25.03
16.53
8.72
1.71
-4.45
-9.68
-13.91
-17.09
-19.28
-20.71
-21.70
-22.67
-24.00
-25.89
-28.35
-31.10
-33.60
-35.20
-35.33
-33.69
-30.50
-26.44
-22.43
-19.29
-17.45
-16.81
-16.84
-16.86
-16.27
-14.75
-12.24
-8.93
-5.22
-1.53
1.90
5.25
9.15
14.41
21.53
30.27
39.55
47.61
52.78
53.98
51.14
45.06
36.87
27.55
17.63
7.34
-3.14
-13.33
-22.37
-29.21
-32.94
-33.21
-30.33
-25.25
-19.16
-13.17
-7.91
-3.52
0.20
3.53
6.70
9.69
12.35
14.42
15.66
15.97
15.41
14.13
12.34
10.22
7.89
5.32
2.42
-0.93
-4.75
-8.91
-13.18
-17.22
-20.76
-23.71
-26.09
-28.08
-29.87
-31.65
-33.48
-35.29
-36.73
-37.08
-35.36
-30.55
-22.08
-10.21
3.79
17.76
29.40
36.91
39.61
38.08
33.79
28.50
23.56
19.55
16.29
13.09
9.26
4.52
-0.83
-5.97
-9.88
-11.65
-10.87
-7.70
-3.02
1.70
4.85
5.00
1.58
-4.87
-12.54
-18.90
-21.34
-18.08
-8.87
4.85
20.30
34.09
43.36
46.49
43.61
36.52
28.00
20.78
16.55
15.28
15.40
14.60
10.82
3.06
-8.30
-21.75
-35.24
-46.63
-54.21
-56.77
-53.84
-45.76
-33.80
-20.01
-6.86
3.40
9.48
11.32
10.07
7.47
5.15
4.03
4.12
4.77
5.21
5.15
4.96
5.52
7.76
12.12
18.34
25.47
32.26
37.48
40.29
40.23
37.27
31.79
24.49
16.35
8.37
1.37
-4.28
-8.70
-12.52
-16.43
-21.00
-26.36
-32.07
-37.22
-40.81
-42.10
-40.99
-38.05
-34.43
-31.38
-29.81
-29.84
-30.74
-31.08
-29.17
-23.64
-14.00
-0.86
14.22
28.97
41.17
49.23
52.59
51.80
48.18
43.32
38.57
34.74
32.11
30.51
29.51
28.53
26.95
24.17
19.71
13.44
5.77
-2.46
-10.06
-15.87
-19.16
-19.80
-18.34
-15.78
-13.23
-11.57
-11.29
-12.34
-14.34
-16.80
-19.22
-21.17
-22.35
-22.55
-21.68
-19.82
-17.16
-13.92
-10.36
-6.85
-3.84
-1.99
-1.86
-3.71
-7.08
-10.85
-13.41
-13.37
-10.07
-3.88
3.95
11.74
17.99
21.72
22.66
21.20
18.01
13.81
9.11
4.03
-1.45
-7.29
-13.05
-17.88
-20.76
-20.93
-18.35
-13.75
-8.36
-3.33
0.74
3.89
6.60
9.32
12.05
14.26
15.11
13.91
10.56
5.60
0.13
-4.74
-8.20
-10.09
-10.83
-11.13
-11.67
-12.79
-14.44
-16.12
-17.17
-16.84
-14.55
-10.03
-3.39
4.80
13.55
21.69
28.14
32.23
33.78
33.09
30.61
26.79
21.88
16.09
9.68
3.17
-2.77
-7.42
-10.25
-11.09
-10.04
-7.52
-4.08
-0.32
3.18
5.96
7.79
8.65
8.61
7.80
6.29
4.04
1.04
-2.68
-6.90
-11.27
-15.43
-19.09
-22.19
-24.85
-27.32
-29.84
-32.56
-35.53
-38.67
-41.73
-44.20
-45.36
-44.30
-40.19
-32.59
-21.73
-8.63
5.17
18.00
28.57
36.28
41.28
44.15
45.68
46.53
47.05
47.28
46.99
45.75
43.08
38.62
32.31
24.52
15.95
7.50
-0.04
-6.11
-10.44
-13.07
-14.23
-14.17
-13.19
-11.34
-8.56
-4.65
0.48
6.43
12.23
16.58
18.25
16.70
12.33
6.31
0.00
-5.57
-10.11
-13.94
-17.50
-21.06
-24.51
-27.54
-29.79
-31.01
-30.95
-29.24
-25.41
-19.02
-10.15
0.52
11.62
21.44
28.55
32.21
32.53
30.35
26.79
22.69
18.40
13.71
8.22
1.83
-4.91
-10.75
-14.26
-14.45
-11.49
-6.72
-2.17
0.38
0.16
-2.34
-5.69
-8.37
-9.34
-8.41
-6.09
-3.23
-0.68
0.88
0.89
-0.94
-4.64
-9.75
-15.31
-19.97
-22.47
-22.14
-19.21
-14.82
-10.60
-7.98
-7.54
-8.76
-10.12
-9.68
-5.88
1.85
12.75
24.98
36.03
43.54
45.96
42.92
35.35
25.11
14.45
5.35
-0.97
-4.26
-5.22
-5.07
-5.05
-5.96
-7.92
-10.34
-12.39
-13.29
-12.65
-10.59
-7.67
-4.60
-2.05
-0.38
0.55
1.25
2.58
5.31
9.68
15.09
20.04
22.65
21.30
15.40
5.67
-6.09
-17.62
-26.92
-32.76
-34.87
-33.79
-30.53
-26.28
-22.13
-18.75
-16.29
-14.29
-11.87
-8.05
-2.17
5.74
14.91
23.96
31.37
35.88
36.96
34.98
31.03
26.45
22.36
19.21
16.73
14.24
11.06
6.98
2.24
-2.54
-6.76
-9.97
-12.04
-12.99
-12.99
-12.32
-11.36
-10.62
-10.63
-11.79
-14.25
-17.72
-21.72
-25.65
-28.98
-31.43
-32.98
-33.93
-34.63
-35.28
-35.74
-35.64
-34.56
-32.30
-29.07
-25.46
-22.31
-20.24
-19.51
-19.72
-19.97
-19.06
-15.75
-9.15
1.11
14.44
29.46
44.24
56.84
65.81
70.57
71.75
71.11
71.46
75.54
85.12
99.84
116.86
131.37
138.22
133.80
117.26
90.77
57.92
22.33
-13.61
-48.86
-83.16
-116.42
-148.27
-178.27
-203.58
-220.90
-227.14
-220.78
-202.93
-177.33
-149.27
-123.55
-103.49
-90.19
-83.08
-80.46
-80.76
-82.39
-83.92
-83.79
-79.82
-69.93
-52.64
-28.17
1.33
31.99
59.25
79.35
88.63
86.76
76.31
61.74
47.65
37.18
31.37
29.44
29.80
31.10
32.89
35.05
37.16
37.98
35.48
27.37
12.17
-9.65
-35.13
-59.27
-77.01
-84.99
-82.57
-71.50
-54.43
-33.27
-8.63
20.02
52.40
86.05
116.72
140.24
154.81
162.12
166.57
172.98
185.07
203.36
225.34
246.87
264.15
275.01
279.21
277.73
272.01
264.53
257.43
252.11
248.67
245.76
240.73
230.37
211.88
177.24
124.27
57.29
-13.74
-77.54
-126.22
-157.61
-173.97
-179.28
-177.10
-169.02
-155.93
-138.92
-119.78
-100.64
-83.28
-68.70
-57.14
-48.18
-41.13
-35.63
-32.00
-31.19
-34.40
-42.37
-54.80
-70.51
-87.91
-105.91
-124.07
-142.58
-161.58
-180.10
-195.49
-203.83
-201.73
-183.91
-150.61
-106.75
-60.24
-19.50
8.78
20.98
16.55
-2.41
-31.66
-65.58
-96.75
-117.19
-120.47
-104.06
-70.65
-27.62
15.31
49.52
69.70
75.65
71.28
62.34
53.77
47.94
44.50
41.20
35.73
26.74
14.77
2.26
-7.31
-10.57
-5.27
8.89
30.06
54.77
78.77
98.31
111.25
117.49
118.47
116.31
112.48
106.77
97.06
79.66
50.50
6.94
-50.66
-118.04
-187.23
-248.19
-290.93
-307.91
-295.94
-257.60
-200.69
-136.66
-77.53
-32.63
-6.40
2.37
-0.51
-5.67
-4.84
6.15
25.65
48.14
68.42
84.12
95.00
101.78
103.67
98.04
82.57
57.01
24.24
-10.15
-40.10
-60.44
-68.94
-66.45
-55.81
-40.09
-21.32
-0.14
23.65
49.92
77.65
104.83
128.74
146.51
155.51
153.72
140.16
115.75
83.67
49.05
17.92
-4.37
-14.29
-10.71
4.66
27.46
51.04
67.34
68.34
48.60
7.73
-48.32
-108.14
-158.40
-188.27
-192.90
-174.23
-139.37
-97.24
-55.52
-19.29
8.78
27.22
35.12
31.79
17.49
-5.98
-34.97
-64.61
-90.05
-107.77
-116.53
-117.33
-112.83
-106.03
-99.18
-93.01
-86.79
-79.01
-68.12
-53.16
-33.95
-11.04
14.26
39.50
61.01
74.59
76.90
67.70
51.08
34.72
27.27
34.48
56.29
86.43
114.94
132.34
133.48
119.09
94.61
67.31
42.95
23.83
8.82
-5.14
-20.95
-39.58
-59.90
-79.18
-94.22
-102.14
-100.91
-89.46
-68.56
-41.77
-15.60
1.86
4.30
-9.30
-32.77
-54.59
-62.66
-49.97
-17.88
24.75
65.82
94.86
106.22
99.22
76.61
42.80
3.14
-36.30
-69.28
-90.88
-99.07
-95.05
-82.00
-62.68
-38.06
-7.67
28.40
67.51
104.09
131.40
144.67
143.26
130.75
112.88
94.87
79.38
66.58
55.35
44.92
35.67
28.90
25.86
26.85
30.80
35.61
39.03
39.60
37.14
32.79
28.33
25.35
24.48
25.16
25.91
25.17
22.06
16.79
10.61
5.03
1.11
-1.13
-2.69
-5.07
-9.42
-16.04
-24.13
-32.14
-38.31
-41.25
-40.19
-35.11
-26.58
-15.61
-3.48
8.37
18.60
26.20
30.70
32.32
31.79
30.07
27.86
25.51
22.85
19.57
15.45
10.60
5.47
0.63
-3.46
-6.62
-8.94
-10.68
-11.99
-12.93
-13.39
-13.32
-12.78
-12.10
-11.75
-12.17
-13.56
-15.71
-17.99
-19.60
-19.84
-18.44
-15.67
-12.20
-8.92
-6.60
-5.67
-6.05
-7.28
-8.60
-9.17
-8.29
-5.60
-1.18
4.38
10.20
15.28
18.86
20.52
20.29
18.50
15.64
12.21
8.65
5.32
2.43
0.18
-1.34
-2.16
-2.42
-2.42
-2.46
-2.69
-3.02
-3.20
-2.90
-2.03
-0.81
0.25
0.64
0.01
-1.57
-3.73
-5.99
-7.95
-9.42
-10.41
-11.08
-11.66
-12.35
-13.27
-14.35
-15.33
-15.86
-15.67
-14.69
-13.13
-11.48
-10.34
-10.17
-11.08
-12.72
-14.34
-14.95
-13.71
-10.15
-4.43
2.66
9.93
16.10
20.17
21.72
20.96
18.58
15.50
12.51
10.01
8.01
6.24
4.39
2.39
0.42
-1.19
-2.14
-2.31
-1.84
-0.96
0.05
1.01
1.85
2.60
3.24
3.78
4.11
4.06
3.57
2.62
1.39
0.16
-0.82
-1.44
-1.78
-2.10
-2.63
-3.45
-4.45
-5.40
-6.00
-6.12
-5.75
-5.00
-4.11
-3.31
-2.81
-2.74
-3.00
-3.24
-2.93
-1.47
1.47
5.78
11.04
16.65
22.13
27.25
31.76
35.08
36.18
33.85
27.55
18.08
7.74
-0.49
-4.18
-2.73
2.44
8.67
13.21
14.10
10.28
1.23
-13.15
-31.93
-52.36
-69.50
-77.54
-72.14
-52.84
-23.86
7.35
33.06
48.08
50.83
42.76
26.73
5.76
-17.05
-38.08
-53.11
-58.31
-51.86
-35.17
-12.85
8.93
24.63
31.23
28.69
19.31
6.54
-6.23
-16.27
-21.78
-22.02
-17.35
-9.13
0.53
9.38
15.65
18.47
17.96
14.92
10.43
5.52
0.95
-2.84
-5.67
-7.52
-8.51
-8.81
-8.62
-8.11
-7.38
-6.44
-5.29
-3.92
-2.40
-0.89
0.46
1.43
1.91
1.91
1.51
0.87
0.08
-0.84
-1.92
-3.23
-4.75
-6.25
-7.40
-7.81
-7.28
-5.94
-4.17
-2.49
-1.22
-0.44
0.06
0.51
1.06
1.66
2.13
2.24
1.88
1.09
-0.02
-1.21
-2.13
-2.27
-1.02
2.05
6.97
13.14
19.46
24.70
27.88
28.59
27.05
23.94
19.98
15.79
11.73
7.96
4.63
1.90
-0.06
-1.19
-1.57
-1.48
-1.24
-1.13
-1.26
-1.58
-1.89
-1.98
-1.72
-1.14
-0.38
0.35
0.90
1.19
1.27
1.24
1.20
1.20
1.21
1.10
0.75
0.07
-0.92
-2.12
-3.36
-4.43
-5.18
-5.48
-5.34
-4.85
-4.16
-3.44
-2.79
-2.24
-1.69
-0.99
0.06
1.49
3.17
4.78
5.88
6.11
5.26
3.40
0.77
-2.23
-5.27
-8.08
-10.51
-12.49
-13.96
-14.88
-15.24
-15.08
-14.51
-13.71
-12.82
-11.97
-11.21
-10.55
-9.95
-9.37
-8.80
-8.25
-7.75
-7.31
-6.92
-6.58
-6.27
-5.96
-5.63
-5.21
-4.58
-3.64
-2.29
-0.54
1.41
3.30
4.85
5.93
6.60
7.11
7.72
8.52
9.33
9.79
9.63
8.88
7.97
7.53
8.07
9.63
11.71
13.38
13.77
12.38
9.27
4.83
-0.34
-5.56
-9.92
-12.23
-11.17
-5.85
3.59
15.50
27.11
35.39
38.16
34.89
26.65
15.48
3.43
-8.06
-18.25
-26.91
-33.83
-38.71
-41.26
-41.40
-39.41
-35.86
-31.46
-26.76
-22.01
-17.28
-12.46
-7.54
-2.67
1.89
5.84
8.96
11.23
12.81
13.96
15.00
16.13
17.49
19.00
20.47
21.51
21.70
20.72
18.48
15.12
11.08
6.86
2.94
-0.32
-2.79
-4.50
-5.61
-6.28
-6.75
-7.27
-8.01
-8.96
-9.77
-9.81
-8.29
-4.70
0.90
7.71
14.36
19.38
21.70
21.02
17.81
12.99
7.48
1.91
-3.40
-8.28
-12.56
-15.96
-18.25
-19.29
-19.20
-18.32
-17.11
-15.96
-15.04
-14.22
-13.22
-11.68
-9.45
-6.67
-3.85
-1.71
-0.83
-1.38
-3.04
-5.05
-6.57
-7.01
-6.22
-4.51
-2.42
-0.46
1.04
2.04
2.63
2.94
3.06
3.07
3.00
2.97
2.99
2.93
2.45
1.04
-1.73
-5.85
-10.66
-14.91
-17.07
-15.95
-11.26
-3.74
5.04
13.31
19.68
23.60
25.21
25.11
23.91
22.01
19.58
16.73
13.64
10.66
8.13
6.26
5.06
4.31
3.77
3.32
2.99
2.91
3.16
3.65
4.09
4.14
3.55
2.28
0.48
-1.65
-3.91
-6.21
-8.49
-10.59
-12.25
-13.20
-13.30
-12.63
-11.51
-10.31
-9.27
-8.48
-7.95
-7.63
-7.58
-7.79
-8.00
-7.66
-6.04
-2.59
2.68
9.02
15.25
20.12
22.82
23.23
21.82
19.35
16.50
13.70
11.14
8.96
7.34
6.58
6.92
8.35
10.55
12.86
14.58
15.26
14.87
13.74
12.38
11.11
9.88
8.25
5.66
1.76
-3.44
-9.44
-15.52
-20.96
-25.20
-27.99
-29.46
-29.98
-30.05
-30.16
-30.51
-30.94
-30.92
-29.78
-27.02
-22.58
-16.92
-10.84
-5.18
-0.49
3.11
5.93
8.58
11.71
15.68
20.49
25.58
30.07
32.97
33.51
31.44
27.04
21.01
14.14
7.11
0.40
-5.68
-10.83
-14.80
-17.40
-18.57
-18.46
-17.44
-15.89
-14.11
-12.26
-10.28
-8.11
-5.67
-3.06
-0.48
1.88
3.84
5.34
6.42
7.12
7.48
7.48
7.07
6.19
4.80
2.85
0.29
-2.87
-6.53
-10.41
-14.11
-17.19
-19.28
-20.15
-19.79
-18.38
-16.21
-13.67
-11.16
-9.08
-7.80
-7.52
-8.23
-9.54
-10.75
-11.02
-9.63
-6.38
-1.68
3.58
8.30
11.62
13.23
13.37
12.65
11.70
10.91
10.30
9.75
9.14
8.50
7.98
7.70
7.67
7.73
7.62
7.10
6.09
4.72
3.18
1.71
0.48
-0.46
-1.04
-1.30
-1.30
-1.11
-0.88
-0.74
-0.75
-0.89
-1.03
-0.92
-0.31
0.99
3.03
5.62
8.35
10.69
12.06
12.08
10.64
8.03
4.91
2.15
0.61
0.84
2.92
6.37
10.33
13.85
16.10
16.67
15.62
13.30
10.24
6.98
3.92
1.28
-0.86
-2.46
-3.55
-4.13
-4.22
-3.89
-3.25
-2.43
-1.51
-0.56
0.40
1.25
1.81
1.83
1.09
-0.42
-2.50
-4.83
-7.05
-9.01
-10.71
-12.30
-13.86
-15.40
-16.72
-17.55
-17.64
-16.79
-15.04
-12.65
-10.13
-8.18
-7.48
-8.35
-10.51
-13.05
-14.67
-14.20
-11.10
-5.71
0.90
7.39
12.65
16.05
17.59
17.63
16.73
15.38
14.01
12.89
12.15
11.73
11.44
11.04
10.33
9.27
7.92
6.42
4.88
3.36
1.86
0.38
-1.06
-2.39
-3.61
-4.73
-5.86
-7.12
-8.58
-10.18
-11.73
-12.96
-13.59
-13.45
-12.52
-11.00
-9.12
-7.13
-5.12
-3.12
-1.05
1.04
2.93
4.21
4.33
2.84
-0.45
-5.32
-11.08
-16.71
-21.07
-23.17
-22.44
-18.83
-12.91
-5.65
1.75
8.20
12.96
15.80
16.94
16.97
16.50
16.05
15.78
15.58
15.23
14.56
13.61
12.56
11.71
11.18
10.92
10.68
10.16
9.18
7.78
6.16
4.53
3.01
1.49
-0.21
-2.29
-4.68
-7.15
-9.37
-11.10
-12.31
-13.22
-14.07
-14.99
-15.83
-16.31
-16.16
-15.31
-13.93
-12.30
-10.71
-9.28
-8.04
-6.84
-5.47
-3.57
-0.69
3.54
9.21
15.88
22.69
28.44
32.11
33.04
31.25
27.31
22.16
16.72
11.75
7.67
4.52
2.16
0.25
-1.49
-3.20
-4.90
-6.55
-8.05
-9.32
-10.29
-10.82
-10.82
-10.29
-9.44
-8.77
-8.82
-9.94
-11.98
-14.15
-15.27
-14.23
-10.54
-4.55
2.59
9.44
14.75
17.86
18.64
17.33
14.31
9.93
4.64
-0.95
-6.00
-9.63
-11.26
-10.82
-8.97
-6.83
-5.67
-6.30
-8.82
-12.42
-15.75
-17.38
-16.35
-12.58
-6.88
-0.61
4.87
8.69
10.70
11.31
11.14
10.71
10.21
9.59
8.75
7.66
6.50
5.44
4.55
3.74
2.76
1.34
-0.63
-3.04
-5.59
-7.89
-9.60
-10.58
-10.85
-10.59
-10.03
-9.34
-8.57
-7.71
-6.72
-5.63
-4.49
-3.41
-2.53
-1.97
-1.80
-2.00
-2.42
-2.88
-3.23
-3.44
-3.62
-4.01
-4.80
-6.03
-7.60
-9.30
-10.94
-12.38
-13.45
-13.79
-12.94
-10.41
-6.03
-0.16
6.39
12.68
18.10
22.60
26.56
30.34
33.89
36.55
37.34
35.54
31.07
24.67
17.58
11.02
5.75
1.96
-0.53
-2.06
-2.83
-2.95
-2.49
-1.64
-0.71
-0.03
0.10
-0.46
-1.71
-3.51
-5.68
-7.99
-10.24
-12.27
-13.96
-15.29
-16.26
-16.90
-17.18
-17.15
-16.85
-16.48
-16.29
-16.49
-17.03
-17.46
-17.03
-14.87
-10.39
-3.57
4.96
14.01
22.20
28.38
31.86
32.51
30.61
26.71
21.54
15.84
10.36
5.76
2.46
0.57
-0.16
-0.20
-0.08
-0.17
-0.54
-0.88
-0.68
0.54
2.99
6.40
10.03
12.89
13.98
12.69
9.11
4.01
-1.30
-5.42
-7.28
-6.46
-3.37
1.02
5.43
8.69
9.99
9.09
6.20
1.79
-3.58
-9.41
-15.35
-21.06
-26.25
-30.56
-33.57
-34.78
-33.79
-30.34
-24.43
-16.45
-7.21
2.19
10.50
16.68
20.18
21.01
19.71
17.07
13.82
10.54
7.51
4.90
2.72
0.95
-0.46
-1.61
-2.65
-3.71
-4.85
-6.12
-7.47
-8.81
-9.97
-10.85
-11.33
-11.49
-11.47
-11.43
-11.44
-11.38
-11.04
-10.18
-8.76
-6.86
-4.81
-3.02
-1.78
-1.29
-1.57
-2.45
-3.70
-5.03
-6.22
-7.13
-7.80
-8.36
-9.02
-9.97
-11.27
-12.83
-14.29
-15.03
-14.24
-11.21
-5.59
2.27
11.27
19.83
26.41
30.04
30.66
29.02
26.25
23.35
20.80
18.56
16.37
14.04
11.72
9.79
8.63
8.40
8.92
9.73
10.35
10.43
9.90
8.86
7.47
5.81
3.86
1.53
-1.28
-4.49
-7.92
-11.22
-13.98
-15.83
-16.56
-16.21
-14.95
-13.17
-11.17
-9.20
-7.39
-5.84
-4.69
-4.15
-4.32
-4.95
-5.47
-5.06
-3.03
0.82
5.97
11.36
15.78
18.36
18.84
17.61
15.32
12.62
9.89
7.26
4.78
2.62
1.04
0.31
0.54
1.56
2.97
4.27
5.12
5.39
5.24
4.86
4.36
3.72
2.77
1.38
-0.53
-2.84
-5.30
-7.58
-9.39
-10.61
-11.27
-11.56
-11.70
-11.85
-12.00
-12.08
-11.94
-11.59
-11.10
-10.62
-10.31
-10.24
-10.43
-10.90
-11.57
-12.19
-12.29
-11.12
-7.95
-2.44
5.04
13.32
20.77
25.80
27.43
25.67
21.46
16.33
11.80
8.95
8.06
8.61
9.60
9.93
8.76
5.90
1.80
-2.52
-5.75
-6.76
-5.07
-1.20
3.11
5.27
2.70
-6.09
-20.51
-37.62
-52.80
-61.17
-59.33
-46.57
-25.13
0.43
24.71
42.92
52.02
51.17
41.54
25.83
7.49
-9.93
-23.45
-31.10
-32.18
-27.30
-18.27
-7.71
1.44
6.61
6.18
-0.02
-10.63
-23.01
-33.92
-40.37
-40.46
-33.87
-21.85
-6.83
8.42
21.53
31.13
36.96
39.64
40.18
39.47
38.02
35.90
33.01
29.30
24.94
20.30
15.83
11.89
8.59
5.91
3.69
1.77
0.03
-1.58
-3.14
-4.70
-6.22
-7.65
-8.85
-9.69
-10.12
-10.18
-9.93
-9.44
-8.79
-8.05
-7.35
-6.80
-6.34
-5.79
-4.89
-3.39
-1.36
0.82
2.48
2.97
1.90
-0.46
-3.34
-5.60
-6.18
-4.57
-0.98
3.75
8.43
11.97
13.77
13.75
12.30
9.97
7.23
4.41
1.73
-0.60
-2.35
-3.32
-3.45
-2.86
-1.84
-0.76
0.07
0.56
0.74
0.74
0.72
0.80
0.96
1.15
1.28
1.26
1.02
0.52
-0.33
-1.56
-3.10
-4.83
-6.46
-7.75
-8.52
-8.73
-8.50
-8.05
-7.64
-7.60
-8.15
-9.42
-11.32
-13.55
-15.60
-16.98
-17.35
-16.70
-15.36
-13.90
-12.83
-12.51
-12.91
-13.63
-13.98
-13.14
-10.46
-5.63
1.07
8.85
16.55
23.01
27.37
29.32
29.06
27.14
24.17
20.67
16.92
13.09
9.31
5.65
2.26
-0.74
-3.26
-5.22
-6.53
-7.14
-6.91
-5.83
-3.93
-1.37
1.57
4.52
7.14
9.27
10.97
12.62
14.65
17.39
20.81
24.43
27.42
28.91
28.31
25.48
20.86
15.23
9.51
4.48
0.58
-2.12
-3.89
-5.20
-6.56
-8.29
-10.45
-12.92
-15.43
-17.72
-19.58
-20.82
-21.32
-20.96
-19.67
-17.45
-14.47
-10.97
-7.25
-3.58
-0.17
2.88
5.49
7.65
9.31
10.36
10.70
10.22
8.89
6.75
4.00
0.87
-2.36
-5.41
-8.08
-10.17
-11.61
-12.37
-12.48
-12.04
-11.22
-10.18
-9.03
-7.85
-6.62
-5.34
-3.99
-2.56
-1.07
0.43
1.85
3.05
3.85
4.12
3.86
3.33
3.04
3.57
5.34
8.33
11.99
15.45
17.80
18.42
17.20
14.40
10.57
6.21
1.67
-2.84
-7.15
-11.02
-14.22
-16.54
-17.88
-18.30
-17.96
-17.14
-16.11
-15.09
-14.21
-13.49
-12.86
-12.20
-11.35
-10.26
-8.90
-7.37
-5.77
-4.18
-2.66
-1.17
0.25
1.59
2.71
3.51
3.93
4.02
3.91
3.77
3.67
3.47
2.98
2.00
0.52
-1.20
-2.77
-3.84
-4.30
-4.27
-3.97
-3.42
-2.36
-0.27
3.27
8.22
14.01
19.61
24.01
26.56
27.21
26.37
24.68
22.61
20.37
17.99
15.44
12.80
10.31
8.24
6.75
5.90
5.57
5.56
5.68
5.81
5.90
6.00
6.20
6.52
7.04
7.75
8.61
9.61
10.68
11.75
12.76
13.52
13.74
13.07
11.12
7.60
2.43
-4.24
-11.98
-20.20
-28.22
-35.35
-41.03
-44.80
-46.43
-45.80
-43.02
-38.32
-32.06
-24.73
-16.86
-9.03
-1.79
4.36
9.07
12.08
13.30
12.71
10.43
6.71
1.90
-3.56
-9.18
-14.50
-19.15
-22.89
-25.59
-27.18
-27.71
-27.26
-25.91
-23.81
-21.04
-17.70
-13.90
-9.74
-5.37
-0.95
3.40
7.67
11.96
16.46
21.29
26.45
31.67
36.54
40.50
43.11
44.06
43.30
40.98
37.34
32.69
27.35
21.63
15.82
10.19
4.93
0.15
-4.10
-7.85
-11.13
-13.99
-16.41
-18.38
-19.81
-20.64
-20.85
-20.44
-19.52
-18.20
-16.65
-14.94
-13.17
-11.39
-9.67
-8.12
-6.84
-5.94
-5.46
-5.38
-5.60
-5.95
-6.34
-6.69
-7.04
-7.42
-7.86
-8.33
-8.66
-8.63
-8.01
-6.67
-4.71
-2.41
-0.18
1.64
2.85
3.50
3.84
4.22
4.92
6.06
7.53
9.11
10.46
11.24
11.16
10.10
8.24
6.16
4.72
4.78
6.77
10.36
14.43
17.51
18.32
16.23
11.54
5.18
-1.69
-8.09
-13.42
-17.37
-19.79
-20.53
-19.56
-16.94
-12.95
-8.06
-2.85
2.12
6.42
9.74
11.99
13.21
13.54
13.17
12.25
10.96
9.46
7.99
6.76
5.99
5.76
6.03
6.58
7.06
7.15
6.62
5.50
3.98
2.43
1.22
0.65
0.78
1.48
2.51
3.59
4.52
5.25
5.93
6.80
8.10
9.93
12.06
14.08
15.36
15.38
13.86
10.91
6.90
2.35
-2.22
-6.45
-10.02
-12.74
-14.44
-14.99
-14.38
-12.78
-10.56
-8.13
-5.94
-4.26
-3.25
-2.86
-2.96
-3.46
-4.25
-5.33
-6.64
-8.08
-9.48
-10.60
-11.27
-11.34
-10.85
-9.91
-8.75
-7.56
-6.51
-5.66
-4.98
-4.37
-3.67
-2.76
-1.55
0.00
1.92
4.11
6.44
8.72
10.76
12.49
13.94
15.18
16.29
17.22
17.75
17.54
16.28
13.84
10.32
6.01
1.35
-3.27
-7.53
-11.21
-14.16
-16.29
-17.57
-17.99
-17.66
-16.68
-15.24
-13.52
-11.66
-9.80
-8.04
-6.51
-5.29
-4.44
-3.97
-3.87
-4.04
-4.35
-4.65
-4.80
-4.77
-4.54
-4.19
-3.78
-3.39
-3.02
-2.64
-2.18
-1.60
-0.92
-0.31
-0.02
-0.32
-1.31
-2.88
-4.70
-6.30
-7.33
-7.60
-7.15
-6.22
-5.09
-3.99
-3.09
-2.44
-1.93
-1.27
-0.03
2.26
5.79
10.35
15.27
19.58
22.36
23.08
21.73
18.83
15.11
11.33
8.05
5.57
3.98
3.17
2.93
3.05
3.30
3.57
3.91
4.43
5.28
6.53
8.06
9.57
10.68
10.99
10.33
8.74
6.50
4.09
2.01
0.63
0.07
0.04
-0.15
-1.36
-4.30
-9.05
-14.87
-20.16
-23.01
-21.83
-15.99
-6.19
5.73
17.35
26.50
31.81
32.96
30.47
25.31
18.41
10.52
2.12
-6.31
-14.24
-21.08
-26.28
-29.56
-30.97
-30.92
-29.95
-28.59
-27.15
-25.67
-23.91
-21.49
-18.01
-13.29
-7.51
-1.21
4.83
9.88
13.39
15.25
15.73
15.32
14.47
13.50
12.50
11.40
10.12
8.63
6.97
5.24
3.49
1.74
-0.01
-1.76
-3.42
-4.89
-6.17
-7.28
-8.39
-9.54
-10.54
-10.88
-9.91
-7.11
-2.44
3.52
9.71
14.98
18.43
19.77
19.19
17.21
14.35
11.03
7.47
3.90
0.61
-2.10
-3.95
-4.81
-4.80
-4.27
-3.64
-3.25
-3.25
-3.47
-3.60
-3.29
-2.34
-0.85
0.84
2.28
3.15
3.35
3.08
2.68
2.44
2.46
2.63
2.71
2.42
1.64
0.36
-1.33
-3.22
-4.96
-6.12
-6.25
-5.00
-2.31
1.49
5.78
9.75
12.73
14.34
14.59
13.72
12.03
9.76
7.05
3.99
0.70
-2.60
-5.68
-8.34
-10.54
-12.32
-13.84
-15.17
-16.33
-17.21
-17.64
-17.47
-16.65
-15.27
-13.54
-11.73
-10.07
-8.71
-7.64
-6.73
-5.77
-4.56
-3.02
-1.21
0.72
2.53
4.01
5.00
5.50
5.61
5.54
5.50
5.64
5.96
6.30
6.45
6.15
5.30
3.94
2.22
0.40
-1.33
-2.84
-4.06
-4.96
-5.47
-5.59
-5.31
-4.77
-4.06
-3.36
-2.72
-2.14
-1.54
-0.83
0.02
0.98
1.99
2.96
3.87
4.68
5.33
5.75
5.90
5.84
5.79
6.02
6.71
7.81
9.07
10.11
10.59
10.44
9.82
9.08
8.58
8.50
8.88
9.57
10.32
10.82
10.73
9.79
7.88
5.08
1.69
-1.92
-5.36
-8.33
-10.67
-12.30
-13.18
-13.31
-12.71
-11.45
-9.67
-7.58
-5.46
-3.50
-1.85
-0.53
0.51
1.36
2.07
2.63
2.95
2.95
2.61
1.98
1.26
0.64
0.34
0.51
1.18
2.28
3.62
5.05
6.45
7.82
9.23
10.71
12.21
13.65
14.89
15.77
16.19
16.21
15.97
15.68
15.39
15.05
14.50
13.60
12.10
10.02
7.75
6.12
6.04
8.08
12.05
17.00
21.32
22.96
20.34
12.85
1.08
-13.68
-30.00
-46.89
-64.00
-81.52
-100.33
-121.31
-145.05
-171.30
-198.81
-225.25
-247.52
-262.46
-264.64
-251.41
-224.43
-189.80
-155.34
-127.20
-107.74
-96.25
-90.02
-87.12
-86.90
-88.85
-91.66
-92.97
-90.67
-83.21
-70.21
-52.47
-31.41
-8.46
15.75
41.56
70.11
102.72
140.22
182.14
226.29
268.76
304.42
328.41
337.64
331.91
313.89
288.07
259.07
230.14
202.73
177.01
152.96
131.10
112.50
98.00
87.43
79.26
71.18
61.24
48.83
34.93
21.66
11.13
4.29
0.36
-2.78
-7.64
-15.86
-27.28
-40.06
-51.55
-59.57
-63.44
-64.25
-64.38
-66.57
-72.96
-84.43
-100.42
-119.09
-137.72
-153.42
-164.07
-169.34
-171.24
-173.72
-181.25
-196.71
-219.52
-244.78
-264.42
-269.91
-255.76
-222.33
-176.44
-129.44
-93.15
-75.54
-77.83
-94.66
-116.90
-135.70
-145.71
-146.20
-139.69
-129.45
-117.37
-103.50
-87.11
-68.03
-47.58
-28.05
-11.41
2.06
14.12
27.95
46.56
71.38
101.87
136.17
172.41
209.65
247.88
286.95
325.30
359.47
384.82
397.31
395.26
380.10
355.77
327.20
298.83
273.69
253.19
237.20
224.00
210.18
190.96
161.46
118.56
62.78
-1.02
-64.93
-120.53
-161.64
-186.11
-195.79
-195.01
-188.72
-180.91
-173.79
-167.69
-161.40
-152.55
-138.34
-116.32
-85.06
-44.61
3.35
55.75
108.46
156.73
195.80
221.94
233.47
231.51
219.56
201.99
182.03
160.40
135.46
104.78
67.08
23.09
-24.84
-74.06
-122.35
-167.71
-207.26
-236.52
-250.12
-243.69
-216.15
-170.54
-112.98
-50.29
12.13
70.96
124.03
168.88
202.13
220.40
222.24
209.46
186.91
160.73
136.06
115.69
100.19
88.85
80.67
74.60
69.25
62.74
53.38
40.75
26.36
13.31
4.81
2.58
6.07
13.03
20.77
27.53
32.80
36.67
38.93
38.46
33.63
23.08
6.77
-13.69
-35.45
-55.39
-71.46
-83.31
-92.22
-100.11
-108.21
-116.27
-122.48
-124.54
-120.91
-111.72
-98.57
-83.61
-68.48
-53.79
-39.58
-26.07
-14.28
-5.88
-2.41
-4.20
-9.99
-17.33
-23.67
-27.60
-29.36
-30.38
-32.16
-35.08
-38.04
-38.94
-35.84
-28.07
-16.72
-4.25
6.47
13.15
14.92
12.31
6.88
0.37
-5.93
-11.63
-17.04
-22.71
-28.81
-34.73
-39.34
-41.60
-41.35
-39.65
-38.41
-39.34
-43.02
-48.49
-53.68
-56.39
-55.17
-49.72
-40.64
-28.82
-15.17
-0.50
14.23
27.73
38.56
45.55
48.35
47.41
43.88
39.02
33.79
28.64
23.49
18.10
12.38
6.81
2.47
0.69
2.54
8.32
17.42
28.52
40.17
51.21
60.94
68.94
74.92
78.76
80.80
82.02
83.76
87.23
92.61
98.91
104.36
107.47
107.94
106.98
106.63
108.58
113.17
118.97
123.39
123.79
118.49
107.41
91.93
74.51
58.14
45.93
40.57
43.81
55.76
74.37
95.65
114.78
127.89
133.52
133.01
129.40
125.42
121.83
116.91
107.48
90.66
65.49
33.57
-1.48
-35.12
-63.21
-82.86
-93.08
-94.94
-91.54
-87.41
-87.47
-95.78
-114.21
-141.86
-175.29
-209.48
-239.16
-260.14
-270.22
-269.35
-259.33
-242.99
-223.22
-202.32
-181.80
-162.48
-144.71
-128.57
-113.90
-100.34
-87.50
-75.26
-64.06
-54.84
-48.63
-46.11
-47.13
-50.61
-54.85
-58.09
-59.00
-57.12
-52.86
-47.26
-41.52
-36.62
-33.01
-30.57
-28.80
-27.02
-24.69
-21.43
-17.00
-11.30
-4.24
4.12
13.46
23.10
32.03
39.16
43.60
44.93
43.30
39.40
34.17
28.51
23.04
18.02
13.48
9.42
5.88
3.03
1.09
0.08
-0.23
-0.26
-0.40
-0.79
-1.28
-1.55
-1.42
-1.05
-0.99
-1.89
-4.12
-7.51
-11.30
-14.51
-16.37
-16.73
-16.06
-15.19
-14.88
-15.37
-16.33
-17.02
-16.75
-15.14
-12.40
-9.18
-6.41
-4.98
-5.40
-7.64
-11.00
-14.22
-15.84
-14.73
-10.48
-3.67
4.38
12.06
18.12
22.00
23.93
24.56
24.56
24.25
23.59
22.30
20.18
17.25
13.81
10.30
7.10
4.38
2.12
0.20
-1.44
-2.64
-3.18
-2.90
-1.87
-0.51
0.60
0.94
0.28
-1.18
-2.85
-4.08
-4.41
-3.70
-2.20
-0.36
1.41
2.93
4.26
5.70
7.46
9.47
11.38
12.64
12.77
11.55
9.11
5.81
2.04
-2.03
-6.51
-11.70
-17.77
-24.46
-30.89
-35.72
-37.46
-35.08
-28.43
-18.41
-6.76
4.45
13.46
19.25
21.63
21.16
18.79
15.62
12.54
10.17
8.68
7.85
7.11
5.75
3.16
-0.82
-5.83
-10.93
-14.95
-16.93
-16.52
-14.04
-10.41
-6.65
-3.43
-0.80
1.76
5.08
9.88
16.49
24.66
33.68
42.46
49.80
54.55
55.84
53.24
46.86
37.42
26.13
14.43
3.68
-5.22
-12.01
-17.08
-21.34
-25.81
-31.18
-37.52
-44.12
-49.69
-52.65
-51.69
-46.21
-36.63
-24.28
-10.99
1.39
11.59
19.07
23.99
26.81
27.96
27.66
25.94
22.85
18.60
13.62
8.42
3.40
-1.24
-5.42
-9.09
-12.01
-13.83
-14.18
-12.98
-10.61
-7.83
-5.60
-4.74
-5.55
-7.74
-10.46
-12.71
-13.71
-13.25
-11.75
-10.06
-9.01
-9.09
-10.21
-11.88
-13.47
-14.52
-14.89
-14.61
-13.76
-12.31
-10.12
-6.99
-2.86
2.21
8.00
14.16
20.33
26.05
30.87
34.37
36.26
36.52
35.32
32.99
29.74
25.67
20.81
15.20
9.11
2.96
-2.68
-7.36
-10.80
-12.95
-13.87
-13.71
-12.55
-10.56
-8.00
-5.25
-2.68
-0.59
0.87
1.76
2.21
2.36
2.24
1.82
1.06
-0.05
-1.43
-2.96
-4.53
-6.04
-7.48
-8.79
-10.07
-11.39
-12.89
-14.74
-16.93
-19.21
-20.94
-21.27
-19.36
-14.79
-7.75
0.85
9.69
17.46
23.27
26.85
28.43
28.53
27.65
26.08
23.96
21.29
18.15
14.70
11.23
7.97
5.04
2.45
0.09
-2.06
-3.97
-5.41
-6.14
-6.00
-5.06
-3.63
-2.22
-1.27
-1.01
-1.43
-2.21
-3.02
-3.58
-3.86
-4.04
-4.44
-5.36
-6.94
-9.12
-11.62
-14.04
-15.96
-17.12
-17.46
-17.14
-16.46
-15.74
-15.26
-15.10
-15.23
-15.38
-15.15
-14.08
-11.73
-7.84
-2.52
3.72
10.04
15.48
19.28
21.09
21.03
19.62
17.46
15.08
12.76
10.55
8.34
6.09
3.85
1.80
0.16
-0.96
-1.54
-1.64
-1.32
-0.62
0.42
1.66
2.81
3.46
3.25
2.03
0.10
-2.01
-3.66
-4.47
-4.52
-4.27
-4.29
-5.07
-6.69
-8.76
-10.57
-11.27
-10.18
-7.08
-2.45
2.57
6.39
7.58
5.41
0.34
-5.94
-11.04
-12.63
-9.35
-1.31
9.95
21.88
31.77
37.43
37.78
33.00
24.41
14.10
4.32
-3.06
-6.89
-7.01
-4.18
0.26
4.67
7.65
8.35
6.64
3.12
-1.04
-4.49
-6.09
-5.25
-2.14
2.36
6.97
10.34
11.53
10.19
6.68
1.89
-3.14
-7.43
-10.44
-12.04
-12.58
-12.56
-12.53
-12.85
-13.55
-14.42
-15.08
-15.19
-14.64
-13.58
-12.44
-11.69
-11.64
-12.15
-12.65
-12.17
-9.74
-4.82
2.39
10.90
19.28
26.05
30.28
31.69
30.67
27.93
24.20
20.07
15.87
11.89
8.35
5.48
3.44
2.24
1.70
1.55
1.49
1.28
0.87
0.38
0.03
0.01
0.39
0.98
1.48
1.48
0.71
-0.92
-3.23
-5.86
-8.39
-10.51
-12.07
-13.13
-13.85
-14.45
-15.14
-16.03
-17.07
-18.09
-18.84
-19.14
-18.88
-18.22
-17.41
-16.83
-16.75
-17.27
-18.14
-18.85
-18.75
-17.14
-13.64
-8.26
-1.52
5.64
12.19
17.23
20.33
21.53
21.26
20.07
18.42
16.55
14.53
12.38
10.18
8.21
6.76
6.07
6.18
6.92
7.96
8.93
9.58
9.79
9.62
9.21
8.74
8.30
7.81
6.99
5.35
2.35
-2.40
-8.88
-16.52
-24.22
-30.58
-34.23
-34.22
-30.22
-22.71
-12.85
-2.22
7.50
14.92
19.24
20.25
18.33
14.27
9.14
4.07
0.19
-1.63
-1.07
1.63
5.57
9.52
12.34
13.35
12.62
10.79
8.81
7.42
6.96
7.20
7.64
7.76
7.27
6.21
4.86
3.56
2.58
2.08
2.11
2.71
3.89
5.57
7.54
9.36
10.57
10.75
9.76
7.75
5.09
2.23
-0.45
-2.74
-4.66
-6.38
-8.13
-10.11
-12.40
-14.95
-17.51
-19.71
-21.12
-21.40
-20.46
-18.49
-15.99
-13.57
-11.75
-10.73
-10.26
-9.73
-8.40
-5.70
-1.46
3.99
9.95
15.51
19.84
22.46
23.22
22.34
20.29
17.59
14.69
11.94
9.58
7.69
6.31
5.42
4.94
4.70
4.48
4.06
3.31
2.28
1.13
0.15
-0.45
-0.59
-0.35
0.05
0.29
0.12
-0.63
-1.92
-3.57
-5.31
-6.82
-7.88
-8.50
-8.84
-9.15
-9.66
-10.49
-11.58
-12.80
-13.99
-14.95
-15.57
-15.84
-15.80
-15.58
-15.39
-15.42
-15.77
-16.33
-16.75
-16.43
-14.77
-11.31
-6.03
0.62
7.79
14.47
19.76
23.13
24.49
24.16
22.61
20.33
17.66
14.80
11.84
8.90
6.18
3.95
2.46
1.81
1.85
2.31
2.89
3.43
3.98
4.65
5.51
6.46
7.21
7.40
6.78
5.35
3.32
1.02
-1.25
-3.34
-5.26
-7.12
-8.92
-10.53
-11.76
-12.36
-12.23
-11.40
-10.10
-8.68
-7.51
-6.94
-7.21
-8.33
-9.98
-11.45
-11.83
-10.25
-6.35
-0.41
6.63
13.50
19.03
22.52
23.80
23.15
21.12
18.25
15.02
11.78
8.79
6.21
4.12
2.61
1.73
1.59
2.17
3.32
4.61
5.50
5.49
4.44
2.60
0.57
-0.99
-1.74
-1.80
-1.67
-2.02
-3.23
-5.26
-7.55
-9.32
-9.89
-9.06
-7.15
-4.93
-3.35
-3.07
-4.37
-7.02
-10.42
-13.76
-16.19
-16.99
-15.74
-12.63
-8.44
-4.57
-2.52
-3.27
-6.62
-11.07
-14.22
-13.76
-8.57
0.72
11.85
21.83
28.09
29.49
26.52
21.00
15.10
10.51
7.93
7.16
7.41
7.96
8.40
8.66
8.86
9.01
8.84
8.02
6.30
3.81
1.09
-1.06
-1.97
-1.40
0.32
2.28
3.49
3.14
0.97
-2.64
-6.84
-10.60
-13.06
-13.76
-12.75
-10.49
-7.77
-5.40
-4.02
-3.92
-4.96
-6.65
-8.38
-9.58
-9.95
-9.53
-8.62
-7.65
-6.98
-6.80
-6.94
-6.97
-6.22
-4.00
0.15
6.28
13.86
21.86
29.00
34.09
36.40
35.94
33.39
29.80
26.22
23.29
21.09
19.32
17.56
15.69
14.03
13.17
13.61
15.52
18.57
22.07
25.44
28.58
32.01
36.71
43.57
52.81
63.65
74.47
83.25
88.44
89.54
87.29
83.41
80.11
79.46
82.84
90.32
100.15
108.64
110.59
100.77
75.95
36.71
-12.01
-62.14
-105.18
-135.04
-149.84
-151.85
-145.62
-135.82
-125.55
-116.01
-107.11
-98.48
-90.10
-82.18
-74.90
-67.98
-60.75
-52.60
-43.40
-33.72
-24.68
-17.63
-13.50
-12.52
-14.03
-16.73
-19.15
-20.15
-19.28
-16.84
-13.69
-10.79
-8.81
-7.90
-7.79
-7.93
-7.81
-7.17
-6.09
-4.93
-4.13
-4.05
-4.76
-6.06
-7.54
-8.77
-9.45
-9.52
-9.13
-8.56
-8.12
-8.02
-8.38
-9.14
-10.13
-11.12
-11.86
-12.24
-12.27
-12.14
-12.14
-12.41
-12.83
-12.91
-11.93
-9.24
-4.54
1.88
9.16
16.16
21.81
25.41
26.84
26.45
24.77
22.25
19.21
15.79
12.18
8.61
5.38
2.76
0.82
-0.49
-1.39
-2.03
-2.44
-2.50
-2.08
-1.14
0.20
1.65
2.90
3.74
4.04
3.80
3.08
1.94
0.42
-1.39
-3.37
-5.31
-6.93
-8.06
-8.69
-8.99
-9.26
-9.77
-10.61
-11.66
-12.64
-13.30
-13.56
-13.53
-13.49
-13.69
-14.29
-15.35
-16.67
-17.88
-18.40
-17.48
-14.50
-9.19
-1.88
6.51
14.67
21.37
25.81
27.82
27.73
26.11
23.46
20.08
16.16
11.92
7.69
3.93
1.04
-0.70
-1.32
-1.08
-0.40
0.31
0.82
1.08
1.22
1.42
1.85
2.45
3.10
3.54
3.56
2.99
1.87
0.34
-1.33
-2.84
-4.03
-4.89
-5.59
-6.32
-7.23
-8.28
-9.26
-9.90
-10.03
-9.67
-9.03
-8.43
-8.13
-8.27
-8.88
-9.81
-10.75
-11.14
-10.33
-7.72
-3.07
3.33
10.61
17.65
23.36
27.07
28.67
28.37
26.61
23.76
20.13
16.01
11.72
7.71
4.39
2.09
0.86
0.51
0.71
1.05
1.32
1.46
1.61
1.90
2.41
3.02
3.46
3.40
2.59
1.02
-1.09
-3.41
-5.58
-7.30
-8.46
-9.07
-9.31
-9.42
-9.61
-10.03
-10.71
-11.56
-12.37
-12.88
-12.88
-12.31
-11.34
-10.19
-9.25
-8.82
-9.08
-10.03
-11.36
-12.45
-12.51
-10.76
-6.75
-0.59
6.98
14.77
21.47
26.11
28.29
28.19
26.36
23.49
20.17
16.80
13.66
10.89
8.50
6.46
4.68
3.07
1.60
0.32
-0.70
-1.47
-2.04
-2.45
-2.72
-2.75
-2.44
-1.81
-1.08
-0.61
-0.75
-1.67
-3.21
-4.95
-6.45
-7.37
-7.65
-7.50
-7.21
-7.06
-7.23
-7.77
-8.60
-9.63
-10.68
-11.64
-12.43
-12.96
-13.26
-13.38
-13.43
-13.55
-13.88
-14.40
-14.95
-15.10
-14.19
-11.59
-6.96
-0.47
7.07
14.51
20.73
24.98
27.14
27.57
26.74
25.06
22.66
19.55
15.85
11.92
8.28
5.43
3.62
2.73
2.46
2.46
2.55
2.71
3.05
3.58
4.21
4.73
4.91
4.55
3.59
2.05
0.08
-2.07
-4.06
-5.59
-6.52
-6.92
-7.07
-7.31
-7.86
-8.70
-9.59
-10.21
-10.29
-9.77
-8.83
-7.87
-7.30
-7.43
-8.36
-9.84
-11.28
-11.82
-10.63
-7.17
-1.47
5.78
13.39
20.02
24.69
26.96
27.05
25.53
23.04
19.99
16.56
12.85
9.04
5.49
2.70
1.05
0.64
1.24
2.33
3.30
3.71
3.41
2.53
1.35
0.24
-0.51
-0.78
-0.68
-0.52
-0.75
-1.84
-4.13
-7.73
-12.35
-17.36
-21.89
-25.06
-26.27
-25.27
-22.27
-17.76
-12.41
-6.86
-1.61
3.05
6.95
10.00
12.09
13.05
12.66
10.81
7.53
3.22
-1.41
-5.43
-7.96
-8.43
-6.79
-3.52
0.47
4.17
6.76
7.84
7.48
6.06
4.08
1.98
-0.00
-1.75
-3.20
-4.28
-4.89
-4.93
-4.31
-2.96
-0.92
1.71
4.67
7.60
10.05
11.67
12.29
11.99
11.08
9.87
8.60
7.32
5.82
3.76
0.88
-2.87
-7.10
-11.07
-13.97
-15.14
-14.49
-12.57
-10.35
-8.82
-8.60
-9.63
-11.30
-12.66
-12.88
-11.61
-9.11
-6.23
-4.22
-4.34
-7.44
-13.59
-21.81
-30.15
-36.08
-37.16
-31.77
-19.71
-2.39
17.48
36.61
52.11
62.29
66.97
67.25
64.77
60.95
56.46
51.23
44.75
36.66
27.06
16.48
5.74
-4.50
-13.80
-21.94
-28.73
-33.87
-36.98
-37.78
-36.31
-33.10
-29.08
-25.25
-22.31
-20.41
-19.10
-17.56
-15.01
-11.02
-5.71
0.32
6.25
11.26
14.81
16.74
17.21
16.58
15.22
13.41
11.29
8.85
5.92
2.31
-2.16
-7.46
-13.25
-18.83
-23.18
-25.29
-24.44
-20.51
-14.13
-6.40
1.33
7.91
12.67
15.44
16.50
16.41
15.74
14.94
14.30
13.86
13.56
13.33
13.18
13.18
13.32
13.46
13.29
12.51
10.91
8.61
5.93
3.23
0.80
-1.29
-3.15
-4.98
-6.86
-8.76
-10.51
-11.85
-12.60
-12.65
-12.08
-11.06
-9.91
-8.97
-8.49
-8.60
-9.18
-10.01
-10.80
-11.31
-11.47
-11.33
-11.05
-10.88
-11.01
-11.68
-12.94
-14.67
-16.40
-17.42
-16.88
-14.20
-9.24
-2.50
5.03
12.18
17.94
21.76
23.57
23.66
22.43
20.26
17.46
14.20
10.72
7.31
4.28
1.92
0.31
-0.63
-1.17
-1.59
-2.08
-2.60
-2.96
-2.92
-2.36
-1.46
-0.60
-0.23
-0.67
-1.92
-3.68
-5.41
-6.65
-7.17
-7.09
-6.81
-6.75
-7.20
-8.14
-9.28
-10.25
-10.80
-10.85
-10.50
-9.90
-9.13
-8.28
-7.43
-6.74
-6.32
-6.15
-5.92
-5.00
-2.69
1.43
7.26
14.13
20.89
26.37
29.74
30.72
29.52
26.71
22.93
18.72
14.48
10.45
6.77
3.61
1.12
-0.51
-1.23
-1.09
-0.34
0.63
1.47
1.91
1.96
1.74
1.43
1.03
0.38
-0.78
-2.67
-5.18
-7.88
-10.10
-11.29
-11.19
-10.04
-8.41
-6.93
-6.07
-5.92
-6.39
-7.22
-8.21
-9.15
-9.81
-9.95
-9.46
-8.55
-7.75
-7.76
-9.01
-11.20
-13.24
-13.66
-11.26
-5.79
1.88
10.20
17.54
22.94
26.23
27.89
28.49
28.28
27.15
24.77
21.03
16.24
11.12
6.55
3.22
1.43
0.97
1.24
1.54
1.40
0.78
0.10
-0.04
0.82
2.71
5.11
7.15
7.94
6.88
3.94
-0.29
-4.74
-8.19
-9.56
-8.38
-5.11
-1.16
1.39
0.52
-5.02
-14.93
-27.35
-39.17
-46.96
-48.01
-41.17
-27.32
-9.18
9.23
23.64
30.48
28.02
16.80
-0.32
-18.93
-34.31
-42.70
-42.36
-33.81
-19.53
-2.92
12.68
24.80
32.24
34.91
33.54
29.25
23.27
16.71
10.56
5.58
2.21
0.59
0.47
1.32
2.52
3.57
4.27
4.73
5.26
6.16
7.59
9.38
11.16
12.47
12.93
12.31
10.59
7.87
4.34
0.23
-4.24
-8.83
-13.24
-17.08
-19.94
-21.46
-21.46
-19.94
-17.16
-13.58
-9.72
-6.12
-3.24
-1.42
-0.79
-1.16
-1.95
-2.29
-1.22
1.89
7.07
13.63
20.32
25.84
29.28
30.29
29.19
26.60
23.14
19.25
15.12
10.82
6.53
2.51
-0.90
-3.39
-4.86
-5.38
-5.16
-4.44
-3.40
-2.12
-0.65
0.95
2.53
3.82
4.58
4.64
3.93
2.52
0.60
-1.60
-3.84
-5.89
-7.55
-8.72
-9.37
-9.67
-9.85
-10.18
-10.84
-11.83
-12.92
-13.79
-14.17
-13.90
-13.05
-11.86
-10.65
-9.75
-9.48
-9.95
-11.07
-12.44
-13.32
-12.87
-10.37
-5.56
1.21
9.02
16.59
22.70
26.52
27.78
26.74
24.06
20.46
16.60
12.92
9.64
6.82
4.39
2.32
0.55
-0.85
-1.87
-2.53
-2.91
-3.13
-3.26
-3.38
-3.40
-3.24
-2.88
-2.43
-2.16
-2.31
-3.02
-4.18
-5.52
-6.63
-7.27
-7.42
-7.25
-7.10
-7.29
-7.99
-9.14
-10.52
-11.79
-12.67
-13.00
-12.77
-12.19
-11.53
-11.11
-11.15
-11.78
-12.90
-14.18
-15.05
-14.71
-12.49
-8.06
-1.66
5.89
13.43
19.85
24.46
27.07
27.97
27.55
26.14
23.92
21.08
17.81
14.51
11.48
8.96
6.97
5.32
3.86
2.54
1.47
0.84
0.79
1.25
1.95
2.55
2.72
2.34
1.46
0.24
-1.12
-2.47
-3.77
-5.08
-6.43
-7.92
-9.50
-11.01
-12.20
-12.78
-12.56
-11.58
-10.16
-8.80
-8.04
-8.19
-9.24
-10.80
-12.25
-12.94
-12.43
-10.50
-7.21
-2.81
2.40
8.13
14.03
19.71
24.67
28.31
30.00
29.26
25.88
20.24
13.37
6.89
2.67
2.18
5.79
12.29
18.99
22.51
20.05
10.66
-4.17
-20.79
-34.60
-41.62
-39.73
-29.33
-12.98
5.57
22.52
34.97
41.46
41.90
37.29
29.16
19.12
8.56
-1.46
-10.09
-16.79
-21.19
-23.27
-23.42
-22.31
-20.86
-19.90
-20.05
-21.52
-24.16
-27.49
-30.90
-33.73
-35.34
-35.21
-32.89
-28.12
-20.85
-11.38
-0.41
10.99
21.50
29.84
35.10
36.94
35.68
32.15
27.33
22.11
17.05
12.26
7.66
3.09
-1.39
-5.49
-8.72
-10.70
-11.27
-10.65
-9.32
-7.80
-6.46
-5.42
-4.58
-3.79
-3.00
-2.32
-1.86
-1.68
-1.69
-1.65
-1.32
-0.62
0.33
1.22
1.72
1.63
0.92
-0.21
-1.50
-2.69
-3.60
-4.18
-4.50
-4.73
-5.08
-5.80
-7.05
-8.75
-10.53
-11.76
-11.72
-9.85
-5.98
-0.38
6.21
12.83
18.59
22.82
25.25
25.96
25.24
23.44
20.92
17.93
14.72
11.49
8.41
5.62
3.21
1.22
-0.36
-1.45
-2.04
-2.12
-1.77
-1.16
-0.52
0.00
0.29
0.34
0.16
-0.27
-0.93
-1.79
-2.79
-3.80
-4.72
-5.44
-5.94
-6.25
-6.49
-6.77
-7.17
-7.81
-8.72
-9.89
-11.20
-12.48
-13.55
-14.34
-14.90
-15.44
-16.27
-17.60
-19.38
-21.27
-22.56
-22.38
-19.88
-14.55
-6.43
3.74
14.59
24.42
31.53
34.73
33.71
29.17
22.68
16.20
11.50
9.63
10.62
13.54
16.94
19.33
19.72
17.83
14.11
9.41
4.76
1.03
-1.20
-1.68
-0.51
1.90
4.87
7.49
8.88
8.38
5.76
1.33
-4.11
-9.51
-13.83
-16.35
-16.83
-15.59
-13.35
-11.01
-9.32
-8.66
-8.93
-9.66
-10.24
-10.31
-9.86
-9.21
-8.88
-9.24
-10.40
-12.15
-14.05
-15.52
-15.99
-14.99
-12.26
-7.86
-2.22
3.91
9.61
14.13
16.99
18.20
18.03
16.90
15.22
13.24
11.12
8.93
6.79
4.79
3.07
1.73
0.84
0.33
0.11
0.04
-0.02
-0.12
-0.28
-0.42
-0.43
-0.30
-0.08
0.06
-0.08
-0.72
-1.89
-3.50
-5.32
-7.00
-8.29
-9.00
-9.12
-8.79
-8.25
-7.76
-7.58
-7.87
-8.66
-9.82
-11.12
-12.29
-13.07
-13.32
-13.08
-12.57
-12.16
-12.16
-12.63
-13.24
-13.25
-11.77
-8.17
-2.40
4.88
12.50
19.21
24.10
26.80
27.53
26.84
25.33
23.44
21.36
19.11
16.69
14.06
11.23
8.25
5.31
2.80
1.32
1.46
3.57
7.37
11.81
15.25
15.90
12.56
5.13
-5.18
-16.16
-25.18
-30.00
-29.34
-23.19
-12.77
-0.23
11.85
21.08
25.76
25.26
20.04
11.52
1.65
-7.62
-14.80
-19.11
-20.60
-19.96
-18.23
-16.49
-15.44
-15.18
-15.30
-14.97
-13.41
-10.16
-5.29
0.59
6.52
11.58
15.09
16.80
16.88
