1565871979.00
64.000000
-0.00
-0.00
-0.00
-0.00
-0.00
-0.00
-0.00
-0.00
-0.00
-0.00
0.00
0.01
0.01
-0.00
-0.03
-0.05
-0.05
0.00
0.13
0.36
0.66
1.01
1.37
1.72
2.06
2.40
2.79
3.24
3.80
4.43
5.08
5.70
6.28
6.81
7.37
8.04
8.85
9.93
11.17
12.48
13.73
14.88
15.97
17.16
18.67
20.65
23.30
26.45
29.82
33.13
36.20
39.13
42.23
45.96
50.63
56.63
63.63
71.10
78.47
85.41
92.01
98.79
106.49
115.65
126.82
139.50
152.88
166.08
178.55
190.36
202.19
215.43
228.81
244.63
263.48
285.46
309.38
332.37
350.13
358.06
352.82
333.56
302.66
263.96
221.76
179.29
138.09
98.45
60.21
23.61
-10.64
-41.31
-67.90
-90.62
-110.12
-127.01
-141.50
-153.46
-162.45
-168.27
-170.99
-171.47
-170.89
-170.45
-171.04
-172.72
-175.16
-177.82
-180.27
-182.21
-183.79
-185.35
-187.25
-189.75
-192.98
-197.01
-201.88
-207.54
-213.80
-220.38
-226.88
-233.18
-239.66
-247.43
-257.88
-271.74
-288.27
-304.84
-317.70
-323.43
-320.25
-308.48
-289.87
-266.43
-239.44
-209.63
-177.99
-146.52
-118.11
-95.27
-78.75
-66.89
-56.51
-44.70
-30.67
-16.15
-4.28
2.30
3.27
0.90
-1.08
0.37
6.05
14.09
21.14
24.50
23.77
21.40
21.19
26.02
35.94
47.85
57.22
60.68
58.06
52.41
48.16
48.34
52.72
57.89
59.32
54.08
42.64
28.80
17.62
12.83
15.06
21.76
28.84
32.94
33.06
30.71
28.63
28.81
31.23
33.77
33.55
28.91
20.67
12.03
7.00
8.22
15.42
25.32
33.28
35.67
31.72
23.84
16.08
11.73
11.43
12.86
12.37
7.35
-1.84
-11.84
-17.98
-17.16
-9.61
0.91
9.06
10.90
5.89
-2.85
-10.52
-13.56
-11.61
-7.71
-6.23
-10.32
-19.78
-31.12
-39.45
-41.30
-36.44
-27.95
-20.36
-16.77
-17.24
-18.79
-17.45
-10.79
0.27
11.92
19.55
20.40
15.23
7.91
3.17
3.71
8.82
14.66
16.62
12.00
1.62
-10.46
-19.14
-20.93
-15.66
-6.45
2.17
6.83
7.14
5.51
5.36
8.66
14.45
19.36
19.62
13.79
3.99
-4.98
-8.26
-3.66
7.06
19.13
27.54
29.74
26.90
22.91
21.90
25.62
32.50
38.60
40.00
35.28
26.45
18.01
14.35
17.42
25.54
34.53
39.88
39.43
34.61
29.48
28.43
33.56
43.32
53.33
58.69
56.77
48.68
38.71
31.80
30.74
34.53
39.05
39.46
33.24
21.88
10.10
3.27
4.30
12.03
21.95
28.83
29.70
25.25
19.19
15.81
17.38
22.82
28.50
30.35
26.25
17.28
7.05
-0.25
-2.22
0.46
4.57
6.18
3.07
-3.95
-11.32
-14.93
-12.43
-4.79
4.20
10.11
10.43
5.89
0.01
-3.15
-1.43
4.23
10.20
12.53
9.24
1.57
-6.73
-11.53
-10.72
-5.52
0.33
2.67
-0.51
-7.83
-15.23
-18.24
-14.59
-5.50
4.93
12.06
13.21
9.00
2.87
-1.09
-0.51
3.96
8.95
10.44
6.33
-2.25
-11.28
-16.04
-13.81
-5.40
5.03
12.46
13.64
9.04
2.32
-1.85
-0.49
5.81
13.52
18.11
16.97
10.67
2.61
-3.20
-4.43
-1.74
1.76
2.69
-0.51
-6.49
-11.78
-12.82
-8.28
0.15
8.62
13.33
12.66
8.00
2.85
0.65
2.80
7.97
12.83
14.19
10.73
3.90
-3.00
-6.68
-5.85
-1.98
1.59
1.57
-3.05
-10.19
-15.73
-15.87
-9.33
1.58
12.13
17.79
16.59
10.07
2.22
-2.91
-3.58
-1.18
0.94
-0.40
-6.11
-14.24
-21.02
-22.92
-18.61
-9.67
0.15
7.01
8.88
6.60
3.14
1.82
4.14
8.94
12.96
12.90
7.55
-1.27
-9.50
-13.09
-10.26
-2.56
5.99
11.17
10.92
6.27
0.65
-2.30
-0.90
3.51
7.50
7.57
2.43
-6.00
-13.65
-16.51
-13.00
-4.99
3.26
7.45
5.71
-0.30
-6.48
-8.63
-5.02
2.78
10.80
15.06
13.92
8.78
3.05
0.04
0.79
3.64
5.33
3.09
-3.46
-11.90
-18.23
-19.24
-14.43
-6.51
0.14
1.87
-2.00
-8.80
-13.92
-13.48
-6.59
4.09
13.83
18.58
17.16
11.87
6.86
5.71
9.31
15.45
20.30
20.78
16.30
9.13
2.89
0.53
2.52
6.70
9.45
7.84
1.38
-7.78
-15.79
-19.35
-17.52
-12.21
-7.16
-5.79
-9.04
-14.87
-19.23
-18.53
-11.76
-1.21
8.50
13.02
10.57
3.04
-5.27
-10.04
-9.38
-4.88
-0.47
0.12
-4.11
-10.78
-15.34
-13.92
-5.84
5.77
15.48
18.79
14.65
6.07
-1.52
-3.47
1.50
10.74
19.24
22.58
19.40
11.95
4.57
0.97
1.96
5.16
6.52
3.04
-5.22
-14.88
-21.15
-20.66
-13.48
-3.16
5.22
7.93
4.73
-1.27
-5.45
-4.58
1.22
8.67
13.09
11.32
3.58
-6.62
-14.44
-16.43
-12.44
-5.62
-0.47
-0.23
-4.96
-11.52
-15.37
-13.27
-5.28
5.25
13.44
15.77
12.06
5.51
0.81
1.26
6.76
13.72
17.27
14.02
4.33
-7.87
-17.13
-19.47
-14.51
-5.46
2.83
6.65
5.31
1.27
-1.66
-0.69
4.32
10.75
14.87
14.06
8.43
0.77
-4.99
-6.20
-2.93
1.97
4.45
1.83
-5.47
-14.08
-19.41
-18.14
-10.37
0.48
9.45
12.57
9.00
1.28
-6.32
-10.22
-9.47
-6.02
-3.17
-3.21
-5.90
-8.46
-7.45
-1.10
9.17
19.28
24.48
22.03
12.84
1.10
-7.88
-10.53
-6.79
-0.03
5.05
5.16
0.36
-6.06
-9.65
-7.36
0.43
10.12
17.08
18.30
14.13
7.97
3.98
4.41
8.26
11.93
11.57
5.55
-4.36
-13.90
-18.73
-16.93
-10.19
-2.83
0.61
-1.99
-9.18
-16.77
-20.18
-17.21
-9.26
-0.54
4.36
3.28
-2.34
-8.21
-9.78
-4.90
4.91
15.39
21.97
22.34
17.55
11.26
7.46
8.08
11.93
15.53
15.25
9.57
0.03
-9.54
-15.27
-15.41
-11.40
-6.99
-6.06
-10.25
-17.92
-24.90
-26.83
-21.65
-10.93
0.91
8.94
10.41
6.15
0.05
-3.25
-1.04
6.11
14.75
20.75
21.73
18.27
13.40
10.51
11.14
13.99
15.75
13.37
6.11
-3.72
-11.89
-14.63
-10.92
-3.25
3.69
5.56
0.77
-8.65
-18.07
-22.86
-20.85
-13.40
-4.58
1.18
1.65
-2.24
-6.99
-8.70
-5.43
1.72
9.32
13.70
13.21
9.14
4.87
3.62
6.38
11.20
14.26
12.28
4.56
-6.34
-16.03
-20.58
-18.74
-12.74
-6.99
-5.63
-10.10
-18.30
-25.52
-27.11
-21.04
-9.00
4.25
13.51
15.83
12.00
5.90
2.16
3.47
9.08
15.55
18.89
17.20
11.75
6.19
4.11
6.75
12.17
16.17
15.01
7.63
-3.51
-13.72
-18.77
-17.24
-11.37
-5.74
-4.61
-9.39
-17.77
-25.01
-26.75
-21.54
-11.65
-1.82
3.61
3.13
-1.12
-4.86
-4.35
1.33
9.67
16.53
18.60
15.56
10.19
6.67
7.82
13.43
20.30
24.03
21.72
13.64
3.19
-4.92
-7.29
-3.81
2.40
6.73
5.66
-1.17
-10.72
-18.27
-20.10
-15.51
-7.32
-0.09
2.40
-0.63
-6.67
-11.51
-11.78
-6.95
0.40
6.23
7.49
3.94
-1.68
-5.25
-3.82
2.56
10.83
16.48
16.32
10.26
1.57
-4.93
-5.52
0.38
9.87
18.28
21.75
19.31
13.15
7.07
4.07
4.63
6.53
6.52
2.41
-5.12
-12.81
-16.61
-14.08
-6.13
3.21
8.83
7.31
-1.06
-12.39
-21.21
-23.47
-18.72
-10.13
-2.62
0.18
-2.04
-6.19
-7.90
-4.25
4.34
14.38
21.31
22.10
17.01
9.17
2.80
0.62
2.35
5.04
4.93
-0.18
-9.36
-19.00
-24.75
-24.06
-17.75
-9.71
-4.74
-5.79
-12.05
-19.45
-22.85
-19.21
-9.36
2.34
10.61
12.23
7.75
1.17
-2.63
-0.62
6.69
15.87
22.59
24.25
21.33
16.72
13.94
14.82
18.43
21.67
21.26
15.78
6.80
-1.88
-6.41
-5.07
0.50
6.31
8.06
3.70
-5.34
-15.02
-20.78
-20.24
-14.44
-7.27
-3.11
-4.20
-9.42
-14.98
-16.83
-13.21
-5.93
0.67
2.15
-3.22
-13.37
-23.41
-28.29
-25.50
-16.49
-5.67
2.12
4.33
1.88
-1.50
-1.69
3.44
12.65
22.12
27.65
27.07
21.43
14.22
9.29
8.40
10.41
11.96
9.79
2.91
-6.62
-14.81
-18.11
-15.55
-9.42
-3.86
-2.48
-6.14
-12.45
-17.28
-17.14
-11.26
-2.09
6.14
9.87
8.26
3.55
-0.30
-0.01
5.09
12.64
18.50
19.21
13.98
5.15
-3.00
-6.69
-4.70
1.04
6.58
8.14
4.43
-2.77
-9.45
-11.68
-7.92
0.14
8.55
13.26
12.31
6.87
0.30
-3.88
-4.06
-1.35
1.37
1.32
-2.16
-7.18
-10.46
-9.37
-3.62
4.46
11.24
13.85
11.75
7.03
3.04
2.33
5.11
9.01
10.60
7.37
-0.54
-10.28
-17.75
-19.80
-16.14
-9.55
-4.30
-3.84
-8.75
-16.23
-21.65
-21.13
-13.77
-2.24
8.62
14.49
13.90
8.92
3.85
2.48
5.80
11.34
14.78
12.57
4.27
-6.87
-15.70
-18.00
-12.91
-3.40
5.43
9.34
7.31
2.02
-1.87
-0.66
6.21
15.71
23.18
24.92
20.46
12.70
6.10
4.01
6.65
11.20
13.50
10.75
3.13
-6.21
-13.01
-14.52
-11.08
-6.03
-3.67
-6.76
-14.72
-23.84
-29.19
-27.51
-19.15
-7.93
0.85
3.31
-0.79
-7.99
-13.12
-12.37
-5.50
4.15
11.68
13.66
10.24
4.83
1.92
4.13
10.33
16.27
17.18
10.72
-1.30
-13.76
-20.95
-19.62
-10.78
1.03
10.19
13.12
9.97
4.12
0.01
0.30
4.35
8.70
9.27
4.11
-5.18
-14.05
-17.54
-13.18
-2.54
9.61
17.78
18.82
13.56
6.04
1.03
1.33
6.05
11.39
12.93
8.38
-1.07
-11.32
-17.68
-17.47
-11.58
-3.80
1.23
0.81
-4.35
-10.57
-13.39
-10.31
-2.47
5.95
10.09
7.15
-1.76
-12.26
-18.93
-18.38
-11.08
-0.91
7.08
9.66
7.12
2.85
0.99
3.75
9.79
15.09
15.37
8.94
-2.15
-13.01
-18.60
-16.49
-8.15
2.02
9.21
10.75
7.30
2.06
-1.42
-1.40
1.06
3.06
1.91
-2.96
-9.42
-13.78
-12.98
-6.48
3.20
11.64
14.94
11.80
4.06
-4.27
-9.37
-9.51
-5.94
-1.84
-0.42
-2.83
-7.57
-11.24
-10.67
-4.87
4.13
12.36
16.02
13.72
7.26
0.61
-2.42
-0.39
4.96
9.78
10.42
5.79
-2.04
-8.89
-10.91
-6.80
1.43
9.62
13.86
12.75
7.96
3.22
1.84
4.66
9.49
12.44
10.32
2.81
-7.15
-14.82
-16.36
-10.97
-1.47
7.50
11.90
10.60
5.75
1.26
0.36
3.52
8.18
10.37
7.06
-1.72
-12.70
-20.94
-22.63
-17.08
-7.24
2.02
6.63
5.57
1.17
-2.38
-1.84
3.06
9.43
12.95
10.61
2.64
-7.58
-15.39
-17.55
-14.04
-8.03
-3.84
-4.46
-9.59
-15.87
-18.79
-15.38
-6.07
5.32
13.74
15.59
10.88
3.06
-2.94
-3.61
1.17
8.09
12.42
10.94
3.90
-5.04
-10.83
-9.90
-2.23
8.70
17.68
20.73
17.10
9.54
2.51
-0.48
1.11
4.74
6.38
3.24
-4.37
-12.87
-17.42
-14.73
-5.21
6.89
15.62
16.56
9.22
-2.64
-13.18
-17.80
-15.55
-9.39
-4.20
-3.43
-7.06
-11.54
-12.21
-6.31
5.01
17.05
24.14
22.81
13.76
1.40
-8.63
-12.51
-10.27
-5.25
-1.88
-2.76
-7.14
-11.38
-11.49
-5.79
3.62
11.94
14.40
9.19
-1.24
-11.42
-15.76
-11.74
-1.17
10.88
18.91
20.01
15.14
8.25
3.73
3.81
7.41
10.97
10.63
4.78
-4.98
-14.50
-19.37
-17.36
-9.76
-0.68
5.24
5.40
0.68
-5.23
-8.16
-6.01
-0.04
5.81
7.41
3.01
-5.45
-13.40
-16.15
-11.54
-1.26
10.04
17.39
18.13
13.17
6.28
1.69
1.51
4.63
7.49
6.41
0.13
-9.33
-17.55
-20.22
-15.65
-5.80
4.70
11.15
11.28
6.46
0.69
-1.81
0.85
7.08
12.83
13.91
8.64
-1.08
-10.79
-16.01
-14.75
-8.58
-1.58
2.19
1.10
-3.20
-7.00
-6.99
-2.40
4.28
8.81
7.66
0.39
-9.85
-17.91
-19.42
-13.31
-2.40
8.12
13.59
12.43
6.83
1.26
-0.34
3.04
8.97
13.10
11.95
5.12
-4.29
-11.46
-12.55
-6.86
2.77
11.63
15.66
13.54
7.18
0.45
-3.15
-2.43
0.86
3.24
1.65
-4.52
-12.95
-19.60
-21.01
-16.39
-8.06
-0.24
3.37
1.73
-3.01
-6.76
-5.98
0.08
8.77
15.44
16.09
9.75
-0.75
-10.28
-14.11
-10.57
-1.80
7.51
12.84
12.43
7.97
3.30
1.73
3.79
6.89
7.09
1.73
-8.44
-19.40
-25.83
-24.08
-14.25
-0.22
12.18
18.15
16.21
8.59
-0.10
-5.53
-5.80
-2.18
2.08
3.96
2.50
-0.61
-2.30
-0.26
5.28
11.33
13.91
10.42
1.67
-8.26
-14.04
-12.12
-2.88
9.27
18.18
19.19
11.70
-0.58
-11.71
-16.81
-14.49
-7.37
-0.12
3.28
1.98
-1.78
-4.23
-2.75
2.39
8.09
10.26
6.51
-2.35
-12.41
-18.68
-17.88
-10.16
0.84
10.11
13.86
11.64
6.18
1.66
0.93
3.72
6.91
6.54
0.48
-9.86
-20.02
-24.86
-21.40
-10.69
2.71
13.12
16.50
12.64
4.71
-2.53
-5.66
-4.19
-0.51
1.91
0.90
-3.01
-6.87
-7.18
-2.26
6.48
15.00
18.75
15.24
5.69
-5.38
-12.36
-11.60
-3.32
8.37
17.81
20.67
16.42
8.24
1.03
-1.57
0.65
4.55
5.78
1.65
-6.91
-15.67
-19.49
-15.34
-4.24
8.96
18.14
19.12
11.85
0.26
-10.02
-14.81
-13.43
-8.60
-4.33
-3.35
-5.47
-8.02
-7.94
-4.03
2.14
7.04
7.63
3.31
-3.42
-8.32
-7.92
-1.58
7.95
15.93
18.18
13.38
3.82
-5.76
-10.67
-8.69
-1.21
7.64
13.17
12.66
6.64
-1.57
-7.80
-9.51
-7.01
-3.06
-0.98
-2.44
-6.38
-9.67
-9.25
-4.25
3.17
8.83
9.08
3.07
-6.40
-14.22
-15.74
-9.36
2.41
14.33
21.08
20.11
12.75
3.26
-3.71
-5.62
-3.20
0.26
1.23
-1.82
-7.46
-12.18
-12.55
-7.40
1.30
9.48
13.31
11.41
5.61
-0.09
-1.96
1.23
7.45
12.60
12.88
7.08
-2.66
-12.10
-17.28
-16.64
-11.85
-6.71
-4.75
-7.19
-12.21
-16.02
-15.21
-8.85
0.97
10.05
14.51
12.87
6.86
0.22
-3.43
-2.78
0.51
2.97
1.59
-4.05
-11.32
-15.85
-14.14
-5.72
6.30
16.67
20.81
17.21
8.35
-0.75
-5.32
-3.39
3.17
9.78
11.81
7.22
-2.22
-11.88
-16.97
-15.24
-8.22
-0.29
4.05
2.85
-2.12
-6.64
-6.69
-0.99
8.11
16.10
18.95
15.57
8.34
1.66
-0.72
2.04
7.48
11.24
9.76
2.43
-8.01
-16.96
-20.48
-17.49
-10.24
-2.87
0.93
-0.01
-4.01
-7.85
-8.96
-7.02
-3.97
-2.58
-4.43
-8.73
-12.61
-12.78
-7.59
1.86
12.04
18.75
19.17
13.49
4.69
-2.91
-5.88
-3.28
3.02
9.49
12.96
12.31
8.86
5.32
4.07
5.51
7.85
8.16
4.43
-2.84
-10.48
-14.18
-10.98
-1.27
11.09
20.44
22.42
16.25
5.22
-5.24
-10.57
-9.63
-5.00
-1.11
-1.28
-5.55
-10.75
-12.63
-8.71
-0.06
9.09
13.76
11.01
1.76
-9.70
-18.00
-19.50
-14.16
-5.32
2.34
5.35
3.31
-1.20
-4.40
-3.77
0.40
5.10
6.54
2.70
-5.19
-12.94
-15.77
-11.03
0.02
12.68
21.15
21.64
14.35
3.22
-6.23
-9.86
-6.89
0.06
6.83
10.09
9.14
5.86
3.31
3.62
6.48
9.26
8.68
2.87
-7.04
-17.07
-22.32
-19.60
-9.35
4.29
15.46
19.63
15.89
7.33
-0.94
-4.85
-3.73
-0.34
1.03
-2.38
-9.91
-17.59
-20.52
-15.87
-4.73
8.20
17.15
18.24
11.63
1.10
-8.06
-12.10
-10.73
-7.05
-5.27
-7.98
-14.31
-20.35
-21.58
-15.67
-4.13
8.43
16.66
17.59
12.04
3.99
-1.82
-2.69
0.64
4.76
5.84
2.29
-4.25
-9.71
-10.09
-3.95
6.47
16.37
20.97
18.32
10.46
2.22
-1.48
1.35
8.66
15.48
16.76
10.23
-2.22
-15.55
-24.12
-24.80
-18.30
-8.68
-0.98
1.60
-0.70
-4.61
-5.86
-1.92
6.55
15.97
22.00
22.10
16.81
9.53
4.33
3.55
6.50
9.87
9.83
4.41
-5.20
-15.24
-21.36
-21.07
-15.13
-7.15
-1.37
-0.34
-3.46
-7.53
-8.80
-5.41
1.47
8.17
10.96
8.23
1.63
-5.01
-7.89
-5.67
-0.20
4.53
4.85
-0.16
-8.08
-14.24
-14.42
-7.30
4.62
16.14
22.15
20.26
12.02
1.85
-5.46
-7.41
-4.90
-1.36
-0.34
-3.20
-8.31
-11.95
-10.87
-4.40
4.81
12.00
12.95
6.50
-4.71
-15.41
-20.44
-17.55
-8.32
2.66
10.44
12.34
9.15
4.25
1.24
1.72
4.37
6.01
4.03
-1.73
-8.54
-12.23
-9.77
-1.15
10.27
19.29
21.65
16.19
5.49
-5.54
-12.38
-13.11
-9.30
-4.68
-2.84
-4.92
-9.08
-11.62
-9.42
-2.03
7.96
16.05
18.46
14.13
5.43
-3.12
-7.27
-5.22
1.44
8.75
12.52
10.68
4.30
-3.03
-7.44
-7.09
-3.32
0.06
-0.78
-7.22
-16.91
-24.92
-26.49
-19.92
-7.63
4.98
12.63
13.09
8.27
2.89
1.46
5.50
12.71
18.44
18.68
12.48
2.57
-6.26
-9.99
-7.61
-1.57
3.90
5.39
2.26
-2.94
-6.13
-4.30
2.65
11.65
18.09
18.45
12.22
2.25
-6.86
-11.22
-9.76
-4.62
0.17
1.15
-2.60
-8.89
-13.73
-13.69
-7.93
1.27
9.75
13.92
12.59
7.53
2.28
-0.05
1.28
4.29
5.62
2.72
-4.35
-12.73
-18.16
-17.48
-10.48
-0.07
9.23
13.78
12.73
8.31
4.28
3.51
6.12
9.53
10.07
5.46
-3.47
-13.07
-18.86
-18.08
-11.45
-2.76
3.21
3.54
-1.26
-7.59
-11.01
-8.84
-1.80
6.38
11.25
10.06
3.46
-5.09
-11.21
-12.15
-8.29
-2.79
0.44
-0.88
-5.95
-11.31
-12.87
-8.34
1.28
12.08
19.43
20.41
15.43
7.94
2.38
1.65
5.53
10.90
13.54
10.66
2.42
-8.04
-16.26
-18.73
-14.65
-6.17
2.74
8.50
9.66
7.38
4.41
3.14
4.02
5.32
4.20
-1.03
-9.41
-17.40
-20.55
-16.23
-5.51
7.00
15.36
15.51
7.58
-4.16
-13.58
-16.13
-11.11
-1.76
6.77
10.51
8.71
3.90
-0.02
-0.46
2.36
5.56
5.56
0.51
-8.40
-17.39
-22.05
-19.81
-11.51
-0.91
7.24
9.70
6.44
0.37
-4.46
-5.23
-1.92
2.94
5.98
5.21
1.34
-2.60
-3.08
1.71
10.45
19.26
23.59
20.74
11.42
-0.37
-9.36
-11.74
-6.98
1.86
9.79
12.71
9.54
2.57
-4.06
-6.92
-5.35
-1.63
0.76
-0.52
-4.98
-9.71
-11.29
-8.14
-1.76
4.05
5.46
0.98
-7.48
-15.47
-18.41
-14.10
-3.92
7.82
16.05
17.41
11.96
2.81
-5.47
-9.30
-7.80
-2.82
2.41
5.29
5.42
4.53
5.06
8.35
13.19
16.36
14.47
6.30
-5.73
-16.42
-20.29
-14.74
-1.91
12.19
20.66
19.34
9.10
-4.65
-14.93
-17.02
-10.74
-0.46
7.64
8.98
3.09
-6.40
-13.95
-15.24
-9.62
-0.22
8.03
11.33
9.19
4.41
1.16
2.06
6.43
10.65
10.56
4.23
-6.44
-16.62
-21.09
-17.31
-6.97
4.92
12.53
12.30
4.82
-5.80
-13.98
-15.83
-10.98
-2.52
4.95
8.10
6.63
3.22
1.48
3.42
7.94
11.31
9.54
1.24
-11.14
-22.21
-26.52
-21.67
-9.74
3.75
12.88
14.50
9.80
3.27
-0.07
2.28
8.89
15.57
17.83
13.66
4.76
-4.55
-9.80
-8.87
-3.13
3.54
7.07
5.54
0.11
-5.79
-8.72
-7.35
-3.26
0.06
-0.66
-6.27
-14.58
-21.24
-22.24
-16.13
-4.94
6.78
14.29
15.21
10.49
3.70
-1.21
-2.14
0.22
3.15
3.89
1.58
-2.19
-4.39
-2.65
3.15
10.47
15.35
14.78
8.34
-1.33
-9.67
-12.54
-8.35
1.09
11.44
17.94
18.05
12.44
4.67
-1.13
-2.64
-0.58
1.97
1.74
-2.46
-8.67
-13.11
-12.44
-6.20
2.79
9.74
10.69
4.82
-5.08
-14.02
-17.71
-14.71
-7.22
0.39
4.17
2.92
-1.39
-4.78
-3.93
1.75
9.61
15.25
14.94
8.08
-2.43
-11.62
-15.12
-11.60
-3.24
5.50
10.58
10.48
6.86
3.22
2.59
5.50
9.56
10.95
6.74
-2.89
-14.58
-23.24
-24.92
-18.97
-8.43
1.53
6.41
4.70
-1.49
-7.90
-10.73
-8.84
-4.25
-0.55
-0.60
-4.51
-9.59
-11.86
-8.56
0.14
11.02
19.38
21.56
16.81
7.61
-1.68
-7.18
-7.45
-4.02
-0.16
1.18
-0.65
-3.65
-4.41
-0.47
7.96
17.70
24.23
24.16
17.18
6.36
-3.42
-7.90
-5.70
1.29
8.96
13.30
12.46
7.46
1.44
-2.46
-2.95
-1.35
-0.63
-3.37
-9.69
-16.73
-20.09
-16.46
-5.95
7.40
17.27
18.57
10.19
-4.17
-17.86
-24.92
-22.98
-14.39
-4.41
1.93
2.55
-0.94
-4.85
-6.00
-3.80
-0.33
1.32
-0.57
-5.00
-8.64
-7.88
-1.20
9.60
20.07
25.40
22.78
13.12
0.67
-8.99
-11.75
-6.91
2.67
12.04
16.92
15.76
10.36
4.45
1.34
1.95
4.33
5.05
1.56
-6.01
-14.52
-19.52
-17.80
-9.43
2.12
11.71
15.28
11.83
3.92
-3.94
-7.81
-6.51
-2.03
1.82
1.96
-2.00
-7.37
-10.09
-7.40
0.12
8.66
13.09
10.05
-0.01
-12.70
-22.01
-23.48
-16.57
-4.76
6.48
12.77
12.96
9.30
5.63
4.89
7.36
10.60
11.13
6.66
-2.31
-12.60
-19.95
-21.35
-16.75
-9.01
-2.43
-0.15
-2.53
-6.88
-9.30
-6.95
0.05
8.72
14.90
15.74
11.37
4.78
0.02
-0.28
3.53
8.33
9.97
5.83
-3.59
-14.68
-22.60
-23.82
-18.11
-8.61
-0.18
3.32
1.16
-3.85
-7.23
-5.64
1.08
9.63
15.20
14.32
7.04
-2.96
-10.50
-11.66
-6.08
3.05
10.93
13.93
11.55
6.58
3.20
4.32
9.69
16.01
18.70
14.77
4.61
-8.04
-17.87
-20.82
-16.16
-6.68
2.91
8.65
9.23
6.58
4.37
5.58
10.59
16.83
20.40
18.35
10.86
1.29
-5.52
-6.02
-0.03
9.01
15.95
16.92
11.34
2.20
-5.89
-9.52
-8.49
-5.67
-5.06
-9.12
-16.93
-24.67
-27.72
-23.35
-12.51
0.49
10.13
12.60
7.58
-1.53
-9.65
-12.80
-10.13
-4.13
1.17
2.73
0.42
-3.11
-4.30
-1.22
4.98
10.47
11.05
4.91
-6.05
-16.95
-22.49
-19.66
-9.43
3.80
14.62
19.16
16.95
10.72
4.51
1.29
1.40
2.59
1.74
-2.81
-10.02
-16.37
-17.89
-12.63
-2.01
9.64
17.23
17.72
11.66
2.81
-4.11
-6.04
-3.19
1.39
3.82
1.95
-3.33
-8.70
-10.57
-7.20
0.14
7.88
12.29
11.60
6.92
1.48
-1.46
-0.45
3.26
6.51
6.25
1.36
-6.43
-13.35
-15.60
-11.51
-2.54
7.34
13.64
13.82
8.40
0.63
-5.55
-7.75
-6.35
-3.99
-3.68
-6.75
-11.85
-15.65
-14.81
-8.08
2.65
13.22
19.16
18.12
10.98
1.46
-5.84
-7.68
-3.78
3.24
9.58
12.30
10.81
7.00
3.73
2.96
4.35
5.64
4.04
-1.62
-9.76
-16.56
-18.04
-12.42
-1.45
10.19
17.38
17.30
10.95
2.47
-3.42
-4.11
-0.65
3.18
3.39
-1.37
-8.84
-14.39
-13.89
-6.30
5.40
15.66
19.33
14.46
3.32
-8.85
-16.54
-16.90
-11.01
-2.85
3.01
4.11
1.26
-2.32
-3.27
-0.38
4.49
7.57
5.75
-1.29
-10.52
-17.07
-17.07
-9.95
1.26
11.55
16.63
15.20
9.29
2.89
-0.52
0.15
3.11
4.87
2.46
-4.78
-14.51
-22.61
-25.21
-20.81
-11.21
-0.58
6.70
8.30
5.11
0.39
-2.33
-1.48
1.69
4.05
2.81
-2.47
-9.34
-13.77
-12.52
-5.20
5.33
14.29
17.63
14.05
5.85
-2.40
-6.24
-3.72
3.71
12.15
17.51
17.73
13.80
8.91
6.31
7.16
9.75
10.59
6.76
-1.97
-12.38
-19.41
-18.91
-10.16
3.39
15.78
21.48
18.35
8.57
-2.71
-10.31
-11.81
-8.51
-4.19
-2.48
-4.53
-8.41
-10.63
-8.56
-2.38
4.73
8.43
5.87
-2.46
-12.69
-19.57
-19.37
-11.86
-0.47
9.63
14.26
12.23
5.75
-1.23
-5.30
-5.42
-3.27
-1.72
-2.95
-6.79
-10.86
-11.98
-8.18
-0.11
9.11
15.38
15.63
9.62
0.06
-8.67
-12.65
-10.42
-3.57
4.16
9.09
9.50
6.56
3.41
3.08
6.44
11.58
14.79
12.93
5.65
-4.10
-11.48
-12.44
-6.02
4.80
14.73
18.87
15.46
6.69
-2.59
-7.71
-6.85
-1.89
2.93
3.76
-0.33
-6.81
-11.29
-10.30
-3.73
5.00
10.77
9.74
1.70
-9.76
-19.19
-22.27
-18.11
-9.50
-1.12
3.16
2.50
-0.83
-2.97
-1.09
4.78
11.75
15.71
13.87
6.56
-2.93
-10.12
-11.81
-7.93
-1.64
2.54
1.16
-6.04
-15.96
-23.63
-24.92
-18.82
-7.96
2.77
8.98
9.13
5.27
1.70
2.18
7.63
15.54
21.44
21.58
15.36
5.67
-2.68
-5.83
-3.11
2.74
7.31
7.23
2.30
-4.40
-8.41
-6.53
1.32
11.97
20.75
23.95
20.78
13.45
5.81
1.08
0.09
1.14
1.22
-1.98
-8.48
-15.85
-20.53
-19.90
-14.01
-5.68
1.06
3.22
0.60
-4.14
-7.29
-6.39
-1.82
3.38
5.44
2.23
-5.26
-13.39
-17.77
-15.88
-8.43
1.07
8.17
9.97
6.66
1.15
-2.74
-2.52
1.45
6.21
7.98
4.52
-3.36
-12.02
-16.94
-15.19
-7.08
3.82
12.55
15.31
11.38
3.30
-4.56
-8.57
-7.60
-3.35
1.01
2.99
2.30
0.93
1.51
5.34
11.10
15.47
15.00
8.51
-1.69
-10.77
-13.86
-9.04
1.33
11.64
15.93
11.27
-0.47
-13.50
-21.23
-19.81
-10.15
2.72
12.49
14.98
10.28
2.19
-4.09
-5.03
-0.59
6.03
10.49
9.93
4.60
-2.46
-7.31
-7.40
-3.16
2.47
5.64
4.08
-1.56
-8.15
-11.86
-10.61
-5.26
0.85
4.00
2.32
-2.99
-8.41
-10.23
-6.84
0.11
6.57
8.42
3.97
-4.78
-13.03
-15.89
-11.18
-0.85
9.77
14.99
11.82
1.91
-9.35
-15.71
-13.50
-3.67
8.93
18.11
19.82
14.16
4.91
-2.74
-5.22
-2.33
2.94
6.55
5.96
1.70
-3.03
-4.49
-0.88
6.32
12.92
14.48
9.06
-1.38
-11.74
-16.61
-13.46
-4.07
6.15
11.41
8.69
-0.47
-10.88
-16.63
-14.42
-5.27
6.40
15.16
17.57
13.82
7.04
1.28
-0.85
0.51
2.92
3.49
0.93
-3.68
-7.38
-7.37
-2.99
3.59
8.46
8.09
1.84
-7.40
-14.55
-15.05
-7.78
4.08
14.44
17.53
11.16
-2.04
-15.88
-23.90
-22.71
-13.57
-1.45
7.91
10.98
8.06
2.49
-1.68
-2.12
0.71
4.26
5.76
4.28
1.11
-0.98
0.29
5.03
10.87
14.33
12.72
6.16
-2.31
-8.27
-8.34
-2.38
6.21
12.20
11.49
3.46
-8.41
-18.42
-21.63
-16.50
-5.56
6.04
13.33
13.91
8.78
1.37
-4.46
-6.51
-4.97
-1.89
0.14
-0.21
-2.52
-4.91
-5.42
-3.43
-0.32
1.26
-0.91
-6.90
-14.00
-18.04
-15.69
-6.72
5.35
14.87
17.11
10.95
-0.31
-10.64
-14.49
-9.76
1.15
12.64
19.05
17.53
9.40
-0.79
-7.83
-8.70
-3.84
3.43
9.02
10.46
8.01
4.16
1.79
2.18
4.18
5.02
2.16
-4.71
-13.07
-18.63
-17.79
-9.84
2.14
12.61
16.38
11.44
0.30
-11.35
-17.65
-15.76
-7.28
2.78
9.15
9.28
4.55
-0.92
-3.15
-0.89
3.73
6.70
5.05
-1.06
-8.25
-11.78
-8.59
0.73
11.97
19.56
19.55
11.81
0.11
-9.88
-13.63
-9.95
-1.47
7.07
11.49
10.33
5.38
0.35
-1.53
0.48
4.33
6.51
4.32
-2.19
-10.01
-14.73
-13.12
-5.13
5.78
14.30
16.08
10.06
-0.88
-11.47
-16.84
-15.07
-8.06
-0.21
4.25
3.69
-0.22
-3.79
-3.90
0.00
5.35
8.04
5.13
-3.20
-13.40
-20.32
-20.04
-12.03
0.30
11.47
16.62
14.02
5.76
-3.52
-9.18
-9.12
-4.41
1.48
5.02
4.74
1.93
-0.44
0.22
4.20
9.16
11.45
8.48
0.63
-8.53
-14.02
-12.32
-3.43
8.77
18.40
20.74
14.70
3.30
-7.96
-14.15
-13.41
-7.80
-1.73
0.78
-1.48
-6.39
-9.90
-8.69
-2.36
6.22
12.42
12.63
6.39
-3.15
-11.05
-13.40
-9.58
-2.52
3.10
3.81
-0.60
-6.97
-10.84
-9.30
-2.94
4.34
7.68
4.19
-5.06
-15.45
-21.30
-18.97
-8.88
4.71
16.00
20.60
17.63
9.83
1.82
-2.55
-2.12
1.32
4.36
4.33
0.97
-3.42
-5.32
-2.32
5.28
14.40
20.64
20.67
14.05
3.50
-6.42
-11.68
-10.74
-5.23
1.21
5.14
5.09
2.39
-0.13
0.01
3.09
6.86
7.92
3.95
-4.51
-13.89
-19.40
-17.68
-8.90
3.01
12.20
14.14
7.93
-3.05
-12.99
-16.67
-12.25
-2.03
8.85
15.27
14.86
8.92
1.59
-2.81
-2.13
2.59
7.92
10.35
8.37
3.36
-1.43
-2.97
-0.44
4.30
7.75
7.09
2.04
-4.88
-9.90
-10.28
-6.07
-0.06
3.92
3.48
-0.93
-6.20
-8.61
-6.15
0.06
6.28
8.30
4.05
-4.95
-14.11
-18.28
-14.69
-4.63
7.06
14.57
14.26
6.63
-4.01
-11.96
-13.25
-7.62
1.53
9.31
11.88
8.55
1.70
-4.69
-7.45
-5.74
-1.21
3.15
4.98
3.86
1.53
0.55
2.46
6.59
10.16
9.98
4.61
-4.42
-13.08
-17.04
-14.20
-6.08
2.92
7.84
6.12
-1.06
-9.41
-13.94
-11.85
-3.98
5.58
11.89
11.70
5.23
-4.09
-11.49
-13.41
-9.19
-1.32
6.15
9.83
8.83
4.98
1.62
1.29
4.15
7.73
8.45
3.99
-4.89
-14.30
-19.21
-16.25
-5.98
7.23
17.27
19.56
13.53
2.78
-7.00
-11.30
-9.12
-3.15
2.20
3.64
0.87
-3.51
-5.98
-4.58
-0.19
3.90
4.20
-0.70
-8.84
-15.89
-17.40
-11.50
-0.13
11.81
18.85
17.83
9.60
-1.39
-9.40
-10.30
-3.69
6.86
16.09
19.69
16.67
9.54
2.59
-0.76
0.12
3.01
4.57
2.72
-1.87
-6.18
-6.87
-2.63
4.67
10.75
11.47
5.27
-5.53
-15.82
-20.32
-16.51
-6.12
5.63
12.82
12.05
4.25
-5.79
-12.20
-11.41
-4.11
5.13
10.59
8.75
0.42
-9.79
-16.03
-14.57
-5.90
5.58
14.09
15.67
10.28
1.54
-5.55
-7.43
-3.85
2.34
7.03
7.50
3.85
-1.20
-4.12
-2.95
1.46
5.83
6.50
1.82
-6.57
-14.43
-17.20
-12.85
-3.21
6.84
12.08
9.85
1.67
-7.59
-12.49
-10.11
-1.64
8.22
14.00
12.44
4.35
-5.85
-12.55
-12.09
-4.73
5.54
13.02
13.67
7.19
-2.77
-10.78
-12.73
-8.12
-0.05
6.75
8.87
6.12
1.46
-1.29
0.01
4.33
8.04
7.36
0.93
-9.07
-17.85
-20.63
-15.43
-4.13
8.39
16.85
18.45
14.15
7.85
3.94
4.68
8.82
12.50
11.68
4.63
-6.72
-17.78
-23.60
-21.61
-12.97
-2.01
6.14
8.10
3.74
-3.92
-10.64
-13.18
-10.85
-5.62
-0.71
1.33
0.01
-2.90
-4.62
-3.25
0.99
5.78
8.18
6.65
2.18
-2.16
-3.18
0.33
6.53
11.49
11.57
5.73
-3.61
-11.82
-14.68
-10.83
-2.41
6.23
10.99
10.29
5.68
0.63
-1.66
-0.23
3.09
4.87
2.31
-4.92
-14.15
-20.96
-21.55
-14.85
-3.29
8.26
14.89
14.25
7.57
-0.99
-6.71
-6.94
-2.48
3.09
5.72
3.50
-2.13
-7.16
-7.47
-1.45
8.71
18.13
21.78
17.37
6.67
-5.37
-13.11
-13.14
-5.86
4.80
13.65
16.85
13.71
6.71
-0.16
-3.83
-3.74
-1.84
-1.00
-2.86
-6.65
-9.62
-8.89
-3.68
3.85
9.47
9.30
2.31
-8.75
-18.63
-22.20
-17.31
-5.84
7.28
16.61
18.99
14.80
7.39
1.05
-1.41
0.10
3.38
5.50
4.70
1.40
-2.15
-3.41
-1.32
2.83
5.87
4.68
-1.72
-11.15
-19.00
-20.65
-14.19
-1.62
11.83
20.35
20.70
13.69
3.67
-4.00
-6.01
-2.65
2.67
5.83
4.58
-0.21
-5.25
-7.11
-4.51
0.73
4.73
4.03
-2.18
-11.18
-18.14
-18.78
-11.86
-0.03
11.48
17.51
15.72
7.63
-2.26
-8.87
-9.16
-3.51
4.73
11.12
12.66
9.04
2.60
-3.26
-6.16
-5.99
-4.72
-4.90
-7.70
-11.99
-14.74
-13.08
-6.36
2.99
10.37
11.63
5.49
-5.38
-15.70
-20.20
-16.52
-6.39
5.34
13.21
14.06
8.49
0.21
-6.03
-7.07
-2.84
3.88
9.16
10.50
7.94
4.14
2.45
4.63
9.51
13.49
12.78
6.09
-4.20
-12.97
-15.28
-9.33
2.22
13.49
18.50
14.59
3.80
-8.19
-15.30
-14.23
-6.10
4.56
12.35
13.93
9.49
2.13
-4.10
-6.66
-5.70
-3.45
-2.73
-4.67
-8.13
-10.17
-8.10
-1.36
7.63
14.53
15.36
9.00
-1.80
-11.48
-14.56
-8.78
3.48
16.26
23.04
20.36
9.52
-4.12
-14.20
-16.70
-11.91
-3.75
2.69
4.15
0.70
-4.84
-8.87
-9.30
-6.63
-3.29
-1.87
-3.33
-6.33
-8.03
-5.84
0.79
9.60
16.61
17.89
12.04
1.06
-10.17
-16.26
-14.07
-4.50
7.80
16.73
17.91
10.97
-0.35
-10.21
-13.96
-10.67
-3.32
3.12
4.78
1.27
-4.41
-7.92
-6.36
-0.21
7.01
10.89
8.97
2.05
-6.16
-11.37
-11.14
-6.27
-0.03
3.84
3.37
-0.58
-5.15
-7.30
-5.68
-1.35
3.04
4.89
3.32
-0.30
-3.21
-2.95
1.10
7.08
11.58
11.55
6.14
-2.51
-10.21
-13.09
-9.75
-2.32
4.64
6.71
2.36
-6.10
-13.64
-15.52
-9.97
0.61
11.06
16.31
14.09
6.10
-3.22
-9.11
-9.14
-4.28
1.97
5.77
5.22
1.48
-1.98
-1.68
3.74
12.29
19.56
21.03
14.72
2.54
-10.24
-17.74
-16.34
-6.75
6.24
16.33
18.81
13.11
2.75
-6.71
-10.86
-8.79
-3.23
1.37
1.76
-2.08
-7.03
-8.83
-4.95
3.66
12.85
17.64
15.01
5.78
-5.75
-14.16
-15.82
-10.80
-2.66
3.73
5.21
1.89
-3.10
-5.83
-4.23
0.49
4.62
4.31
-1.91
-11.79
-20.47
-23.06
-17.31
-5.13
8.45
17.80
19.44
13.65
4.03
-4.54
-8.42
-6.85
-1.99
2.69
4.50
3.09
0.44
-0.61
1.57
6.13
10.07
10.02
4.61
-4.21
-12.01
-14.17
-8.78
2.01
12.80
17.77
13.93
2.88
-10.01
-18.40
-18.38
-10.47
0.78
9.53
11.57
6.64
-1.91
-9.14
-11.25
-7.46
-0.15
6.76
9.99
8.59
4.20
-0.22
-2.19
-1.11
1.56
3.46
2.83
-0.20
-3.76
-5.42
-3.80
0.34
4.40
5.39
1.89
-4.87
-11.40
-13.86
-10.26
-1.81
7.50
13.01
11.84
4.67
-4.55
-10.61
-9.93
-2.46
8.12
16.52
18.68
13.93
5.15
-2.93
-6.54
-4.82
-0.05
3.93
4.16
0.39
-5.00
-8.56
-8.01
-3.74
1.45
4.22
2.72
-2.13
-7.12
-8.71
-5.19
2.11
9.43
12.59
9.36
0.87
-8.81
-14.65
-13.37
-5.20
6.13
15.33
18.29
14.25
5.98
-1.78
-5.20
-3.49
0.82
3.66
2.17
-3.32
-9.33
-11.39
-6.97
2.63
12.66
17.42
13.53
2.00
-12.07
-22.15
-23.74
-16.59
-4.68
6.08
11.17
9.50
3.66
-2.10
-4.40
-2.64
1.01
3.37
2.38
-1.41
-5.24
-5.89
-1.74
6.02
13.71
17.15
13.78
4.28
-7.60
-16.68
-18.85
-13.16
-2.24
8.84
15.24
14.63
8.35
0.42
-4.84
-5.26
-1.93
1.73
2.46
-0.68
-5.63
-8.71
-7.03
-0.64
7.31
12.27
10.91
3.21
-7.49
-16.16
-18.86
-14.83
-6.88
0.38
3.12
0.36
-5.42
-10.06
-10.18
-5.37
1.50
5.94
4.60
-2.53
-11.86
-18.04
-16.99
-8.23
4.69
16.06
21.04
18.27
10.34
2.14
-1.95
-0.63
3.81
7.18
6.16
0.45
-6.80
-10.96
-8.66
-0.00
11.34
19.90
21.52
15.51
5.07
-4.37
-8.08
-4.40
4.40
13.55
18.29
16.39
9.19
0.57
-5.31
-6.38
-3.67
-0.35
0.43
-2.37
-7.02
-10.28
-9.56
-4.84
1.06
4.05
1.44
-6.34
-15.45
-20.68
-18.38
-8.52
4.94
16.00
19.64
14.50
3.39
-8.02
-14.33
-12.93
-5.13
4.82
12.25
14.42
11.68
6.66
2.50
0.84
1.11
1.13
-0.99
-5.40
-10.04
-11.84
-8.66
-0.93
8.14
13.98
13.20
5.53
-5.83
-15.71
-19.81
-16.88
-9.34
-1.74
1.90
0.42
-4.08
-7.62
-6.99
-1.75
5.39
10.10
9.04
1.98
-7.89
-15.55
-16.92
-11.05
-0.68
9.28
14.55
13.62
8.43
2.94
0.61
2.36
6.08
8.10
5.54
-1.66
-10.53
-16.54
-16.08
-8.57
3.05
13.65
18.38
15.15
5.72
-5.36
-12.95
-13.95
-8.80
-0.79
5.87
8.54
7.30
4.60
3.31
4.74
7.76
9.50
7.32
0.62
-8.44
-16.02
-18.59
-14.90
-6.83
1.76
6.96
7.07
3.40
-0.53
-1.17
2.88
9.87
15.86
16.95
11.76
2.58
-5.77
-8.48
-3.49
7.04
17.84
23.31
20.45
10.42
-2.15
-11.77
-15.05
-12.27
-6.83
-2.93
-3.07
-6.58
-10.37
-11.16
-7.69
-1.67
3.24
3.86
-0.40
-6.96
-11.44
-10.34
-3.25
6.62
14.14
14.99
8.21
-3.16
-13.61
-18.00
-14.15
-4.08
7.22
14.48
14.81
9.07
0.99
-5.15
-6.99
-5.15
-2.42
-1.62
-3.59
-6.67
-7.90
-5.19
1.00
7.64
10.72
7.62
-0.97
-11.27
-17.99
-17.16
-8.22
5.46
18.00
23.94
20.91
10.85
-1.00
-8.84
-9.36
-3.33
5.08
10.82
10.82
5.57
-1.50
-6.22
-6.26
-2.36
2.35
4.41
2.19
-3.20
-8.67
-11.06
-9.00
-3.60
2.39
6.03
6.05
3.30
0.20
-0.89
0.82
4.05
6.16
4.92
0.13
-6.04
-10.08
-9.29
-3.54
4.33
9.86
9.47
2.55
-7.97
-17.14
-20.53
-16.56
-7.21
3.17
10.23
11.75
8.37
2.93
-1.45
-3.07
-2.40
-1.36
-1.88
-4.39
-7.37
-8.17
-4.67
3.11
12.54
19.35
19.76
12.70
0.62
-11.15
-17.11
-14.27
-3.94
8.84
17.73
18.35
10.46
-2.01
-13.09
-17.96
-15.29
-7.51
0.72
5.39
5.04
1.28
-2.72
-4.22
-2.61
0.50
2.55
1.82
-1.24
-4.22
-4.27
-0.03
7.22
14.08
16.85
13.79
6.28
-1.85
-6.58
-5.92
-1.14
4.15
6.21
3.50
-2.42
-7.74
-8.86
-4.53
3.25
10.38
12.86
9.22
1.38
-6.36
-9.65
-6.69
0.70
7.91
10.17
5.35
-4.64
-14.69
-19.33
-15.84
-5.90
5.35
12.01
10.82
3.04
-6.35
-11.45
-8.84
0.37
11.11
17.21
14.85
4.77
-8.09
-17.25
-18.18
-10.74
0.86
10.30
12.72
7.24
-2.80
-11.71
-14.79
-10.68
-1.99
6.51
10.65
9.15
4.11
-0.54
-1.63
1.29
5.90
8.55
6.91
1.47
-4.66
-7.66
-5.44
0.97
7.86
11.09
8.47
1.23
-6.72
-10.98
-9.19
-2.48
5.29
9.63
8.10
1.56
-6.31
-11.14
-10.54
-5.38
0.81
4.00
2.14
-3.53
-9.20
-10.79
-6.46
2.13
10.67
14.62
11.87
4.00
-4.63
-9.36
-7.89
-1.54
5.52
8.76
5.94
-1.53
-9.46
-13.29
-10.77
-3.34
4.71
8.73
6.52
-0.41
-7.74
-10.90
-7.85
-0.43
6.75
9.02
4.49
-4.68
-13.28
-16.07
-10.64
1.02
13.53
20.85
19.53
10.53
-1.25
-9.54
-9.97
-2.47
8.75
17.49
19.00
12.56
1.85
-7.21
-9.81
-4.99
3.96
11.54
13.28
8.27
-0.51
-8.07
-10.35
-6.51
0.86
7.35
9.28
5.66
-1.45
-8.27
-11.43
-9.75
-4.86
-0.01
1.80
-0.36
-4.97
-8.94
-9.57
-6.17
-0.54
4.03
4.98
1.96
-2.77
-5.77
-4.62
0.39
6.28
9.07
6.37
-0.92
-8.97
-13.14
-10.82
-3.10
5.71
10.54
8.47
0.48
-9.06
-14.89
-13.83
-6.44
3.27
10.11
10.61
4.73
-4.17
-11.22
-12.71
-8.06
-0.03
6.73
8.32
3.81
-4.20
-11.00
-12.47
-7.38
1.89
10.60
14.36
11.55
4.26
-3.06
-6.00
-2.83
4.63
12.18
15.57
12.96
5.77
-2.08
-6.57
-5.69
-0.52
5.48
8.55
6.82
1.39
-4.21
-6.16
-2.60
5.00
12.55
15.42
11.25
1.42
-9.49
-16.11
-15.25
-7.65
2.46
9.73
10.57
5.03
-3.49
-10.14
-11.50
-7.25
-0.17
5.68
7.37
4.72
0.21
-2.75
-2.10
1.55
5.23
5.61
1.34
-5.80
-11.71
-12.26
-6.01
4.73
14.93
19.44
15.94
6.06
-5.52
-13.62
-15.37
-11.43
-5.25
-0.73
0.07
-2.11
-4.64
-4.93
-2.39
1.24
3.00
0.77
-5.03
-11.41
-14.31
-10.94
-1.55
10.38
19.66
22.02
16.37
5.57
-4.89
-9.61
-6.13
3.80
15.12
22.28
22.18
15.62
6.52
-0.52
-3.00
-1.62
0.44
-0.11
-4.48
-10.74
-15.19
-14.53
-8.14
1.16
8.55
9.81
3.78
-6.82
-16.72
-21.03
-17.85
-9.36
-0.48
4.19
2.96
-2.08
-6.51
-6.53
-1.38
6.11
11.23
10.22
2.80
-7.74
-16.06
-17.87
-12.19
-1.85
8.21
13.52
12.38
6.51
-0.29
-4.30
-3.79
0.21
4.90
7.46
6.62
3.23
-0.42
-2.15
-1.16
1.46
3.35
2.36
-2.03
-8.16
-12.79
-12.89
-7.43
1.61
10.08
13.57
10.07
1.03
-9.16
-15.59
-15.41
-9.42
-1.15
5.15
7.12
5.54
3.44
3.96
8.23
14.35
18.45
17.05
9.28
-2.36
-13.06
-18.11
-15.46
-6.74
3.60
10.61
11.47
6.72
-0.32
-5.66
-6.92
-4.56
-1.17
0.20
-1.67
-5.54
-8.32
-7.15
-1.30
6.87
13.17
13.78
7.54
-3.02
-12.91
-17.28
-13.93
-4.71
5.60
12.06
12.28
7.63
2.25
0.36
3.63
10.19
15.69
15.96
9.53
-1.38
-11.86
-16.93
-14.15
-4.91
6.28
14.13
15.34
10.14
1.91
-4.89
-7.24
-5.20
-1.71
-0.47
-3.54
-9.90
-16.07
-18.31
-15.03
-7.89
-1.00
1.62
-1.55
-8.61
-15.16
-16.87
-11.81
-1.57
9.57
17.07
18.47
14.43
8.21
3.52
2.38
4.11
5.94
5.03
0.36
-6.30
-11.29
-11.20
-5.00
5.22
14.98
19.80
17.39
8.95
-1.55
-9.42
-11.75
-8.74
-3.49
0.01
-0.76
-5.32
-10.41
-12.04
-7.85
1.29
11.56
18.29
18.54
12.74
4.25
-2.58
-5.00
-3.26
-0.21
0.58
-2.78
-9.19
-15.14
-16.70
-12.00
-2.33
8.39
15.60
16.53
11.54
3.62
-3.24
-6.23
-5.01
-1.40
1.84
2.87
1.71
0.21
0.57
3.89
9.12
13.36
13.52
7.98
-1.92
-12.32
-18.52
-17.38
-9.08
2.79
12.92
16.95
13.57
5.17
-3.71
-9.06
-9.50
-6.82
-4.66
-5.91
-10.58
-15.76
-17.18
-12.08
-1.25
11.14
19.60
20.46
13.92
3.94
-4.09
-6.39
-2.88
2.98
6.52
4.74
-1.74
-9.00
-12.08
-8.16
1.67
12.70
19.09
17.21
7.64
-4.99
-14.50
-16.54
-10.80
-0.91
7.69
10.80
7.67
0.78
-5.76
-8.87
-8.15
-5.71
-4.58
-6.47
-10.68
-14.28
-14.01
-8.27
1.67
12.13
18.84
19.15
13.29
4.21
-4.08
-8.57
-8.57
-5.82
-3.21
-2.88
-5.01
-7.71
-8.20
-4.65
2.64
11.19
17.58
19.30
16.18
10.45
5.36
3.30
4.30
6.11
5.76
1.53
-5.64
-12.48
-15.15
-11.47
-2.43
8.19
15.65
16.58
10.66
0.69
-8.92
-14.39
-14.30
-9.97
-4.66
-1.44
-1.62
-4.10
-6.12
-5.17
-0.71
5.21
9.03
7.76
1.16
-7.74
-14.01
-13.57
-5.65
6.48
17.16
21.41
17.68
8.63
-0.52
-5.13
-3.78
1.05
4.76
3.62
-2.65
-10.65
-15.26
-12.80
-3.52
8.39
16.92
17.58
9.95
-2.06
-12.42
-16.26
-12.60
-4.60
2.58
4.79
1.47
-4.34
-7.98
-6.39
-0.08
7.05
10.04
5.99
-4.04
-15.42
-22.46
-21.58
-13.31
-1.81
7.50
10.72
7.41
0.33
-6.33
-9.30
-7.92
-4.03
-0.63
0.00
-2.27
-5.43
-6.52
-3.40
3.83
12.73
19.71
21.85
18.57
11.86
5.23
1.68
2.05
4.66
6.32
4.54
-0.96
-7.91
-12.65
-12.19
-6.04
3.36
11.82
15.48
12.91
5.67
-2.40
-7.38
-7.42
-3.59
0.78
2.35
-0.25
-5.35
-9.37
-8.99
-3.34
5.27
12.53
14.54
10.06
1.22
-7.64
-12.30
-10.96
-4.96
2.09
6.48
6.54
3.38
0.09
-0.24
3.40
9.20
13.47
12.74
6.17
-3.76
-12.25
-14.76
-9.56
1.22
12.54
19.17
18.28
10.94
1.22
-6.18
-8.55
-6.56
-3.39
-2.54
-5.37
-10.19
-13.35
-11.77
-5.09
3.66
9.64
9.06
1.41
-9.89
-19.26
-21.88
-16.31
-5.15
6.25
12.59
11.34
3.83
-5.43
-11.21
-10.25
-2.88
7.25
15.14
17.24
13.28
6.24
0.45
-1.19
1.11
4.24
4.43
-0.10
-7.64
-13.76
-14.14
-7.28
4.06
14.14
17.40
11.62
-0.71
-13.68
-21.12
-19.88
-11.41
-0.67
6.72
7.44
2.04
-5.70
-11.08
-11.15
-6.15
0.97
6.32
7.42
4.55
0.30
-2.05
-0.67
3.68
8.01
8.95
4.95
-2.59
-9.89
-12.96
-9.92
-2.28
5.87
10.21
8.73
2.83
-3.55
-6.35
-3.69
2.90
9.46
12.01
8.86
1.71
-5.35
-8.18
-5.12
1.94
8.67
10.65
6.14
-2.83
-11.40
-14.63
-10.31
-0.37
10.15
15.82
13.86
5.75
-3.68
-9.02
-7.35
0.15
8.78
13.14
10.11
0.87
-9.84
-16.32
-15.06
-6.77
4.01
11.50
11.83
5.25
-4.02
-10.21
-9.27
-1.32
9.35
16.45
15.30
5.62
-8.14
-19.13
-21.82
-15.05
-2.65
8.82
13.78
10.58
2.09
-6.36
-10.29
-8.47
-3.24
1.45
2.59
0.07
-3.57
-4.94
-2.10
3.96
9.71
11.22
6.52
-2.88
-12.42
-16.95
-13.48
-3.20
8.89
16.65
15.97
7.22
-4.93
-14.03
-15.36
-8.37
3.18
13.49
17.97
15.46
8.50
1.43
-2.26
-1.83
0.60
1.90
-0.02
-4.57
-8.89
-9.58
-4.93
3.76
12.54
16.76
13.65
3.93
-8.15
-16.89
-17.91
-10.47
1.99
13.67
19.26
16.79
8.35
-1.15
-6.96
-7.16
-3.49
0.07
0.13
-3.89
-9.28
-11.91
-8.96
-1.00
8.00
13.02
10.77
1.96
-9.12
-16.79
-17.20
-10.25
0.46
9.70
13.55
11.20
5.14
-0.72
-3.39
-2.42
0.07
1.13
-1.05
-5.72
-10.10
-10.94
-6.66
1.50
9.85
14.08
11.49
2.73
-8.40
-16.55
-17.49
-10.30
1.95
13.68
19.44
16.81
7.42
-3.92
-11.91
-13.55
-9.41
-2.98
1.67
2.26
-0.53
-3.96
-5.13
-2.84
1.73
5.89
7.22
5.21
1.45
-1.24
-0.60
3.53
8.93
12.21
10.75
4.54
-3.53
-9.02
-8.48
-1.47
8.98
17.81
20.67
16.29
7.04
-2.53
-8.18
-8.46
-5.05
-1.58
-1.21
-4.69
-9.97
-13.68
-13.30
-8.87
-3.09
0.29
-1.25
-7.35
-14.71
-18.94
-16.86
-8.51
2.84
12.24
15.62
11.85
3.45
-4.72
-8.12
-4.89
3.01
10.86
13.71
9.26
-0.76
-11.42
-17.17
-14.92
-5.75
5.83
14.31
16.28
11.97
4.87
-0.62
-1.74
1.18
5.34
7.33
5.50
0.86
-3.52
-4.57
-1.36
4.18
8.21
7.36
0.93
-8.27
-15.29
-15.81
-8.68
3.05
13.77
18.16
14.16
3.98
-7.12
-13.75
-13.22
-6.78
1.37
6.57
6.34
1.41
-4.91
-8.96
-8.86
-5.60
-2.15
-1.57
-4.87
-10.27
-14.10
-12.91
-5.61
5.70
16.60
22.52
21.02
12.92
1.85
-7.61
-12.11
-11.01
-6.41
-1.62
0.74
0.21
-1.39
-1.33
2.14
8.35
14.26
16.21
12.31
3.92
-4.76
-8.99
-6.19
2.32
11.99
17.56
16.04
8.33
-1.43
-8.37
-9.72
-6.30
-1.89
-0.65
-4.60
-11.99
-18.40
-19.26
-12.63
-0.61
11.43
17.75
15.22
5.27
-6.97
-15.44
-16.40
-10.34
-1.50
4.93
5.72
1.52
-3.93
-6.17
-2.96
4.27
11.17
12.95
7.32
-3.99
-15.91
-22.62
-20.55
-10.34
3.53
15.11
19.96
17.48
10.71
4.35
1.82
3.41
6.38
6.96
2.99
-4.49
-11.74
-14.51
-10.68
-1.62
8.44
14.82
15.03
10.10
3.75
0.21
1.51
6.34
10.81
10.92
4.91
-5.39
-15.50
-20.63
-18.32
-9.81
0.73
8.29
9.69
5.12
-2.33
-8.46
-10.43
-8.19
-4.26
-2.01
-3.52
-8.18
-13.01
-14.24
-9.69
-0.06
11.20
19.58
21.84
17.62
9.55
1.69
-2.47
-1.87
1.78
5.36
6.13
3.60
-0.38
-2.75
-1.35
3.55
9.14
11.57
8.23
-0.39
-10.62
-17.33
-16.65
-8.26
4.30
15.28
19.74
16.22
7.19
-2.30
-7.75
-7.49
-3.50
0.27
0.43
-3.51
-8.90
-11.68
-9.06
-1.50
7.29
12.29
10.09
1.00
-11.01
-20.30
-22.65
-17.52
-8.18
0.31
3.93
1.96
-2.99
-6.74
-6.30
-1.73
4.05
6.95
4.41
-2.98
-11.51
-16.35
-14.17
-5.03
7.52
18.30
23.03
20.49
12.85
4.32
-1.28
-2.57
-1.10
-0.17
-2.51
-8.40
-15.27
-19.08
-16.80
-8.30
3.26
12.93
16.62
13.19
5.02
-3.43
-8.08
-7.38
-2.91
1.89
3.94
2.36
-1.15
-3.47
-2.11
3.20
10.16
15.13
15.07
9.40
0.41
-7.77
-11.38
-8.97
-2.14
5.32
9.71
9.42
5.73
1.87
0.86
3.56
8.04
10.70
8.52
1.02
-9.21
-17.81
-21.04
-17.86
-10.47
-3.10
0.42
-1.19
-5.94
-9.74
-8.79
-1.94
8.62
18.46
23.36
21.56
14.58
6.25
0.44
-1.03
0.84
3.16
3.08
-0.29
-5.42
-9.20
-8.84
-3.68
4.46
12.21
16.46
16.01
12.04
7.21
3.98
3.27
3.96
3.77
0.81
-5.05
-12.01
-17.10
-17.85
-13.79
-6.72
-0.00
3.26
2.04
-2.15
-6.02
-6.42
-2.24
4.77
10.97
12.86
9.33
2.20
-4.66
-7.58
-5.28
0.35
5.36
5.98
0.89
-7.97
-16.45
-20.60
-18.73
-12.28
-4.92
-0.29
0.00
-2.89
-5.89
-6.04
-2.36
3.47
8.06
8.13
2.59
-6.81
-16.11
-21.22
-19.89
-12.92
-3.68
3.71
6.55
5.03
1.85
0.58
3.41
9.70
16.26
19.15
15.96
7.42
-2.86
-10.25
-11.60
-6.96
0.47
6.22
7.13
3.13
-2.78
-6.43
-5.05
1.15
8.98
14.35
14.73
10.66
5.49
3.20
6.05
13.02
20.32
23.51
20.02
10.69
-0.70
-9.44
-12.48
-10.09
-5.47
-2.84
-4.88
-11.03
-17.81
-20.92
-17.78
-9.19
1.08
8.30
9.56
5.40
-0.58
-3.79
-1.43
5.94
14.64
20.01
18.95
11.74
1.75
-6.48
-9.68
-7.57
-2.79
0.76
0.40
-3.74
-8.86
-11.20
-8.39
-1.09
7.34
12.79
12.71
7.63
0.83
-3.68
-3.63
0.24
4.62
5.62
1.20
-7.49
-16.71
-22.06
-21.14
-14.91
-7.19
-2.73
-4.44
-11.75
-20.80
-26.52
-25.41
-17.44
-6.02
3.94
8.74
7.90
4.19
1.82
3.95
10.75
19.34
25.60
26.55
22.10
15.02
9.29
7.73
10.44
14.75
16.86
14.16
6.77
-2.34
-8.92
-9.86
-4.99
2.73
8.77
9.54
4.36
-4.15
-11.61
-14.43
-11.78
-6.14
-1.70
-1.72
-6.55
-13.35
-17.78
-16.65
-9.86
-0.54
6.77
8.75
5.16
-1.08
-5.68
-5.52
-0.40
6.84
12.00
12.01
6.67
-1.14
-7.03
-7.50
-1.89
7.16
15.10
17.84
13.95
5.45
-3.37
-8.36
-7.79
-3.24
1.44
2.55
-1.17
-7.73
-13.03
-13.46
-8.02
0.92
9.01
12.58
10.67
5.57
1.18
0.53
3.87
8.38
10.05
6.28
-2.47
-12.59
-19.34
-19.34
-12.46
-1.88
7.62
12.11
10.42
4.38
-2.43
-6.74
-7.38
-5.63
-4.24
-5.56
-10.04
-15.82
-19.75
-19.36
-14.27
-6.63
-0.03
2.47
-0.06
-5.98
-12.12
-15.62
-15.48
-13.15
-11.55
-13.03
-17.96
-24.25
-28.62
-28.58
-24.01
-17.51
-12.90
-13.22
-19.00
-28.07
-36.94
-42.77
-44.93
-45.12
-46.15
-49.98
-56.49
-63.40
-67.68
-67.49
-63.40
-58.41
-56.61
-61.06
-71.91
-86.02
-98.02
-102.55
-96.34
-79.06
-52.83
-20.99
13.34
47.94
81.81
115.01
148.20
182.31
218.46
257.50
299.08
341.26
380.25
410.85
427.24
425.02
400.61
352.53
282.93
198.29
108.69
25.18
-44.09
-95.53
-131.55
-159.19
-186.55
-219.24
-258.62
-302.16
-345.49
-384.60
-416.87
-441.29
-457.93
-467.27
-469.38
-464.52
-451.87
-429.84
-396.79
-351.04
-291.38
-217.17
-128.64
-27.52
81.95
192.40
293.90
375.51
428.95
450.98
444.74
416.52
372.19
315.37
247.94
172.66
95.67
27.58
-19.15
-34.20
-14.33
34.42
98.44
161.36
209.81
237.41
246.38
244.36
240.19
239.65
243.09
246.29
243.29
230.38
205.91
169.66
121.16
59.11
-17.55
-107.43
-204.40
-298.02
-376.48
-430.71
-457.11
-457.55
-437.52
-401.99
-354.20
-296.38
-231.63
-164.80
-101.91
-47.54
-2.99
34.18
68.40
103.12
138.92
173.73
204.27
228.42
246.36
259.55
268.80
272.79
267.85
249.07
213.59
160.32
91.84
15.42
-58.00
-115.70
-146.86
-146.57
-118.36
-73.64
-28.05
4.72
18.05
13.83
0.74
-10.88
-12.96
-2.46
19.00
47.21
78.65
111.71
145.95
180.66
213.57
240.74
258.16
263.46
256.69
240.70
220.99
201.60
184.34
168.40
150.96
128.73
99.66
63.41
22.39
-19.11
-56.76
-87.28
-109.53
-124.60
-135.03
-142.39
-149.28
-158.49
-172.79
-194.40
-223.39
-256.86
-289.06
-313.33
-321.87
-311.96
-286.46
-252.21
-216.89
-185.70
-160.01
-138.36
-118.63
-99.82
-82.93
-69.35
-59.62
-52.89
-47.49
-42.04
-36.29
-31.20
-28.50
-29.94
-36.34
-47.28
-61.38
-77.01
-93.01
-109.15
-126.06
-144.71
-165.97
-189.92
-215.68
-241.59
-265.60
-285.81
-300.74
-309.44
-312.06
-308.38
-298.07
-280.74
-256.21
-224.73
-187.15
-144.91
-99.84
-53.87
-8.63
34.55
74.75
111.36
143.98
172.31
196.03
214.80
228.23
236.03
237.85
233.40
222.50
205.25
182.07
153.77
121.54
86.86
51.40
16.75
-15.75
-45.09
-70.55
-91.68
-108.18
-119.85
-126.72
-128.85
-126.57
-120.45
-111.25
-99.85
-87.03
-73.26
-58.65
-42.99
-25.89
-7.11
13.31
34.87
56.81
78.34
98.92
118.59
138.00
158.39
181.03
206.61
234.57
262.94
288.66
308.43
319.60
320.87
312.49
296.02
273.93
249.18
224.76
203.15
185.68
172.17
160.92
149.46
135.72
119.09
100.71
82.84
67.58
55.79
46.84
39.20
31.58
23.77
16.61
11.26
8.25
6.94
5.86
3.67
-0.08
-4.56
-8.19
-9.52
-8.06
-4.56
-0.54
2.60
4.28
5.01
6.14
9.01
14.00
20.15
25.41
27.63
25.76
20.72
15.15
12.06
13.30
18.37
24.87
29.99
32.39
33.09
34.98
41.22
53.47
71.37
93.10
116.56
140.31
163.81
186.90
208.87
228.02
241.91
248.06
244.85
231.92
210.27
181.94
149.41
115.18
81.08
48.08
16.31
-14.60
-45.00
-74.83
-103.31
-128.97
-150.14
-165.54
-174.81
-178.67
-178.67
-176.53
-173.51
-169.77
-164.44
-156.30
-144.56
-129.55
-112.88
-97.16
-85.31
-79.97
-83.26
-96.06
-117.08
-142.36
-165.52
-179.42
-178.89
-162.59
-134.59
-102.74
-75.16
-56.79
-47.89
-45.03
-43.97
-42.19
-40.22
-40.64
-45.83
-55.99
-68.44
-78.36
-80.54
-71.62
-51.69
-25.48
-0.99
12.72
8.91
-14.15
-52.59
-98.09
-140.34
-169.52
-178.31
-163.33
-126.21
-73.98
-17.94
29.14
57.18
62.28
48.02
23.59
-0.39
-15.92
-19.92
-13.40
0.76
20.05
42.81
67.33
90.98
110.38
122.55
126.24
122.75
115.36
107.95
103.47
102.83
105.01
107.74
108.61
106.28
100.97
94.17
87.68
82.74
79.40
76.46
72.11
64.12
50.98
32.28
8.77
-18.38
-47.83
-78.48
-109.61
-140.19
-169.49
-196.53
-220.81
-240.76
-254.77
-261.37
-259.66
-249.40
-231.10
-205.90
-175.27
-140.86
-103.58
-65.58
-28.93
4.65
33.90
58.07
76.79
90.21
98.79
103.33
104.51
103.14
100.00
95.74
90.83
85.60
80.25
74.91
69.74
64.72
59.88
55.20
50.85
46.73
42.78
39.01
35.47
32.23
29.23
26.43
23.79
21.24
18.72
16.23
13.88
11.74
9.90
8.34
6.98
5.71
4.40
2.95
1.41
-0.05
-1.24
-1.96
-2.21
-2.16
-2.12
-2.45
-3.33
-4.67
-6.04
-6.92
-6.86
-5.82
-4.21
-2.80
-2.40
-3.40
-5.54
-7.96
-9.53
-9.38
-7.40
-4.37
-1.71
-0.79
-2.33
-5.83
-9.84
-12.51
-12.54
-9.87
-5.67
-1.73
0.29
-0.33
-3.34
-8.07
-13.72
-19.06
-21.83
-18.79
-7.17
13.23
38.47
61.14
73.32
70.47
53.90
30.19
7.76
-7.27
-13.55
-13.96
-12.80
-12.78
-13.84
-14.13
-12.02
-7.69
-3.05
-0.36
-0.89
-4.24
-8.62
-11.75
-12.18
-9.80
-5.78
-1.92
0.18
-0.14
-2.40
-5.31
-7.39
-7.74
-6.30
-3.80
-1.40
0.01
0.01
-1.12
-2.63
-3.74
-3.96
-3.28
-2.08
-0.90
-0.18
-0.09
-0.50
-1.10
-1.54
-1.64
-1.39
-0.94
-0.47
-0.12
0.07
0.12
0.12
0.14
0.20
0.30
0.42
0.53
0.64
0.74
0.85
0.95
1.06
1.18
1.34
1.49
1.67
1.84
2.00
2.15
2.30
2.48
2.69
2.98
3.35
3.78
4.26
4.75
5.26
5.79
6.38
7.04
7.82
8.72
9.70
10.74
11.79
12.83
13.90
15.03
16.30
17.76
19.44
21.24
23.05
24.77
26.35
27.84
29.46
31.33
33.61
36.29
39.17
41.83
43.90
45.02
45.04
44.00
41.87
38.63
34.13
28.04
19.98
9.83
-2.19
-15.38
-28.36
-40.21
-50.10
-57.60
-62.82
-66.21
-68.31
-69.67
-70.98
-72.42
-74.12
-75.54
-75.42
-72.10
-64.28
-51.82
-36.21
-20.11
-6.30
3.26
8.20
9.65
9.24
8.32
7.47
6.70
5.97
5.49
5.67
6.82
8.83
11.02
12.48
12.62
11.22
8.80
6.31
4.63
4.39
5.70
8.03
10.23
10.82
8.47
2.73
-5.58
-14.47
-21.43
-24.50
-23.15
-18.55
-12.92
-8.57
-6.83
-7.72
-10.15
-12.75
-14.60
-15.50
-15.85
-16.19
-16.69
-17.26
-17.94
-19.35
-22.35
-27.58
-34.29
-40.05
-41.51
-36.04
-23.35
-6.01
11.48
24.77
31.58
32.42
29.70
26.12
23.22
21.02
18.69
15.67
12.18
9.07
7.11
6.44
6.48
6.26
4.88
2.03
-1.91
-6.16
-9.86
-12.55
-14.26
-15.54
-17.11
-19.57
-23.13
-27.52
-32.19
-36.58
-40.39
-43.65
-46.70
-49.98
-53.85
-58.41
-63.54
-68.83
-73.95
-78.62
-82.54
-85.54
-87.37
-87.68
-85.94
-81.73
-74.37
-63.50
-49.13
-31.63
-11.75
9.62
31.35
52.36
71.04
86.73
99.00
107.67
112.85
114.79
114.07
111.30
107.09
102.49
97.67
92.85
88.20
83.82
79.64
75.68
71.89
68.09
64.09
59.83
55.17
49.98
44.60
38.64
32.13
25.23
18.17
11.26
4.82
-0.82
-5.42
-8.84
-11.17
-12.41
-12.75
-12.50
-12.00
-11.63
-11.71
-12.48
-14.08
-16.61
-19.89
-23.72
-27.87
-32.04
-35.97
-39.44
-42.25
-44.31
-45.82
-46.53
-46.56
-46.33
-46.37
-47.07
-48.61
-50.94
-54.02
-57.86
-61.87
-65.83
-69.80
-73.94
-78.31
-82.82
-87.33
-91.72
-96.16
-99.79
-102.42
-104.50
-106.85
-109.92
-113.64
-117.71
-121.84
-126.23
-129.01
-129.69
-129.45
-129.88
-131.40
-132.57
-130.82
-122.49
-109.99
-90.72
-64.25
-33.47
-2.63
25.76
51.99
77.53
104.50
133.16
168.51
211.76
258.71
302.96
340.81
372.80
401.44
430.81
463.56
508.65
569.90
641.33
709.74
761.80
788.35
784.95
753.87
655.32
485.69
279.78
85.95
-66.36
-172.20
-234.47
-268.65
-283.12
-284.41
-272.35
-249.92
-228.34
-221.14
-234.42
-263.64
-297.83
-319.61
-315.77
-286.33
-237.22
-179.40
-130.98
-106.63
-112.32
-146.49
-201.29
-267.18
-331.04
-370.89
-371.61
-334.78
-275.60
-211.07
-151.54
-99.59
-55.49
-17.75
14.81
39.75
53.67
56.75
53.52
50.08
51.30
58.43
70.45
85.26
98.69
106.31
106.90
102.21
95.46
89.12
83.50
77.05
67.60
52.31
29.94
1.78
-28.48
-56.05
-77.17
-90.13
-95.63
-96.01
-94.62
-94.54
-97.60
-104.01
-112.43
-120.24
-123.77
-118.94
-102.85
-75.54
-40.60
-4.40
26.47
47.95
59.80
64.96
67.26
68.90
69.49
67.18
60.72
51.15
41.80
36.57
37.44
43.72
52.46
60.39
64.77
63.98
56.74
41.57
17.77
-12.89
-44.97
-70.77
-83.84
-82.53
-71.04
-56.98
-46.53
-40.58
-34.88
-23.89
-5.94
13.76
25.20
19.16
-7.26
-48.58
-93.34
-129.02
-146.77
-143.73
-122.48
-88.88
-49.92
-12.06
19.59
42.07
54.49
57.96
54.90
48.04
39.71
31.59
24.94
20.83
20.12
23.15
29.37
37.51
46.02
53.93
60.81
66.86
72.17
76.36
78.68
78.35
75.56
72.17
71.36
76.21
87.58
102.71
115.26
117.75
104.64
75.48
35.30
-7.03
-41.75
-61.64
-63.38
-47.92
-19.44
15.55
49.25
73.44
81.49
70.90
44.84
11.87
-17.82
-37.13
-45.64
-48.30
-51.96
-60.98
-72.45
-80.32
-77.16
-59.04
-28.30
6.82
38.59
63.93
85.04
105.74
128.12
151.33
172.65
187.89
192.15
184.00
165.89
142.49
117.23
91.25
63.47
31.29
-8.04
-58.77
-122.33
-197.37
-273.87
-343.08
-398.48
-436.31
-455.58
-441.74
-390.53
-307.66
-206.62
-102.12
-5.68
76.36
141.64
188.45
219.87
235.15
234.33
219.70
195.31
164.32
127.79
85.58
39.52
-6.73
-51.08
-91.02
-123.98
-147.77
-161.51
-165.71
-162.19
-153.50
-142.50
-133.65
-130.24
-133.36
-141.24
-149.66
-152.47
-143.53
-119.09
-80.32
-34.28
9.39
42.49
60.94
65.68
61.11
52.35
43.00
34.30
25.58
16.25
6.83
-1.66
-8.56
-14.11
-19.42
-25.48
-32.49
-39.34
-44.44
-44.89
-38.85
-25.88
-6.79
16.76
43.04
70.67
98.62
125.51
151.11
175.65
199.33
221.15
238.01
244.96
236.79
210.76
169.01
118.89
70.38
32.54
10.15
2.53
4.85
11.01
16.18
18.43
18.37
17.45
17.01
17.65
19.09
20.51
20.91
18.57
12.14
0.74
-16.30
-39.25
-67.52
-98.44
-126.66
-145.09
-147.70
-132.74
-104.72
-73.30
-49.06
-38.33
-40.20
-47.51
-51.05
-44.98
-29.55
-9.81
8.26
21.43
30.30
37.57
45.51
53.90
60.45
62.71
59.79
53.32
46.58
43.08
44.52
50.35
57.86
63.45
64.14
58.89
49.20
37.67
26.89
18.26
11.36
4.25
-5.38
-19.30
-38.16
-61.49
-87.74
-113.73
-135.69
-149.17
-150.43
-138.31
-115.55
-88.19
-63.53
-47.00
-40.41
-41.62
-46.25
-50.07
-50.56
-47.15
-40.29
-30.30
-16.68
1.29
23.86
49.95
77.33
103.31
124.87
139.89
147.24
146.86
139.43
126.19
108.50
86.93
63.61
39.85
16.63
-5.15
-24.47
-40.16
-50.89
-55.87
-54.71
-47.36
-34.47
-16.49
6.26
32.94
61.33
87.37
105.50
110.86
101.64
80.01
51.84
24.38
3.50
-8.37
-12.44
-12.15
-11.06
-11.52
-14.80
-21.56
-32.87
-50.04
-73.62
-101.04
-127.56
-146.49
-151.67
-140.82
-116.72
-86.65
-59.35
-41.36
-34.77
-37.29
-44.05
-50.82
-55.84
-59.61
-63.80
-69.49
-76.36
-83.09
-88.31
-91.25
-92.00
-91.45
-89.50
-85.65
-78.74
-67.50
-51.08
-29.61
-4.32
22.64
48.24
70.42
87.95
100.61
108.92
113.69
115.73
115.55
113.32
109.16
103.42
96.59
89.32
82.31
75.99
70.60
66.05
61.89
57.74
53.42
48.93
44.44
40.62
37.35
34.71
32.65
30.96
29.44
27.91
26.44
25.18
24.47
24.49
25.39
27.01
28.75
30.16
30.22
28.35
24.53
19.34
13.54
7.95
3.03
-1.21
-5.12
-9.06
-13.06
-16.60
-18.72
-18.44
-15.23
-9.45
-2.25
4.77
10.41
14.07
16.21
18.07
20.95
25.86
33.40
43.82
55.91
68.81
79.50
83.53
76.79
57.55
28.09
-5.59
-36.04
-57.32
-67.16
-67.52
-62.60
-56.22
-50.14
-44.15
-37.22
-28.99
-20.25
-12.29
-6.06
-1.41
2.92
8.47
16.21
25.75
35.59
43.57
47.85
47.36
42.25
33.73
23.39
12.59
2.22
-7.70
-17.56
-27.63
-37.73
-47.09
-54.59
-59.20
-60.52
-59.25
-56.41
-53.50
-51.81
-51.88
-53.38
-55.27
-56.38
-55.98
-54.13
-51.75
-50.19
-50.66
-53.55
-58.27
-63.43
-67.61
-69.72
-69.66
-68.24
-66.79
-66.82
-69.76
-76.56
-87.08
-99.48
-109.86
-113.10
-104.92
-84.02
-53.65
-20.96
5.82
21.05
23.93
18.54
11.47
8.19
11.03
18.55
27.46
34.86
40.11
44.79
51.36
61.87
76.63
94.88
114.31
131.60
142.01
141.78
128.18
100.69
63.39
22.33
-13.75
-36.41
-40.80
-27.43
-2.43
24.32
42.80
46.73
35.35
13.51
-11.12
-31.56
-43.99
-48.47
-47.53
-43.94
-38.58
-30.94
-20.35
-7.53
4.89
13.69
16.64
14.04
8.73
4.81
5.38
10.96
19.80
28.50
34.05
34.88
31.51
26.20
21.77
20.53
23.48
30.80
41.44
52.89
61.12
61.27
49.26
23.73
-12.98
-55.98
-99.47
-139.30
-173.82
-202.85
-225.92
-240.93
-244.41
-230.66
-198.42
-150.68
-93.73
-34.71
20.12
65.82
98.14
113.73
111.55
94.19
69.41
48.63
43.33
60.82
101.20
157.06
215.64
262.12
283.00
269.46
219.53
139.29
42.00
-54.86
-134.22
-184.50
-202.83
-194.92
-171.56
-144.24
-120.82
-103.83
-91.31
-78.61
-61.11
-36.15
-4.18
31.46
64.51
87.01
91.10
71.91
30.44
-25.29
-81.77
-124.08
-141.13
-129.90
-96.18
-51.97
-10.32
19.35
33.43
33.14
21.58
0.98
-28.02
-65.01
-107.76
-151.58
-190.17
-218.12
-232.87
-235.21
-228.34
-215.54
-198.36
-176.32
-147.82
-111.66
-68.09
-19.00
32.90
85.10
135.89
183.88
227.36
263.76
290.41
305.82
310.80
308.15
301.07
291.11
277.24
256.94
228.51
193.05
154.69
118.98
90.70
72.55
65.10
67.18
76.32
88.68
99.16
102.34
94.27
74.09
44.62
11.20
-20.29
-45.50
-62.77
-73.02
-79.03
-84.53
-93.06
-107.09
-127.00
-150.47
-172.93
-189.10
-194.94
-189.62
-175.92
-159.20
-145.29
-138.56
-140.48
-149.36
-161.33
-171.18
-174.28
-167.72
-150.28
-122.01
-83.67
-36.71
16.31
71.10
122.77
164.82
190.78
196.70
183.58
157.30
125.95
95.98
69.22
45.37
20.82
-8.17
-42.43
-78.23
-108.04
-123.78
-119.86
-94.54
-45.32
26.73
116.98
217.96
321.43
420.62
511.41
592.05
661.97
725.48
782.95
829.32
856.08
856.41
829.07
778.95
714.40
609.24
455.00
262.16
58.34
-125.92
-270.65
-370.51
-430.92
-462.48
-476.20
-475.23
-460.87
-435.07
-401.90
-366.15
-332.54
-304.81
-285.57
-276.18
-272.48
-270.79
-269.73
-270.94
-276.98
-289.04
-307.24
-331.10
-359.92
-389.82
-416.08
-433.74
-441.74
-435.24
-411.34
-371.07
-319.74
-265.31
-214.30
-170.21
-133.39
-102.06
-73.22
-45.51
-19.16
5.14
28.02
49.18
70.64
94.66
122.38
153.94
187.82
221.41
251.77
275.85
290.74
294.78
287.90
272.20
252.23
233.12
219.07
211.95
210.87
212.99
215.35
215.74
213.04
206.94
197.01
182.62
163.45
140.10
114.46
89.43
67.84
51.24
39.49
30.79
22.58
12.56
-0.52
-16.50
-34.08
-51.70
-68.44
-84.75
-102.67
-125.24
-155.13
-193.07
-236.47
-279.38
-313.82
-332.00
-328.56
-302.09
-255.36
-194.52
-127.74
-63.50
-9.23
29.97
52.14
58.67
53.68
42.73
31.08
22.34
17.96
17.60
20.14
24.55
30.09
36.39
43.07
49.50
54.98
58.93
61.08
61.48
60.39
58.03
54.48
49.73
43.82
36.92
29.42
21.80
14.64
8.50
3.87
1.06
0.09
0.56
1.71
2.60
2.31
0.47
-2.68
-6.25
-9.03
-9.91
-8.39
-4.84
-0.36
3.45
5.30
4.62
1.80
-1.86
-4.71
-5.50
-3.89
-0.72
2.29
3.35
1.27
-4.02
-11.41
-19.11
-25.74
-30.86
-35.20
-40.24
-47.45
-57.89
-72.13
-90.24
-111.72
-134.90
-156.52
-172.03
-177.12
-170.24
-155.00
-140.19
-136.87
-152.71
-187.61
-232.06
-269.73
-283.43
-261.49
-201.97
-112.11
-4.48
107.78
213.42
303.19
369.29
405.68
409.57
382.32
330.02
262.76
191.86
126.00
68.76
19.29
-24.04
-60.44
-85.62
-93.23
-77.35
-35.52
28.85
104.82
173.45
215.72
223.92
204.70
171.85
137.30
106.54
79.16
52.49
25.35
-0.25
-20.41
-32.42
-36.70
-36.10
-34.27
-34.44
-38.91
-48.51
-63.21
-82.58
-106.32
-133.83
-163.14
-188.07
-202.73
-203.55
-190.20
-165.00
-131.25
-92.45
-52.08
-13.86
18.13
40.13
48.81
43.02
25.03
0.49
-23.08
-38.59
-41.38
-32.23
-17.34
-5.20
-2.09
-8.67
-20.82
-32.06
-36.74
-32.37
-19.83
-1.84
19.44
43.08
68.64
95.92
124.42
152.86
179.04
199.33
209.29
204.47
182.29
143.75
94.21
42.23
-3.17
-35.81
-54.30
-61.52
-62.45
-61.18
-59.33
-56.43
-51.55
-44.81
-37.84
-32.91
-31.43
-33.11
-36.14
-38.18
-37.42
-33.56
-27.72
-21.81
-17.63
-16.04
-16.66
-18.29
-19.32
-18.59
-15.89
-11.86
-7.60
-4.12
-1.89
-0.58
0.46
2.10
4.83
8.47
12.31
15.25
16.38
15.27
12.23
8.14
4.14
1.24
0.01
0.51
2.18
4.25
5.85
6.34
5.33
2.61
-2.03
-8.78
-17.61
-28.42
-40.70
-53.57
-66.12
-77.58
-87.38
-94.73
-98.34
-96.35
-87.24
-70.73
-48.44
-23.54
0.45
21.05
37.61
50.88
61.89
70.81
76.80
78.58
75.71
69.36
62.01
56.24
53.50
53.45
54.38
54.32
51.68
45.76
36.72
25.35
13.10
2.06
-5.31
-6.73
-1.02
11.12
27.21
43.75
57.60
67.11
72.63
76.14
80.14
86.60
96.12
108.12
121.07
133.63
145.01
155.19
165.20
176.82
192.19
212.88
239.03
268.71
297.65
319.90
329.04
319.98
290.36
241.20
176.42
101.62
22.70
-55.17
-127.61
-190.67
-240.50
-273.63
-288.22
-285.28
-269.37
-247.80
-228.63
-218.04
-218.55
-228.57
-243.53
-258.05
-267.82
-270.65
-266.28
-255.76
-240.36
-221.37
-200.12
-178.24
-157.80
-140.99
-129.77
-125.08
-126.39
-131.60
-137.42
-140.30
-137.52
-128.20
-113.44
-95.70
-77.71
-61.44
-47.77
-36.67
-27.78
-20.61
-14.39
-7.47
3.01
20.86
49.74
91.56
144.91
204.37
261.32
306.05
330.07
328.73
302.08
254.04
190.81
119.69
48.62
-13.85
-59.32
-81.83
-79.62
-56.34
-19.99
19.71
55.05
82.68
103.77
121.82
139.02
155.62
170.27
180.93
186.09
185.43
179.95
171.38
161.82
151.21
141.35
136.81
143.04
162.56
192.39
224.73
249.85
260.18
247.95
213.15
163.80
111.37
64.04
23.59
-12.62
-48.15
-84.85
-131.21
-191.71
-264.07
-341.13
-416.29
-486.26
-549.84
-605.72
-652.04
-698.21
-750.81
-809.10
-866.73
-918.49
-963.69
-1004.52
-1043.71
-1012.65
-880.36
-668.94
-436.11
-228.13
-59.06
78.10
194.47
296.28
383.41
441.35
460.66
445.00
408.88
368.08
332.79
306.86
290.24
281.40
269.69
248.70
219.82
189.99
166.01
151.44
146.89
151.64
164.34
177.85
186.65
189.75
188.77
184.92
178.01
167.96
156.66
148.28
145.10
144.42
144.90
143.73
136.54
119.69
93.54
64.04
41.18
33.24
43.50
68.54
97.91
117.77
115.95
86.35
30.64
-42.96
-123.26
-199.16
-261.13
-302.90
-321.54
-317.58
-295.00
-260.44
-221.22
-183.15
-148.58
-115.94
-81.95
-43.91
-1.53
43.02
86.34
125.68
159.84
189.28
215.40
239.53
263.19
288.18
316.81
351.11
391.31
434.35
473.35
499.36
504.35
484.76
443.27
387.91
328.52
272.68
223.33
179.33
138.67
101.57
71.45
52.95
48.30
54.70
64.47
68.11
58.60
34.58
0.69
-35.11
-65.63
-87.80
-103.57
-118.27
-137.59
-164.91
-200.04
-240.35
-282.76
-325.27
-367.35
-408.83
-448.50
-483.27
-508.72
-520.43
-515.59
-493.86
-457.38
-410.09
-356.84
-302.39
-250.60
-203.59
-161.50
-122.80
-85.13
-46.47
-5.86
36.33
78.55
118.35
152.61
177.84
190.88
190.03
175.81
150.84
119.06
84.79
51.66
22.34
-1.45
-18.96
-30.30
-36.42
-38.86
-39.03
-37.39
-33.12
-24.42
-9.44
12.72
41.49
75.10
111.45
148.89
186.51
223.97
261.09
297.37
331.73
362.37
386.63
401.50
404.44
394.47
373.12
344.39
313.72
286.08
264.35
248.77
237.53
228.20
218.83
208.28
195.90
180.96
162.69
140.80
116.13
90.91
68.19
50.78
40.22
35.96
35.35
34.29
28.53
15.06
-6.70
-34.76
-65.32
-94.14
-118.01
-135.70
-147.95
-156.59
-163.20
-167.99
-169.26
-163.90
-148.52
-121.16
-82.56
-36.67
10.18
50.84
79.35
92.37
89.39
72.45
45.17
11.89
-23.14
-56.45
-86.11
-112.29
-136.82
-161.70
-186.93
-209.10
-221.58
-216.94
-190.47
-143.01
-81.82
-18.40
34.90
68.71
78.63
65.12
32.26
-13.70
-65.36
-115.08
-156.18
-184.76
-201.00
-209.20
-215.91
-226.74
-243.85
-264.93
-284.47
-296.60
-297.86
-288.61
-272.49
-254.79
-240.49
-233.16
-234.48
-244.14
-259.83
-277.56
-292.64
-301.15
-301.59
-295.10
-284.58
-272.63
-259.87
-244.46
-223.43
-194.65
-158.06
-115.37
-68.59
-19.16
31.64
81.01
123.50
151.85
160.15
147.54
120.16
89.60
68.48
65.50
82.63
115.91
158.56
204.56
249.91
291.51
325.47
346.74
351.35
339.29
315.93
290.10
269.68
257.22
248.40
234.22
205.68
158.24
93.89
20.24
-52.24
-113.13
-154.04
-169.73
-158.58
-123.14
-70.14
-9.59
47.09
89.53
110.43
106.93
80.83
38.13
-12.57
-62.01
-102.55
-129.65
-142.05
-140.82
-127.89
-105.41
-75.52
-40.70
-3.85
31.90
63.66
88.96
105.34
109.94
99.87
73.66
33.23
-14.98
-60.83
-93.38
-104.75
-93.08
-62.94
-23.30
16.09
47.96
69.13
80.26
84.25
84.19
82.12
78.63
73.34
65.72
55.80
44.48
33.48
24.64
19.15
17.11
17.68
19.50
21.42
23.11
24.83
27.08
29.99
33.13
35.93
38.27
40.79
44.56
50.32
57.63
64.80
69.62
70.47
67.15
60.81
53.26
46.04
39.80
34.11
27.61
18.41
4.69
-14.64
-39.15
-66.45
-92.41
-112.15
-121.45
-117.70
-100.46
-71.47
-34.66
3.78
35.69
52.49
48.12
21.92
-19.66
-64.52
-98.92
-112.14
-99.68
-63.12
-7.81
59.99
134.51
210.17
280.55
338.34
377.26
394.59
392.91
379.54
363.74
353.17
351.18
356.28
363.51
367.17
363.11
349.85
328.47
301.50
271.51
240.05
207.29
172.22
133.42
89.90
42.16
-7.12
-53.20
-90.34
-113.66
-121.17
-114.94
-100.91
-86.96
-80.01
-83.84
-98.38
-120.69
-146.77
-173.21
-197.88
-219.79
-238.26
-252.31
-260.85
-263.38
-260.59
-254.31
-247.02
-240.88
-237.64
-237.54
-239.10
-239.64
-236.50
-228.46
-216.28
-202.39
-189.78
-182.26
-182.06
-188.61
-198.42
-206.55
-208.85
-203.33
-190.56
-173.34
-158.44
-152.83
-160.94
-182.28
-211.49
-240.44
-260.66
-265.44
-251.25
-221.62
-183.86
-146.19
-115.47
-96.77
-93.95
-109.12
-141.42
-166.23
-161.39
-116.56
-40.01
48.94
133.36
204.99
262.82
309.35
347.28
374.62
386.32
381.05
362.41
337.71
314.10
296.01
283.86
274.74
261.43
234.36
187.81
125.20
55.21
-12.52
-70.76
-116.03
-148.26
-171.50
-194.00
-221.76
-255.62
-291.71
-323.97
-345.71
-351.07
-336.54
-286.16
-201.76
-102.74
-15.41
43.10
71.54
79.73
79.57
78.96
79.95
78.16
69.23
54.00
35.85
16.44
-5.21
-30.49
-58.20
-83.06
-99.95
-104.24
-94.23
-68.22
-30.67
12.88
60.14
112.85
173.24
237.78
297.11
339.23
356.29
348.92
327.36
306.31
296.87
300.23
306.56
301.20
272.56
218.44
146.13
68.41
-3.10
-62.72
-111.43
-151.58
-181.57
-198.40
-200.35
-187.77
-163.12
-130.93
-97.71
-69.77
-51.00
-41.39
-37.87
-35.46
-29.70
-19.36
-7.16
1.51
0.98
-13.04
-41.20
-80.35
-123.61
-162.00
-187.18
-194.46
-184.78
-160.60
-130.74
-106.22
-95.96
-102.62
-121.56
-143.21
-157.37
-157.18
-140.73
-110.92
-72.03
-27.74
19.65
68.28
115.56
157.86
191.25
213.54
225.13
229.92
234.07
244.24
265.11
297.46
337.32
376.52
404.90
413.14
396.45
356.29
299.74
236.70
175.92
122.01
74.56
29.76
-16.70
-66.23
-115.82
-158.59
-186.41
-193.45
-178.61
-146.32
-105.14
-65.23
-35.32
-20.83
-23.60
-42.61
-74.94
-115.86
-158.87
-196.20
-220.57
-227.56
-217.77
-196.84
-173.14
-154.55
-145.65
-147.03
-156.50
-171.02
-187.73
-203.97
-216.66
-221.97
-216.74
-200.28
-175.80
-149.63
-128.44
-115.93
-110.62
-106.58
-96.38
-74.96
-42.31
-3.39
34.63
65.96
88.86
105.90
121.75
140.22
161.89
183.92
201.79
211.70
212.58
206.19
195.94
184.97
174.99
166.08
157.43
148.49
139.48
131.31
124.91
120.42
116.96
113.03
107.10
98.36
87.16
74.90
63.19
53.07
44.53
36.66
28.47
19.51
10.43
2.69
-2.18
-3.46
-1.70
1.48
4.14
4.79
2.81
-1.59
-7.70
-14.68
-21.61
-27.49
-31.50
-33.30
-33.40
-33.18
-34.37
-38.21
-44.87
-53.32
-61.90
-69.12
-74.34
-77.67
-79.59
-80.22
-79.25
-76.12
-70.63
-63.27
-55.09
-47.20
-40.18
-33.88
-27.57
-20.61
-12.93
-5.24
1.22
5.30
6.45
5.12
2.54
0.23
-0.65
0.16
2.05
3.91
4.69
3.77
1.24
-2.29
-5.89
-8.65
-9.83
-8.93
-5.72
-0.14
7.52
16.59
26.04
34.67
41.44
45.79
47.82
47.98
46.92
45.02
42.39
38.88
34.52
29.60
24.78
20.79
18.06
16.55
15.66
14.66
13.01
10.65
7.95
5.40
3.31
1.53
-0.44
-3.13
-6.72
-10.96
-15.22
-18.90
-21.63
-23.43
-24.52
-25.19
-25.67
-26.10
-26.75
-27.95
-29.96
-32.76
-35.82
-38.20
-38.72
-36.44
-30.97
-22.64
-12.40
-1.54
8.69
17.26
23.47
27.00
27.84
26.32
23.00
18.68
14.16
10.11
6.97
4.90
3.82
3.44
3.39
3.24
2.76
1.89
0.85
-0.00
-0.45
-0.64
-1.12
-2.55
-5.30
-9.10
-13.09
-16.33
-18.24
-18.90
-18.90
-18.95
-19.46
-20.60
-22.29
-24.41
-26.81
-29.04
-30.28
-29.37
-25.23
-17.47
-6.69
5.64
17.75
28.12
35.99
41.24
44.20
45.21
44.54
42.25
38.61
34.12
29.66
26.33
25.15
26.68
30.82
36.76
43.26
49.12
53.30
55.28
54.99
52.56
48.24
42.37
35.46
28.26
21.59
15.82
10.47
4.19
-4.96
-18.66
-37.37
-59.90
-83.58
-104.92
-120.68
-128.68
-128.05
-119.21
-103.58
-83.28
-60.99
-39.50
-21.29
-7.76
1.20
7.34
13.40
22.36
36.14
54.80
76.01
95.48
108.28
110.74
102.13
85.13
65.00
47.33
35.64
30.28
28.89
28.38
27.07
25.75
26.97
33.44
46.18
63.77
83.22
101.34
116.20
127.61
136.70
145.22
154.80
166.50
180.41
195.66
210.10
220.56
223.51
216.25
198.03
170.57
137.80
104.57
75.48
53.74
40.98
37.43
42.29
53.88
69.48
85.40
97.49
102.06
96.86
81.65
58.03
28.57
-4.32
-39.25
-76.03
-115.11
-156.97
-201.43
-247.60
-293.94
-338.55
-379.39
-414.41
-441.64
-459.66
-467.84
-466.37
-455.87
-437.00
-410.01
-375.12
-333.42
-287.62
-242.36
-203.22
-174.80
-159.14
-154.91
-157.90
-162.30
-162.32
-153.73
-134.91
-106.88
-72.28
-33.93
6.43
48.74
93.85
142.20
192.37
240.69
282.27
312.98
331.17
338.29
338.04
334.22
329.04
322.30
311.62
293.89
266.71
229.63
184.48
135.12
86.04
41.12
2.75
-28.44
-53.00
-71.74
-85.01
-92.60
-94.12
-89.78
-80.81
-69.17
-57.12
-46.39
-37.88
-31.96
-29.03
-29.83
-35.43
-46.52
-62.59
-81.59
-100.24
-115.01
-123.25
-124.02
-118.22
-108.28
-97.07
-86.81
-78.24
-70.51
-61.74
-50.25
-35.54
-19.02
-3.64
7.24
11.29
8.16
-0.31
-10.81
-19.86
-24.68
-23.83
-17.15
-5.45
9.90
27.02
43.67
57.43
66.06
68.14
63.45
52.93
38.14
20.47
0.54
-21.59
-45.71
-70.54
-93.28
-110.27
-118.37
-116.58
-106.87
-93.47
-81.20
-73.37
-70.61
-71.04
-71.62
-69.76
-64.19
-54.88
-42.14
-26.22
-7.46
13.03
32.76
48.27
56.59
56.76
50.80
43.27
39.25
42.10
51.74
64.69
75.68
80.16
76.28
65.63
52.17
40.30
32.91
30.25
30.21
29.63
25.98
18.42
8.05
-3.04
-12.90
-20.74
-27.29
-34.44
-44.30
-58.59
-78.16
-102.72
-130.72
-159.10
-183.25
-197.83
-198.30
-182.51
-151.87
-111.09
-66.65
-24.57
11.28
39.54
60.21
73.22
77.84
73.29
60.02
40.68
19.94
3.27
-4.48
-0.33
16.34
43.85
78.32
114.16
144.97
164.70
169.54
159.23
137.26
109.67
82.82
61.04
45.68
35.31
26.67
15.94
-0.63
-26.58
-64.74
-116.32
-179.86
-250.21
-318.92
-376.37
-414.56
-429.82
-423.79
-402.07
-371.68
-338.24
-304.49
-270.54
-235.56
-199.20
-162.25
-126.24
-92.19
-60.14
-29.11
2.22
34.55
67.08
97.57
122.88
140.12
147.87
146.93
140.22
131.59
124.17
119.02
114.97
109.54
100.53
87.19
70.32
51.70
33.11
15.78
0.48
-12.15
-21.41
-26.84
-28.38
-26.63
-22.62
-17.45
-12.19
-7.93
-5.98
-7.69
-13.80
-23.47
-33.83
-40.49
-38.99
-26.61
-3.42
27.73
62.42
96.40
126.82
152.79
174.92
194.38
212.30
229.64
247.50
267.29
290.38
317.02
345.45
371.79
391.06
398.91
393.30
375.13
347.66
315.17
281.56
249.60
220.87
196.05
175.13
157.42
141.64
126.13
109.58
91.53
72.46
53.45
35.51
19.31
5.24
-6.47
-15.77
-23.16
-29.77
-37.13
-46.19
-56.46
-65.69
-70.65
-68.63
-58.78
-42.72
-23.78
-5.59
9.39
20.34
27.89
33.07
36.63
38.68
38.95
37.18
33.55
28.78
23.85
19.75
16.98
15.52
14.99
14.93
15.02
15.10
15.01
14.45
12.95
10.07
5.52
-0.82
-8.85
-18.34
-28.82
-39.38
-48.71
-55.31
-58.18
-57.35
-54.16
-50.79
-49.22
-50.19
-52.61
-53.91
-51.16
-42.40
-27.48
-7.99
13.51
34.66
54.08
71.48
87.04
100.60
111.30
117.72
118.70
113.66
102.86
87.17
67.89
46.74
25.93
7.92
-5.36
-13.35
-17.40
-20.44
-25.61
-34.69
-47.21
-60.81
-72.55
-80.61
-84.90
-86.90
-88.48
-90.99
-94.70
-99.08
-103.34
-106.85
-109.45
-111.24
-112.38
-112.86
-112.51
-111.23
-109.12
-106.68
-104.45
-102.78
-101.48
-99.73
-96.36
-90.39
-81.24
-68.86
-53.57
-36.02
-17.55
-0.62
11.21
14.08
5.59
-13.54
-38.96
-64.03
-82.40
-90.66
-89.57
-83.22
-76.59
-73.08
-73.06
-74.27
-73.18
-66.85
-53.90
-34.79
-11.39
13.44
36.40
54.10
63.76
63.86
54.74
38.59
18.74
-1.29
-18.70
-31.74
-39.61
-41.96
-38.49
-28.90
-13.24
7.65
31.85
56.51
78.58
95.68
106.86
112.78
115.30
116.51
117.70
118.85
118.58
114.73
105.17
88.32
63.29
30.14
-9.86
-53.64
-96.05
-130.48
-150.22
-150.70
-131.30
-96.06
-52.73
-10.42
22.96
42.64
47.37
38.70
19.62
-6.36
-35.65
-64.33
-88.16
-102.95
-105.61
-95.37
-74.17
-46.41
-17.56
7.46
25.69
36.56
41.57
43.37
44.59
47.08
51.25
56.22
60.10
60.90
57.41
49.80
39.82
29.97
22.57
18.77
18.31
19.91
22.03
23.54
23.76
22.20
17.97
9.82
-3.38
-21.71
-43.67
-66.40
-86.46
-101.03
-108.32
-107.53
-98.22
-80.13
-53.83
-21.73
11.43
39.29
56.08
59.62
53.08
44.54
43.65
57.04
84.65
119.15
148.94
162.75
153.86
121.68
70.73
8.36
-57.13
-117.18
-163.15
-187.19
-184.25
-154.22
-102.73
-39.57
24.88
82.56
128.91
161.50
178.22
176.70
155.90
118.42
71.86
27.36
-4.54
-18.45
-16.66
-7.98
-3.47
-10.90
-31.32
-58.96
-84.31
-98.75
-98.09
-83.72
-61.09
-36.58
-14.78
2.66
16.13
26.47
33.50
36.12
33.28
25.37
14.83
5.39
0.49
1.44
6.68
12.21
13.25
6.16
-10.18
-33.96
-61.09
-86.49
-105.37
-114.20
-111.40
-97.54
-75.20
-48.29
-21.27
1.85
18.27
26.64
27.12
20.84
9.60
-4.52
-19.35
-32.70
-42.61
-47.53
-46.67
-40.09
-28.81
-14.59
0.48
14.34
25.50
33.18
37.39
38.64
37.85
35.96
33.73
31.62
29.62
27.37
24.37
20.31
15.34
10.14
5.74
3.04
2.36
3.24
4.67
5.40
4.58
1.97
-1.88
-6.06
-9.68
-12.32
-14.25
-16.30
-19.49
-24.56
-31.71
-40.48
-49.95
-58.80
-65.75
-69.78
-70.69
-69.51
-68.58
-71.19
-80.57
-98.60
-124.85
-156.72
-190.26
-221.77
-248.94
-271.24
-289.30
-303.72
-313.78
-317.07
-310.25
-290.35
-256.31
-209.70
-154.33
-94.95
-35.61
21.65
77.05
131.98
187.48
242.93
295.48
340.84
374.58
393.84
398.66
392.28
380.28
368.79
362.19
361.38
363.51
363.14
354.30
332.91
298.34
253.39
202.83
151.57
103.02
58.34
16.51
-25.43
-71.23
-123.80
-183.38
-246.43
-306.09
-354.11
-383.64
-391.56
-379.30
-351.66
-314.60
-273.20
-230.97
-190.52
-154.53
-125.78
-106.32
-96.16
-92.79
-91.96
-89.37
-82.06
-69.34
-52.94
-36.10
-21.96
-12.16
-6.24
-2.21
1.62
5.61
8.62
8.78
5.00
-1.97
-9.88
-16.32
-19.96
-20.89
-19.87
-17.45
-14.08
-10.29
-7.13
-5.67
-5.28
-2.20
10.02
37.57
82.33
139.39
197.76
244.19
268.35
266.97
244.53
210.57
174.85
143.50
117.52
94.45
71.26
47.26
25.15
9.37
3.32
7.42
19.18
35.42
54.66
78.14
109.14
150.87
203.85
265.03
328.71
388.28
438.26
475.39
498.96
510.19
511.18
503.69
488.60
465.77
434.26
393.39
343.64
287.39
228.59
171.73
120.08
74.61
33.59
-6.56
-49.19
-95.93
-145.77
-196.06
-244.30
-289.99
-334.42
-379.25
-424.04
-464.89
-495.81
-511.79
-512.39
-502.58
-490.51
-483.38
-484.40
-492.21
-503.06
-513.42
-521.12
-524.57
-521.27
-507.60
-480.29
-439.01
-387.76
-333.89
-285.01
-245.66
-216.18
-193.91
-175.47
-158.70
-142.88
-127.77
-112.33
-94.57
-71.76
-41.57
-2.72
44.67
98.75
155.77
210.19
255.44
285.56
297.42
292.18
275.44
255.30
239.36
231.90
232.97
239.43
247.19
253.30
256.70
257.66
256.67
253.63
247.92
239.24
228.26
216.61
206.26
198.57
193.39
188.99
182.71
172.08
155.99
135.04
111.46
88.29
68.35
53.22
42.99
36.42
31.82
28.08
25.38
25.39
30.63
43.29
63.96
90.88
120.02
146.18
164.62
172.41
169.03
156.10
136.28
112.22
85.89
58.55
31.21
5.05
-18.46
-37.84
-52.13
-61.21
-65.76
-66.91
-65.70
-62.86
-58.74
-53.58
-47.66
-41.47
-35.68
-30.97
-27.96
-26.99
-28.11
-31.01
-35.23
-40.23
-45.76
-51.91
-59.10
-67.84
-78.37
-90.58
-103.85
-117.34
-129.96
-140.30
-146.49
-146.22
-137.20
-117.98
-88.80
-51.92
-11.25
28.60
63.51
90.67
108.79
117.89
118.91
113.41
103.51
91.56
79.75
69.39
60.53
52.06
42.39
30.41
16.12
0.77
-13.77
-25.84
-34.51
-39.79
-42.35
-43.06
-42.73
-41.97
-41.17
-40.54
-40.03
-39.41
-38.28
-36.34
-33.52
-30.13
-26.79
-24.22
-23.11
-24.11
-27.71
-34.37
-44.26
-57.16
-72.25
-88.21
-103.48
-116.62
-126.48
-132.15
-132.98
-128.60
-119.34
-106.56
-92.84
-81.33
-74.72
-74.20
-79.04
-87.31
-97.02
-107.23
-118.17
-130.49
-144.13
-157.92
-169.88
-178.27
-182.30
-182.00
-177.28
-167.03
-149.12
-121.39
-83.19
-36.42
14.58
64.23
107.54
141.56
165.84
181.88
192.07
198.71
203.29
206.47
208.23
208.35
206.70
203.33
198.53
192.48
185.16
176.31
165.74
153.58
140.68
128.31
117.74
109.52
103.12
96.95
89.01
77.92
63.51
46.93
29.98
14.20
0.07
-13.02
-26.35
-40.93
-57.01
-73.92
-90.56
-105.86
-119.02
-129.49
-136.72
-140.18
-139.55
-135.18
-128.21
-120.20
-112.45
-105.09
-96.94
-86.07
-70.95
-51.59
-29.93
-9.53
5.61
12.50
10.48
1.51
-10.36
-20.64
-26.12
-25.91
-21.55
-15.85
-11.37
-9.46
-10.17
-12.99
-17.66
-24.19
-32.23
-40.50
-46.74
-48.81
-46.22
-40.88
-36.51
-36.89
-43.94
-56.71
-71.79
-84.94
-92.93
-94.83
-92.06
-87.50
-84.27
-84.62
-89.39
-97.98
-108.61
-118.83
-126.12
-128.29
-123.93
-112.61
-94.91
-72.40
-47.32
-22.24
0.31
18.34
30.78
37.66
40.21
40.52
40.96
43.43
48.66
56.01
63.79
70.12
73.70
74.39
73.22
71.80
71.88
74.88
81.74
92.52
105.95
118.95
127.13
126.23
114.40
93.69
70.10
51.17
42.46
44.57
52.42
57.68
52.66
34.26
5.37
-26.22
-51.25
-62.70
-58.04
-39.55
-12.63
16.17
41.18
58.48
66.11
64.14
54.67
41.84
30.74
25.61
27.57
33.73
38.15
34.62
20.03
-3.91
-31.33
-55.05
-69.94
-75.12
-73.53
-69.82
-67.69
-68.13
-69.62
-69.50
-65.80
-58.01
-46.80
-33.29
-18.19
-1.71
16.17
34.84
52.72
67.62
77.42
81.04
78.88
72.71
65.00
58.15
53.73
52.11
52.34
52.22
49.19
41.46
28.91
13.59
-0.95
-11.10
-14.59
-11.15
-2.18
10.37
25.28
42.59
63.07
87.08
113.62
140.23
163.94
182.59
195.55
203.50
207.40
207.57
203.49
194.33
179.96
161.61
141.82
123.55
109.31
100.32
96.41
96.36
98.21
99.66
98.33
92.06
79.28
59.35
32.53
-0.10
-37.08
-76.67
-116.84
-154.96
-188.10
-213.67
-230.44
-239.21
-242.60
-243.68
-244.53
-245.28
-244.46
-240.46
-232.82
-222.68
-211.99
-202.01
-192.52
-182.06
-169.19
-153.89
-137.85
-123.57
-112.95
-106.24
-102.06
-98.33
-93.28
-86.12
-76.92
-66.21
-54.48
-42.18
-29.82
-18.06
-7.64
1.03
8.06
14.01
19.42
24.45
28.76
31.87
33.79
35.22
37.37
41.35
47.60
55.78
65.03
74.56
83.86
92.68
100.67
107.24
111.65
113.44
112.83
110.76
108.49
107.03
106.61
106.64
106.10
103.99
99.79
93.53
85.62
76.61
66.91
56.84
46.67
36.75
27.53
19.52
13.09
8.21
4.54
1.48
-1.51
-4.71
-8.13
-11.54
-14.68
-17.36
-19.39
-20.48
-20.24
-18.19
-14.02
-7.74
0.28
9.27
18.30
26.46
33.04
37.59
40.06
40.67
39.92
38.41
36.70
35.17
33.99
33.12
32.41
31.62
30.56
29.12
27.31
25.29
23.36
21.82
20.89
20.54
20.45
20.10
19.00
16.83
13.64
9.83
5.85
2.03
-1.54
-5.07
-8.86
-13.11
-17.89
-22.89
-27.52
-30.98
-32.39
-31.03
-26.63
-19.49
-10.50
-0.95
7.88
14.98
19.86
22.51
23.30
22.72
21.30
19.44
17.49
15.73
14.31
13.30
12.66
12.24
11.87
11.42
10.85
10.23
9.69
9.24
8.81
8.19
7.08
5.31
2.88
-0.01
-3.04
-5.89
-8.44
-10.78
-13.24
-16.26
-20.18
-25.07
-30.53
-35.73
-39.48
-40.59
-38.28
-32.43
-23.73
-13.41
-2.94
6.45
13.97
19.33
22.65
24.23
24.49
23.84
22.68
21.35
20.06
18.89
17.82
16.71
15.43
13.99
12.47
11.02
9.78
8.83
8.12
7.49
6.71
5.51
3.76
1.45
-1.30
-4.25
-7.16
-9.94
-12.63
-15.46
-18.77
-22.79
-27.54
-32.56
-36.97
-39.64
-39.58
-36.23
-29.70
-20.84
-10.93
-1.42
6.62
12.56
16.31
18.14
18.48
17.79
16.39
14.62
12.77
11.11
9.88
9.18
8.92
8.94
9.07
9.18
9.29
9.39
9.40
9.14
8.35
6.77
4.27
0.95
-2.90
-6.90
-10.71
-14.10
-17.07
-19.83
-22.69
-25.98
-29.83
-34.10
-38.30
-41.69
-43.33
-42.42
-38.54
-31.84
-23.10
-13.48
-4.26
3.56
9.46
13.46
15.85
17.04
17.40
17.16
16.55
15.80
15.18
14.86
14.89
15.14
15.37
15.39
15.10
14.58
13.98
13.48
13.09
12.68
12.00
10.76
8.81
6.17
3.04
-0.27
-3.45
-6.32
-8.82
-11.10
-13.39
-15.90
-18.75
-21.78
-24.50
-26.13
-25.87
-23.07
-17.58
-9.73
-0.34
9.47
18.62
26.23
31.84
35.41
37.26
37.88
37.80
37.41
36.85
36.09
35.00
33.52
31.61
29.23
26.25
22.48
17.79
12.22
6.05
-0.34
-6.61
-12.60
-18.37
-24.02
-29.55
-34.70
-38.99
-41.97
-43.39
-43.34
-42.22
-40.54
-38.80
-37.30
-36.13
-35.02
-33.50
-30.89
-26.55
-20.05
-11.28
-0.58
11.22
22.96
33.33
41.17
45.70
46.66
44.38
39.81
34.07
28.10
22.33
16.78
11.18
5.34
-0.68
-6.54
-11.34
-14.48
-15.91
-16.01
-15.22
-13.89
-12.05
-9.85
-7.95
-6.65
-6.40
-7.03
-7.08
-3.96
4.65
19.50
38.45
57.31
73.41
86.15
97.57
111.28
130.22
154.51
181.47
206.31
224.42
234.88
238.37
235.70
226.70
210.36
185.75
153.99
117.85
71.49
16.59
-39.62
-87.49
-120.08
-133.43
-131.67
-118.82
-98.10
-72.30
-43.05
-12.68
15.94
39.98
57.72
68.62
74.03
75.66
74.92
73.59
71.93
68.59
61.47
49.32
32.74
15.00
0.17
-8.49
-9.25
-3.24
5.95
13.50
15.10
7.72
-9.83
-37.71
-75.28
-120.70
-171.33
-223.94
-275.35
-322.99
-365.33
-401.52
-431.04
-453.25
-467.29
-472.65
-469.32
-457.46
-436.83
-406.23
-363.81
-308.26
-240.35
-163.78
-84.55
-9.06
57.82
113.87
159.09
194.17
219.39
234.10
237.76
231.41
218.74
205.59
198.23
201.34
216.14
240.35
269.35
298.22
323.44
343.67
359.37
371.99
383.00
392.89
400.68
403.76
397.90
378.15
340.34
282.76
207.15
118.42
23.13
-72.36
-163.41
-247.85
-325.61
-397.36
-463.16
-521.33
-568.19
-598.69
-607.60
-591.14
-548.16
-480.46
-392.32
-289.67
-179.12
-67.61
37.72
129.85
202.56
251.44
275.11
276.00
260.38
237.41
216.77
205.64
205.99
214.15
222.92
225.19
217.37
200.73
180.39
162.38
150.51
144.95
142.51
138.23
127.20
106.04
73.29
29.60
-22.36
-78.21
-132.46
-179.71
-215.90
-239.04
-248.94
-246.48
-232.96
-210.38
-181.73
-151.03
-122.62
-100.15
-85.40
-77.50
-73.52
-70.04
-65.13
-59.72
-57.21
-61.71
-75.79
-99.10
-127.97
-156.33
-177.89
-188.39
-187.43
-178.50
-167.64
-160.50
-159.74
-163.99
-168.87
-169.38
-161.94
-145.97
-123.47
-97.61
-70.78
-43.75
-16.09
12.61
41.40
68.04
89.36
102.41
105.94
101.40
92.54
84.11
79.93
81.52
88.56
99.44
112.47
126.32
139.92
152.01
160.94
165.36
164.66
159.54
151.37
141.22
129.09
113.93
94.91
72.54
48.98
26.89
8.24
-6.55
-18.27
-27.94
-36.08
-42.59
-47.24
-50.38
-53.11
-56.32
-59.81
-61.83
-59.83
-51.97
-38.27
-21.00
-3.77
9.64
16.95
17.98
14.35
8.56
2.58
-2.90
-8.57
-15.68
-25.30
-37.74
-52.68
-69.59
-87.97
-107.37
-127.30
-147.08
-165.90
-183.19
-198.68
-212.20
-223.19
-230.26
-231.59
-225.79
-213.01
-195.39
-176.75
-161.31
-152.23
-150.45
-154.25
-159.71
-161.95
-156.75
-142.01
-118.37
-88.57
-55.96
-23.30
7.84
36.22
60.03
76.76
84.57
84.23
79.91
77.70
82.46
95.38
113.74
132.89
148.99
160.37
167.00
168.67
164.10
151.57
130.84
104.44
77.30
54.78
40.22
34.19
35.10
41.02
50.66
63.61
79.66
98.39
119.24
141.32
163.09
181.99
195.14
200.40
197.54
188.22
175.05
160.03
143.53
124.37
101.22
74.36
46.46
21.86
4.75
-2.92
-2.36
2.68
7.98
10.65
10.25
8.38
7.10
7.38
8.27
7.64
3.64
-3.83
-13.18
-22.38
-30.47
-38.13
-46.66
-56.48
-66.17
-72.88
-74.10
-69.65
-62.26
-56.32
-55.41
-60.28
-68.40
-75.63
-78.57
-76.57
-72.11
-69.12
-70.90
-78.24
-88.96
-99.01
-104.27
-102.18
-92.37
-76.05
-54.60
-28.66
1.60
35.41
70.19
101.15
122.53
129.44
120.07
96.98
66.62
37.34
16.43
7.48
9.40
17.48
25.89
30.32
29.60
25.27
20.37
17.65
18.39
22.19
27.58
32.78
36.35
37.38
35.57
31.52
26.80
23.69
24.36
30.07
40.62
54.38
68.89
81.44
89.67
91.85
87.12
75.81
59.68
41.84
26.06
15.47
11.33
12.50
15.91
18.07
16.78
12.26
7.19
5.40
10.14
22.49
40.77
61.00
78.36
88.65
89.57
81.19
65.65
46.04
25.24
4.81
-15.15
-35.44
-56.78
-78.97
-100.86
-120.67
-136.42
-146.18
-148.08
-140.40
-122.09
-93.63
-57.79
-19.53
15.06
40.76
55.01
58.59
55.00
48.71
43.38
40.74
40.64
41.72
42.46
41.64
38.82
34.04
27.78
20.62
13.01
5.17
-2.65
-9.91
-15.52
-17.66
-14.23
-3.44
15.23
40.21
67.60
91.78
106.91
108.76
95.97
70.28
35.64
-3.28
-42.49
-79.12
-110.81
-134.69
-147.05
-144.58
-126.67
-96.87
-62.60
-32.54
-13.20
-6.57
-9.90
-17.76
-25.01
-29.18
-31.43
-35.53
-45.90
-65.35
-93.75
-127.81
-162.09
-190.78
-209.47
-216.38
-212.28
-199.51
-180.49
-157.01
-130.47
-102.74
-76.21
-53.33
-35.68
-23.29
-14.64
-7.39
0.24
8.89
18.25
27.83
37.69
48.61
61.61
77.09
94.50
112.49
129.56
144.68
157.61
168.59
177.78
184.93
189.39
190.49
187.98
182.36
174.74
166.47
158.51
151.36
145.02
139.07
133.03
126.82
121.02
116.64
114.71
115.77
119.68
125.84
133.46
141.76
149.86
156.79
161.58
163.45
162.00
156.99
148.13
134.97
117.34
95.80
71.83
47.26
23.43
0.33
-23.15
-48.22
-74.82
-101.06
-124.18
-142.45
-156.55
-169.40
-184.48
-203.63
-226.01
-248.99
-270.16
-288.91
-306.20
-322.76
-337.33
-346.28
-345.32
-332.07
-307.75
-276.65
-243.65
-211.60
-180.13
-146.77
-109.35
-67.73
-23.79
20.29
63.71
107.33
152.54
198.94
242.80
277.28
294.58
289.21
261.09
216.85
168.34
128.38
105.67
101.29
108.65
117.18
117.46
105.35
82.66
54.64
26.00
-1.71
-30.02
-61.12
-95.01
-128.65
-156.88
-174.97
-180.81
-175.63
-163.13
-147.66
-132.55
-119.33
-107.95
-97.39
-86.73
-75.89
-65.59
-56.91
-50.29
-45.11
-39.76
-32.70
-23.54
-13.64
-5.73
-2.53
-5.21
-12.53
-21.18
-27.23
-27.73
-21.85
-10.86
2.80
16.71
29.22
39.76
48.59
56.38
63.82
71.10
77.79
82.77
84.78
82.85
76.85
67.51
55.85
42.56
27.62
10.69
-8.12
-27.47
-44.80
-57.00
-61.51
-57.13
-44.29
-24.61
-0.38
25.84
51.47
74.01
91.32
101.87
105.03
101.00
90.47
74.25
53.21
28.39
1.13
-26.91
-53.85
-78.08
-98.36
-114.26
-126.14
-135.23
-143.44
-152.92
-165.15
-180.14
-196.29
-211.16
-222.79
-230.90
-237.08
-243.77
-252.61
-263.08
-272.15
-275.27
-268.05
-247.93
-214.96
-171.61
-121.74
-69.41
-17.84
31.05
76.80
120.20
162.89
206.40
251.21
295.84
336.65
368.35
385.69
385.55
368.59
339.66
306.01
274.29
247.83
225.77
204.60
181.37
156.45
133.93
119.64
117.75
128.26
146.59
165.35
177.13
176.70
162.06
133.95
94.91
48.51
-1.23
-50.30
-95.24
-133.65
-164.31
-186.89
-201.63
-209.16
-210.56
-207.57
-202.36
-196.97
-192.41
-188.43
-183.91
-177.74
-169.60
-159.82
-148.86
-136.62
-122.45
-106.02
-88.17
-71.16
-57.64
-49.25
-45.49
-43.97
-41.48
-35.71
-26.39
-15.23
-4.87
2.39
5.44
4.33
-0.32
-7.73
-17.30
-28.44
-40.64
-53.29
-65.55
-76.30
-83.95
-86.64
-82.77
-71.78
-54.38
-32.20
-7.09
19.67
47.64
76.77
106.36
134.70
159.35
178.16
189.90
194.14
190.52
178.16
156.10
124.66
86.79
48.21
15.99
-3.98
-9.19
-1.01
16.24
37.69
59.78
81.08
101.48
120.61
136.54
145.69
144.45
130.68
105.08
70.93
32.56
-6.56
-44.73
-81.57
-116.76
-149.02
-176.25
-196.57
-209.53
-216.19
-218.33
-217.52
-214.71
-210.49
-205.30
-199.50
-192.97
-184.93
-174.24
-160.08
-142.28
-121.31
-97.92
-72.68
-46.07
-18.77
8.35
34.37
58.68
81.11
101.36
118.26
129.62
133.06
127.88
116.39
103.98
97.29
101.45
117.72
142.55
168.77
188.06
193.80
183.23
158.39
125.29
91.71
64.44
47.42
41.13
43.35
50.63
59.65
67.58
71.82
69.76
59.00
38.33
8.65
-26.91
-63.51
-96.03
-120.09
-132.59
-131.86
-117.90
-92.85
-61.47
-30.34
-5.55
9.97
17.73
22.86
31.38
46.85
68.62
92.41
112.72
125.51
129.66
126.98
121.16
116.29
115.76
121.44
133.37
149.38
165.28
175.71
175.55
161.58
133.47
93.97
47.94
1.13
-41.28
-75.74
-100.81
-116.99
-126.13
-130.94
-134.47
-139.84
-150.02
-167.14
-191.49
-220.77
-250.10
-273.40
-285.46
-284.03
-270.80
-250.51
-229.10
-211.51
-200.46
-196.60
-198.96
-205.39
-212.70
-216.49
-211.35
-192.45
-157.56
-109.01
-53.81
-1.49
39.90
67.31
83.92
96.93
113.34
136.06
162.51
186.33
200.93
202.68
192.30
174.00
153.26
134.60
120.57
111.93
108.33
108.99
112.83
118.64
125.19
131.42
136.67
140.99
145.14
150.50
158.93
171.62
187.72
203.48
212.79
209.27
189.24
153.88
109.88
67.62
37.46
25.62
31.76
49.41
69.03
82.07
83.89
74.53
57.26
36.46
16.02
-1.10
-12.60
-16.65
-12.45
-1.05
14.19
28.26
36.01
33.65
19.78
-4.49
-35.89
-69.80
-101.29
-126.44
-143.53
-153.29
-158.01
-159.84
-158.94
-152.99
-138.14
-111.42
-72.99
-27.07
19.29
58.62
86.01
100.77
106.37
108.43
111.70
117.40
122.36
120.78
107.48
81.31
46.38
10.51
-18.19
-35.00
-39.99
-36.99
-30.55
-23.41
-15.70
-6.30
5.04
16.36
24.01
24.39
15.97
0.12
-19.14
-36.86
-49.11
-54.33
-53.49
-49.33
-44.95
-42.93
-44.86
-51.29
-62.02
-76.04
-91.43
-105.32
-114.70
-117.37
-113.12
-104.11
-94.31
-88.07
-88.28
-95.22
-106.34
-117.51
-124.74
-125.86
-120.97
-111.74
-99.95
-86.32
-70.42
-51.65
-30.31
-7.86
13.74
33.23
50.89
68.47
88.04
110.62
135.36
159.92
181.65
198.59
209.97
215.97
217.13
213.96
206.83
196.09
182.21
165.88
148.39
131.63
117.80
108.67
105.10
106.83
112.95
121.94
131.57
138.85
140.51
134.04
118.87
97.01
72.65
50.57
34.27
24.75
20.54
19.10
18.03
15.69
10.84
2.05
-12.30
-33.24
-60.26
-91.00
-121.79
-148.79
-168.80
-179.94
-182.01
-176.82
-168.19
-161.32
-161.08
-169.98
-186.77
-206.68
-223.50
-232.87
-234.45
-231.53
-228.29
-226.94
-226.77
-225.82
-223.06
-219.42
-216.61
-214.80
-211.21
-201.05
-180.44
-149.30
-111.97
-75.11
-43.94
-19.51
1.30
23.15
49.06
78.80
109.59
138.47
164.28
188.15
212.44
239.10
268.40
298.34
325.36
345.78
357.12
358.78
351.79
337.96
319.00
296.00
269.52
240.05
208.78
177.80
150.00
128.01
113.22
104.88
100.05
94.70
85.14
69.23
46.93
20.00
-8.56
-35.23
-56.75
-71.19
-78.93
-83.17
-89.42
-103.59
-129.41
-166.17
-208.24
-247.00
-274.57
-287.35
-287.35
-280.59
-273.61
-270.32
-270.73
-272.13
-271.25
-265.87
-254.90
-237.72
-213.26
-180.29
-138.71
-90.60
-40.40
6.40
45.33
74.46
94.57
108.16
118.06
126.45
134.66
143.40
152.95
163.17
173.49
182.79
189.70
192.94
191.60
185.30
174.22
158.98
140.51
119.80
97.52
73.87
48.66
21.64
-6.87
-35.36
-61.04
-80.42
-90.39
-89.53
-78.76
-61.28
-41.58
-23.93
-11.17
-4.06
-1.42
-0.91
0.15
4.10
12.43
25.57
42.96
63.18
84.38
104.59
122.17
136.17
146.55
154.07
160.03
165.64
171.41
176.71
179.69
177.88
169.18
153.06
131.10
106.75
84.17
66.78
56.09
51.30
50.00
49.40
47.57
44.09
39.96
36.99
36.81
40.08
46.19
53.47
59.86
63.78
64.56
62.28
57.25
49.48
38.73
25.04
9.01
-8.33
-26.26
-44.87
-65.27
-88.68
-115.39
-143.87
-170.68
-191.60
-203.15
-203.97
-195.07
-179.34
-160.36
-141.36
-124.47
-110.58
-99.54
-90.65
-83.31
-77.33
-73.06
-71.07
-71.85
-75.56
-82.04
-90.99
-102.17
-115.32
-129.98
-145.08
-158.76
-168.54
-172.15
-168.45
-158.08
-143.29
-127.01
-111.67
-98.22
-86.08
-73.93
-60.69
-46.22
-31.23
-16.70
-3.31
8.63
18.91
26.94
31.87
32.95
30.09
24.11
16.59
9.27
3.38
-0.66
-3.25
-5.42
-8.68
-14.53
-24.05
-37.37
-53.43
-70.39
-86.45
-100.67
-113.39
-125.87
-139.33
-154.02
-168.74
-181.24
-189.27
-191.82
-189.79
-185.68
-182.44
-182.23
-185.58
-191.54
-198.18
-203.18
-204.24
-199.24
-186.55
-165.56
-137.52
-105.64
-74.38
-47.72
-27.48
-12.74
-0.80
10.82
22.90
34.26
43.27
49.49
54.45
60.70
69.85
81.11
91.29
96.54
94.56
86.05
74.66
65.21
61.44
64.31
71.91
80.84
88.26
93.39
97.60
103.10
111.20
121.18
130.55
136.48
137.35
133.52
126.78
118.98
110.66
100.87
88.04
71.47
52.40
33.83
19.30
11.09
9.19
11.17
13.42
12.86
8.30
0.92
-6.54
-10.95
-10.07
-3.20
8.88
24.48
41.76
59.19
75.78
90.84
104.01
115.01
123.64
129.80
133.55
135.32
135.83
135.99
136.21
136.16
134.68
130.25
121.71
108.94
92.97
75.62
58.78
43.65
30.47
18.47
6.32
-7.38
-23.58
-42.41
-63.02
-83.53
-101.42
-114.20
-120.01
-118.17
-109.18
-94.43
-75.75
-54.91
-33.38
-12.30
7.38
24.95
39.94
52.23
62.03
69.86
76.47
82.71
89.26
96.47
104.29
112.43
120.50
128.22
135.47
142.11
147.90
152.40
155.24
156.29
155.71
153.76
150.45
145.14
136.50
122.82
102.39
73.92
36.76
-8.91
-62.00
-120.54
-181.78
-242.49
-299.16
-348.39
-387.41
-414.66
-429.98
-434.50
-429.83
-417.21
-397.02
-369.01
-333.36
-291.54
-246.61
-202.09
-160.72
-123.46
-89.62
-57.99
-28.17
-1.13
21.51
38.93
52.43
64.87
79.41
98.10
121.09
146.70
172.09
194.29
211.06
222.12
228.26
230.77
230.93
229.66
227.28
223.44
217.51
209.14
199.90
191.83
186.72
185.66
188.83
195.45
203.89
211.91
217.35
220.01
219.76
216.01
207.57
193.11
171.90
144.36
112.19
69.66
17.95
-35.98
-82.67
-115.77
-134.96
-144.22
-147.91
-149.86
-151.20
-149.83
-143.66
-132.07
-116.10
-97.59
-78.81
-61.73
-47.66
-36.79
-27.47
-18.42
-9.66
-2.50
1.33
0.75
-4.14
-12.24
-21.90
-30.94
-37.96
-42.44
-44.35
-43.71
-40.45
-34.72
-27.20
-19.08
-11.42
-5.16
-0.97
0.92
0.60
-1.58
-5.10
-9.31
-13.54
-17.02
-19.42
-20.94
-22.22
-23.83
-25.77
-27.24
-26.98
-24.05
-18.59
-12.19
-7.33
-6.05
-8.48
-12.09
-12.43
-4.97
12.89
40.86
76.33
115.79
156.12
194.85
229.46
256.66
272.46
273.44
258.46
229.47
190.98
148.17
104.86
62.47
20.43
-22.57
-67.26
-113.08
-158.42
-201.15
-239.25
-271.19
-296.17
-314.03
-325.07
-329.25
-325.56
-311.93
-285.77
-245.75
-193.53
-134.40
-75.96
-25.14
14.61
44.21
67.19
86.54
102.19
110.91
108.73
94.29
70.60
44.12
21.64
7.08
0.13
-2.55
-4.85
-8.87
-14.35
-19.55
-22.71
-23.01
-20.50
-15.60
-8.71
-0.12
9.90
20.74
31.48
41.03
48.35
52.72
53.78
51.58
46.70
40.10
33.04
26.68
21.69
17.96
14.60
10.29
3.81
-5.58
-17.95
-32.69
-48.43
-62.98
-73.64
-77.76
-73.85
-62.38
-45.96
-28.55
-14.01
-4.64
-0.55
-0.15
-1.22
-2.14
-2.48
-2.75
-3.75
-6.03
-9.66
-14.38
-19.74
-25.24
-30.25
-34.23
-36.91
-38.37
-39.21
-40.36
-42.79
-47.13
-53.51
-61.52
-70.46
-79.52
-88.07
-95.77
-102.70
-109.38
-116.69
-125.65
-136.75
-149.22
-160.42
-166.09
-161.43
-142.92
-109.84
-64.87
-13.36
38.33
84.67
122.14
149.47
167.10
176.49
179.52
178.08
173.85
168.04
161.15
153.00
143.13
131.31
118.01
104.35
91.69
81.17
73.24
67.65
63.71
60.80
58.68
57.57
57.87
59.71
62.50
65.03
65.80
63.80
59.20
53.47
49.02
48.30
52.93
63.03
77.00
91.58
102.19
103.59
91.07
62.27
18.95
-32.36
-81.85
-120.01
-141.85
-149.51
-151.53
-158.88
-179.47
-214.25
-256.56
-295.36
-320.10
-324.78
-309.25
-277.97
-237.85
-196.01
-158.57
-130.04
-112.66
-105.68
-105.23
-105.65
-101.87
-91.82
-77.34
-62.88
-52.80
-48.59
-47.98
-46.11
-38.13
-21.61
2.58
30.92
58.81
81.85
96.36
99.46
88.99
63.95
25.41
-22.70
-73.58
-118.97
-151.52
-166.94
-165.37
-150.91
-129.37
-105.78
-82.66
-59.95
-36.38
-11.17
14.99
40.15
62.11
79.58
92.66
102.45
110.46
117.88
125.41
133.28
141.28
148.68
154.41
157.31
156.58
152.20
144.87
135.91
126.64
117.89
109.55
100.64
89.71
75.51
57.76
37.55
17.15
-0.58
-13.11
-18.86
-17.48
-9.87
1.97
15.09
25.99
31.33
28.94
18.71
2.78
-15.16
-31.36
-43.43
-50.98
-55.17
-57.63
-59.53
-61.14
-62.41
-63.23
-63.79
-64.05
-63.55
-61.31
-56.37
-48.54
-38.65
-28.43
-19.54
-13.03
-8.82
-6.00
-3.26
0.60
6.36
14.43
25.01
38.46
55.25
75.96
100.89
129.62
160.69
191.61
219.43
241.66
257.12
266.39
271.19
273.56
274.66
274.34
271.10
263.12
248.93
228.09
201.60
171.58
140.97
112.51
88.03
67.75
50.40
33.98
16.98
-0.62
-17.35
-31.14
-40.79
-46.66
-50.22
-52.29
-51.58
-44.67
-27.92
-0.33
34.75
70.24
98.31
113.91
116.58
109.56
97.04
81.43
62.37
38.07
7.68
-27.06
-62.13
-93.11
-117.40
-135.30
-149.42
-162.78
-176.97
-191.41
-203.78
-211.32
-212.03
-205.47
-192.59
-175.16
-154.94
-133.20
-110.66
-87.65
-64.49
-41.48
-18.80
3.76
26.75
50.70
75.70
100.95
124.97
146.09
163.22
176.16
185.65
192.68
197.55
199.37
196.22
186.20
168.75
145.49
120.14
97.29
80.34
69.85
63.18
55.62
42.28
20.12
-10.96
-48.11
-86.19
-118.78
-139.32
-142.60
-126.90
-95.94
-59.51
-31.81
-27.17
-55.06
-116.38
-203.01
-300.71
-394.17
-471.30
-525.27
-553.94
-557.88
-538.68
-498.40
-440.14
-368.75
-290.72
-212.81
-140.29
-75.77
-19.40
29.87
72.53
107.72
133.74
149.33
155.08
153.70
148.95
144.13
140.70
137.98
133.94
126.45
114.33
97.82
78.37
57.99
38.94
23.37
13.03
9.03
11.20
17.64
24.57
27.33
22.08
7.88
-12.46
-33.36
-49.03
-56.16
-55.13
-49.21
-42.37
-37.20
-34.36
-33.44
-34.29
-37.46
-43.39
-51.07
-57.44
-58.41
-50.86
-34.35
-11.29
14.45
39.48
62.13
82.49
101.44
119.69
137.26
153.68
168.43
181.21
191.84
199.67
203.30
200.65
189.71
169.45
140.33
104.35
64.40
23.57
-15.53
-50.96
-81.45
-106.07
-124.28
-136.01
-141.96
-143.55
-142.59
-140.66
-138.71
-137.02
-135.63
-134.61
-134.10
-134.03
-133.79
-132.14
-127.52
-118.60
-104.84
-86.48
-64.21
-38.62
-10.20
20.31
51.31
80.27
104.36
121.65
132.04
137.42
140.68
144.26
149.05
154.31
158.51
160.59
160.62
159.58
158.35
156.86
153.95
148.09
138.30
124.78
108.89
92.55
77.44
64.47
53.66
44.48
36.20
28.32
20.77
13.90
8.18
3.87
0.74
-1.88
-4.80
-8.58
-13.27
-18.33
-23.00
-26.59
-28.79
-29.61
-29.29
-28.06
-26.09
-23.45
-20.15
-16.28
-12.05
-7.83
-4.13
-1.43
-0.10
-0.24
-1.57
-3.53
-5.46
-6.77
-7.18
-6.65
-5.27
-3.18
-0.43
2.95
6.90
11.29
15.84
20.07
23.39
25.31
25.57
24.35
22.30
20.23
18.76
18.01
17.45
16.13
13.14
8.04
0.92
-7.62
-16.67
-25.13
-31.80
-35.69
-36.47
-34.88
-32.79
-32.48
-35.69
-42.66
-52.07
-61.48
-68.53
-71.64
-70.48
-65.62
-58.03
-48.70
-38.52
-28.41
-19.24
-11.73
-6.04
-1.63
2.61
8.01
15.55
25.44
37.02
48.94
59.54
67.29
71.26
71.18
67.47
60.96
52.68
43.70
34.97
27.18
20.58
14.91
9.39
3.14
-4.45
-13.25
-22.35
-30.29
-35.70
-37.82
-36.80
-33.60
-29.43
-25.34
-21.85
-19.02
-16.64
-14.60
-12.95
-11.77
-11.05
-10.52
-9.72
-8.27
-6.11
-3.64
-1.52
-0.34
-0.40
-1.54
-3.28
-5.11
-6.67
-7.82
-8.61
-9.08
-9.25
-9.10
-8.71
-8.22
-7.82
-7.66
-7.67
-7.71
-7.52
-7.05
-6.43
-6.15
-6.71
-8.50
-11.47
-15.02
-18.16
-19.82
-19.26
-16.30
-11.33
-5.07
1.75
8.64
15.36
21.79
27.79
33.04
37.15
39.70
40.52
39.55
36.95
32.85
27.36
20.42
11.95
1.95
-9.35
-21.29
-32.93
-43.42
-52.28
-59.64
-66.02
-71.90
-77.28
-81.72
-84.55
-85.19
-83.15
-77.74
-68.01
-53.12
-33.26
-10.45
11.48
27.87
35.06
31.83
19.83
2.66
-15.61
-31.85
-44.37
-52.60
-56.55
-56.51
-53.20
-47.80
-41.80
-36.17
-30.68
-23.89
-13.74
1.43
22.09
47.49
76.20
106.65
136.99
164.52
185.18
194.14
187.55
164.73
129.33
88.59
50.73
22.01
4.81
-2.32
-2.91
-0.59
2.13
4.05
4.48
2.65
-2.39
-11.33
-24.07
-39.43
-55.32
-69.24
-78.95
-83.16
-82.06
-77.13
-70.76
-65.38
-62.58
-62.72
-64.96
-67.58
-68.38
-65.23
-56.49
-41.70
-22.06
-0.50
18.92
32.35
37.54
34.69
26.20
15.57
6.01
-0.46
-3.23
-2.59
0.88
6.56
13.70
21.15
27.34
30.69
30.21
26.04
19.39
12.12
5.97
1.94
0.10
-0.22
0.10
0.26
-0.13
-1.09
-2.48
-4.13
-5.98
-8.08
-10.54
-13.38
-16.43
-19.43
-22.01
-23.98
-25.39
-26.53
-27.81
-29.55
-31.72
-33.95
-35.64
-36.07
-34.78
-31.61
-26.75
-20.62
-13.74
-6.62
0.22
6.22
10.80
13.40
13.69
11.75
8.03
3.29
-1.65
-6.15
-9.74
-12.14
-13.25
-13.06
-11.73
-9.62
-7.27
-5.26
-4.01
-3.68
-4.16
-5.16
-6.41
-7.70
-9.01
-10.47
-12.36
-14.94
-18.33
-22.38
-26.67
-30.67
-34.05
-36.81
-39.27
-41.83
-44.76
-48.03
-51.38
-54.36
-56.51
-57.32
-56.28
-52.92
-47.01
-38.80
-29.07
-18.97
-9.58
-1.50
5.26
11.22
17.01
23.12
29.62
36.26
42.58
48.08
52.44
55.56
57.69
59.22
60.48
61.61
62.46
62.67
61.88
60.01
57.16
53.71
50.03
46.41
42.97
39.64
36.20
32.42
28.15
23.38
18.34
13.30
8.54
4.22
0.33
-3.21
-6.48
-9.60
-12.86
-16.79
-22.20
-29.82
-39.86
-51.61
-63.39
-72.86
-77.72
-76.51
-69.11
-56.77
-41.71
-26.25
-12.30
-0.94
7.44
13.06
16.48
18.57
20.36
22.86
26.78
32.10
38.06
43.35
46.68
47.28
45.26
41.51
37.22
33.49
30.85
29.30
28.39
27.58
26.45
24.85
22.87
20.63
18.11
15.06
11.21
6.40
0.82
-5.09
-10.75
-15.75
-19.95
-23.50
-26.67
-29.70
-32.83
-36.23
-40.11
-44.50
-49.19
-53.58
-56.66
-57.36
-54.86
-48.97
-40.23
-29.75
-18.86
-8.71
-0.05
6.84
12.04
15.82
18.50
20.36
21.60
22.33
22.60
22.41
21.74
20.70
19.44
18.18
17.16
16.55
16.42
16.79
17.59
18.67
19.81
20.69
21.01
20.54
19.25
17.34
15.13
12.89
10.68
8.33
5.65
2.49
-1.08
-4.83
-8.48
-11.91
-15.08
-18.09
-21.06
-24.15
-27.63
-31.83
-37.01
-43.00
-49.01
-53.71
-55.53
-53.35
-46.84
-36.66
-24.14
-10.86
1.69
12.37
20.42
25.49
27.65
27.51
26.02
24.26
23.04
22.67
22.93
23.39
23.66
23.64
23.47
23.38
23.49
23.74
23.95
23.90
23.53
22.83
21.84
20.64
19.25
17.67
15.93
14.04
12.00
9.75
7.24
4.46
1.47
-1.62
-4.64
-7.47
-10.05
-12.38
-14.55
-16.75
-19.29
-22.47
-26.51
-31.22
-35.97
-39.66
-41.02
-39.07
-33.43
-24.56
-13.61
-2.15
8.37
16.87
22.92
26.72
28.86
30.02
30.75
31.25
31.47
31.29
30.66
29.75
28.83
28.15
27.76
27.53
27.25
26.76
26.06
25.23
24.30
23.19
21.67
19.52
16.62
13.13
9.34
5.56
1.91
-1.68
-5.39
-9.30
-13.21
-16.67
-19.21
-20.54
-20.78
-20.45
-20.27
-20.90
-22.69
-25.51
-28.81
-31.69
-33.07
-31.95
-27.66
-20.05
-9.61
2.64
15.31
26.94
36.24
42.46
45.46
45.75
44.28
42.13
40.21
39.00
38.55
38.61
38.86
39.03
38.99
38.74
38.37
37.99
37.80
37.96
38.59
39.61
40.76
41.65
41.89
41.18
39.41
36.66
33.18
29.32
25.39
21.66
18.17
14.89
11.63
8.19
4.46
0.46
-3.64
-7.63
-11.34
-14.71
-17.88
-21.15
-24.92
-29.48
-34.80
-40.41
-45.41
-48.66
-49.14
-46.22
-39.89
-30.77
-19.96
-8.71
1.82
10.76
17.69
22.54
25.56
27.21
28.01
28.44
28.82
29.29
29.78
30.19
30.34
30.16
29.70
29.11
28.58
28.22
28.05
27.91
27.61
26.98
25.93
24.53
22.88
21.11
19.29
17.49
15.65
13.74
11.71
9.58
7.41
5.27
3.21
1.19
-0.91
-3.26
-5.92
-8.86
-11.86
-14.71
-17.27
-19.56
-21.75
-24.09
-26.79
-30.00
-33.80
-38.15
-42.87
-47.49
-51.25
-53.22
-52.56
-48.82
-42.14
-33.31
-23.45
-13.74
-5.10
1.98
7.35
11.17
13.73
15.31
16.19
16.56
16.56
16.34
16.01
15.64
15.32
15.02
14.72
14.37
14.02
13.85
14.05
14.78
15.99
17.47
18.84
19.72
19.85
19.17
17.78
15.91
13.83
11.75
9.81
8.03
6.30
4.45
2.33
-0.15
-2.96
-5.92
-8.84
-11.53
-13.94
-16.06
-17.99
-19.88
-21.94
-24.34
-27.15
-30.20
-32.98
-34.75
-34.67
-32.15
-27.04
-19.71
-10.93
-1.62
7.41
15.57
22.50
28.03
32.18
35.09
37.08
38.54
39.81
41.16
42.66
44.18
45.46
46.16
46.05
45.08
43.38
41.28
39.17
37.26
35.50
33.58
31.02
27.46
22.77
17.16
11.07
5.05
-0.48
-5.36
-9.74
-14.09
-19.01
-25.02
-32.22
-40.03
-47.26
-52.27
-53.58
-50.33
-42.81
-32.46
-21.52
-12.33
-6.63
-4.99
-6.71
-10.11
-13.08
-13.79
-11.21
-5.37
2.77
11.62
19.46
24.90
27.18
26.24
22.68
17.55
12.04
7.24
3.91
2.38
2.52
3.86
5.77
7.77
9.73
12.00
15.16
19.79
26.10
33.88
42.41
50.75
57.98
63.42
66.71
67.92
67.42
65.81
63.75
61.63
59.50
56.93
53.11
47.21
38.73
27.78
15.17
2.15
-9.87
-19.73
-26.80
-31.00
-32.73
-32.60
-31.27
-29.35
-27.47
-26.36
-26.82
-29.53
-34.78
-42.23
-50.97
-59.65
-66.96
-71.95
-74.28
-74.07
-71.77
-67.94
-63.09
-57.74
-52.37
-47.43
-43.16
-39.64
-36.65
-33.81
-30.81
-27.49
-23.99
-20.54
-17.41
-14.70
-12.33
-10.10
-7.77
-5.18
-2.25
1.02
4.60
8.36
12.14
15.63
18.58
20.77
22.16
22.86
23.02
22.65
21.48
19.14
15.27
9.82
3.21
-3.77
-10.12
-15.00
-17.93
-18.99
-18.64
-17.58
-16.46
-15.69
-15.35
-15.27
-15.14
-14.72
-14.04
-13.37
-13.19
-13.99
-15.98
-18.94
-22.13
-24.54
-25.10
-23.14
-18.54
-11.77
-3.68
4.75
12.67
19.52
24.98
29.03
31.75
33.38
34.15
34.21
33.65
32.44
30.65
28.40
25.92
23.47
21.23
19.22
17.44
15.90
14.69
13.97
13.74
13.96
14.53
15.45
16.93
19.25
22.65
26.99
31.70
35.73
38.07
38.09
35.88
32.16
27.98
24.19
21.07
18.29
14.99
10.23
3.19
-6.59
-19.19
-34.21
-50.64
-67.00
-81.54
-92.92
-100.65
-105.22
-107.52
-108.11
-106.66
-102.03
-93.05
-79.39
-62.11
-43.49
-26.22
-12.45
-3.42
0.39
-1.17
-7.83
-18.52
-30.79
-41.11
-46.10
-43.87
-34.66
-20.04
-1.32
21.60
49.61
82.60
118.05
150.74
174.80
186.24
184.84
173.79
157.69
140.52
124.67
111.51
102.00
96.79
95.54
96.44
96.62
93.53
86.33
76.21
65.40
55.67
47.50
40.29
33.30
26.44
20.23
15.26
11.59
8.68
5.77
2.53
-0.78
-3.68
-5.79
-7.11
-8.03
-9.06
-10.57
-12.63
-15.00
-17.25
-19.19
-20.93
-22.89
-25.43
-28.59
-32.09
-35.63
-39.39
-44.23
-51.45
-62.09
-76.26
-92.79
-109.32
-123.10
-131.73
-133.88
-129.55
-119.90
-106.85
-92.58
-78.96
-67.11
-57.01
-47.49
-36.73
-23.24
-6.83
10.71
25.81
34.04
31.64
16.93
-9.04
-42.67
-78.92
-112.55
-139.47
-157.62
-167.28
-170.70
-170.81
-169.61
-166.67
-159.04
-142.50
-114.14
-74.49
-28.31
16.84
53.37
76.37
84.86
81.14
68.92
51.48
31.07
9.27
-12.28
-31.56
-46.67
-56.65
-62.13
-65.18
-68.38
-73.59
-81.15
-89.79
-97.11
-100.83
-99.69
-94.09
-86.02
-78.39
-74.04
-74.60
-79.86
-87.47
-93.76
-94.96
-88.60
-74.37
-54.15
-31.16
-8.72
10.63
25.64
36.05
41.99
43.55
40.60
33.08
21.41
6.81
-8.72
-22.77
-33.13
-38.42
-38.38
-33.92
-26.60
-18.05
-9.50
-1.60
5.45
11.59
16.67
20.56
23.12
24.43
24.82
24.73
24.60
24.73
25.24
26.05
26.97
27.73
28.07
27.87
27.13
26.00
24.62
23.03
21.01
18.18
14.08
8.48
1.55
-6.11
-13.58
-19.93
-24.60
-27.61
-29.59
-31.60
-34.79
-39.93
-47.08
-55.44
-63.39
-68.92
-70.15
-65.84
-55.88
-41.29
-23.91
-5.97
10.45
23.91
33.77
40.12
43.67
45.41
46.27
46.98
47.83
48.66
49.13
48.92
48.00
46.69
45.55
45.09
45.51
46.70
48.23
49.61
50.45
50.49
49.59
47.60
44.27
39.37
32.82
24.88
16.17
7.52
-0.24
-6.60
-11.57
-15.61
-19.49
-24.00
-29.74
-36.85
-44.96
-53.04
-59.59
-62.91
-61.60
-54.99
-43.50
-28.52
-12.01
4.12
18.48
30.44
40.04
47.70
53.94
59.23
63.82
67.78
70.91
72.91
73.49
72.55
70.34
67.37
64.22
61.38
59.17
57.69
56.99
57.07
57.83
58.95
59.84
59.76
58.09
54.64
49.80
44.39
39.33
35.22
32.15
29.63
26.89
23.23
18.37
12.53
6.38
0.76
-3.63
-6.44
-7.75
-8.03
-8.06
-8.77
-11.00
-15.18
-21.06
-27.50
-32.71
-34.66
-31.78
-23.54
-10.69
5.05
21.64
37.39
51.35
63.25
73.08
80.76
86.19
89.47
91.27
92.89
95.93
101.71
110.84
122.99
137.10
151.72
165.32
176.46
183.74
185.99
182.47
173.14
158.85
141.27
122.50
104.45
88.28
74.23
61.73
50.02
38.74
28.24
19.48
13.49
10.74
10.87
12.69
14.59
15.11
13.18
8.29
0.29
-10.64
-23.91
-38.50
-53.06
-66.49
-78.50
-89.87
-102.09
-116.39
-132.60
-148.54
-160.52
-164.69
-158.86
-143.54
-121.81
-97.91
-75.52
-56.52
-40.90
-27.68
-16.17
-6.71
-0.43
1.63
-0.43
-4.82
-8.52
-8.38
-2.53
8.85
23.56
38.29
49.77
55.70
54.86
46.82
31.74
10.65
-13.99
-38.33
-58.27
-71.31
-78.09
-82.32
-88.87
-100.81
-117.16
-133.05
-142.03
-139.62
-125.62
-104.16
-81.52
-63.19
-51.82
-47.12
-47.11
-49.91
-54.71
-61.59
-70.71
-81.39
-91.93
-100.10
-104.20
-103.85
-100.06
-94.63
-89.09
-83.82
-77.93
-69.75
-57.77
-41.68
-22.67
-3.05
14.63
28.47
37.85
43.36
46.41
48.47
50.51
52.77
54.94
56.55
57.27
57.12
56.39
55.44
54.52
53.70
52.95
52.29
51.79
51.63
51.84
52.30
52.60
52.29
50.98
48.55
45.17
41.25
37.19
33.30
29.59
25.87
21.86
17.34
12.25
6.70
0.92
-4.81
-10.22
-15.16
-19.57
-23.46
-26.97
-30.29
-33.75
-37.70
-42.32
-47.41
-52.32
-55.88
-56.83
-54.22
-47.75
-37.98
-26.12
-13.62
-1.76
8.63
17.18
23.80
28.52
31.39
32.53
32.17
30.75
28.76
26.64
24.66
22.93
21.39
19.98
18.66
17.48
16.49
15.63
14.75
13.76
12.61
11.47
10.60
10.24
10.38
10.71
10.64
9.66
7.51
4.34
0.57
-3.27
-6.88
-10.17
-13.28
-16.37
-19.57
-22.93
-26.61
-30.85
-35.87
-41.69
-47.84
-53.37
-56.95
-57.31
-53.65
-45.98
-35.14
-22.59
-9.96
1.36
10.50
17.17
21.57
24.19
25.68
26.65
27.61
28.85
30.43
32.17
33.74
34.81
35.15
34.75
33.78
32.55
31.34
30.36
29.60
28.89
27.97
26.58
24.56
21.90
18.68
15.05
11.13
6.92
2.42
-2.41
-7.53
-12.78
-17.92
-22.72
-27.07
-31.01
-34.76
-38.66
-43.02
-48.09
-53.84
-59.94
-65.63
-69.83
-71.34
-69.13
-62.71
-52.39
-39.24
-24.82
-10.80
1.51
11.30
18.39
23.00
25.59
26.73
27.00
26.96
27.05
27.60
28.71
30.30
32.11
33.79
35.02
35.65
35.72
35.50
35.30
35.30
35.48
35.54
35.01
33.48
30.75
26.93
22.43
17.75
13.30
9.27
5.58
1.96
-1.91
-6.26
-11.13
-16.34
-21.56
-26.48
-30.84
-34.65
-38.15
-41.77
-45.99
-51.04
-56.66
-61.98
-65.64
-66.07
-62.12
-53.39
-40.48
-24.86
-8.42
7.02
20.16
30.39
37.78
42.75
45.91
47.81
48.89
49.51
49.94
50.41
51.09
52.01
53.04
53.92
54.28
53.81
52.44
50.37
48.07
46.13
45.04
45.12
46.44
48.89
52.07
55.18
56.94
55.80
50.43
40.22
25.73
8.56
-9.22
-25.80
-40.15
-52.03
-61.58
-68.81
-73.52
-75.51
-75.04
-73.00
-70.67
-69.27
-69.42
-71.03
-73.39
-75.58
-76.70
-75.98
-72.85
-66.91
-58.15
-47.01
-34.44
-21.69
-9.91
0.04
7.78
13.31
16.81
18.57
18.94
18.37
17.31
16.20
15.33
14.82
14.66
14.80
15.22
15.95
17.02
18.49
20.35
22.53
24.83
26.93
28.40
28.86
28.06
26.03
23.11
19.75
16.46
13.54
11.06
8.85
6.59
3.90
0.63
-3.18
-7.14
-10.69
-13.28
-14.69
-15.26
-15.90
-17.85
-22.07
-28.68
-36.64
-43.88
-47.87
-46.50
-38.75
-25.06
-7.13
12.56
31.37
47.05
58.00
63.39
63.29
58.55
50.69
41.45
32.39
24.50
18.00
12.56
7.66
3.03
-1.13
-4.17
-5.22
-3.53
1.10
8.21
16.62
24.79
31.32
35.44
37.40
38.42
40.11
43.76
49.74
57.21
64.37
68.94
68.91
63.03
51.11
33.99
13.23
-9.18
-31.27
-51.42
-68.62
-82.54
-93.32
-101.26
-106.37
-108.14
-105.65
-98.06
-85.08
-67.41
-46.64
-24.80
-3.78
15.13
31.42
45.14
56.50
65.67
72.59
77.03
78.69
77.30
72.70
65.00
54.71
42.78
30.47
19.12
9.81
3.27
-0.18
-0.59
1.72
6.09
11.56
16.94
21.09
23.25
23.31
21.71
19.29
16.81
14.59
12.36
9.51
5.37
-0.41
-7.67
-15.85
-24.20
-32.05
-38.99
-44.96
-50.17
-55.08
-60.22
-66.06
-72.77
-80.02
-86.86
-91.91
-93.57
-90.63
-82.72
-70.61
-55.95
-40.90
-27.50
-17.16
-10.49
-7.42
-7.51
-10.23
-15.22
-22.17
-30.78
-40.51
-50.61
-60.16
-68.31
-74.51
-78.50
-80.34
-80.00
-77.20
-71.35
-61.82
-48.39
-31.44
-11.97
8.82
29.84
50.38
70.09
88.75
106.17
122.15
136.64
149.75
161.70
172.52
182.00
189.73
195.46
199.42
202.37
205.23
208.60
212.34
215.46
216.35
213.17
204.35
188.80
166.25
137.29
103.35
66.34
28.08
-10.53
-49.76
-90.55
-133.25
-176.13
-214.75
-242.71
-253.64
-243.57
-212.53
-164.76
-107.39
-48.59
4.41
46.38
74.63
88.90
91.04
84.25
72.29
58.48
45.02
32.90
22.30
13.29
6.23
1.79
0.43
2.09
5.85
10.07
12.68
11.66
5.61
-5.71
-20.89
-36.66
-48.62
-52.53
-46.18
-30.65
-10.53
7.50
16.83
13.04
-4.81
-34.36
-70.85
-108.57
-141.93
-166.30
-178.73
-178.47
-167.24
-148.78
-127.79
-108.26
-92.37
-80.03
-69.60
-59.07
-47.23
-34.08
-20.53
-7.90
2.82
11.15
17.00
20.57
22.18
22.35
21.81
21.50
22.25
24.43
27.79
31.37
33.95
34.44
32.31
27.85
22.00
16.02
11.04
7.66
5.80
4.82
3.76
1.83
-1.37
-5.64
-10.33
-14.64
-18.03
-20.50
-22.57
-25.15
-29.10
-34.93
-42.55
-51.30
-60.08
-67.67
-73.09
-75.85
-76.13
-74.67
-72.57
-70.91
-70.46
-71.41
-73.47
-76.12
-78.99
-81.98
-85.35
-89.52
-94.74
-100.73
-106.26
-109.22
-107.00
-97.35
-79.49
-54.60
-25.70
3.49
29.83
51.90
70.01
85.43
99.14
110.97
119.63
123.54
121.77
114.82
104.52
93.41
83.80
77.03
73.19
71.56
71.14
71.22
71.45
71.81
72.21
72.32
71.56
69.49
66.14
62.03
58.08
55.26
54.24
55.44
59.07
65.25
73.92
84.62
96.25
107.04
114.87
117.69
114.25
104.53
90.01
73.23
57.25
44.87
38.02
37.56
43.22
54.01
68.43
84.67
100.63
114.18
123.51
127.74
127.28
123.77
119.51
116.75
116.92
120.46
126.97
135.63
145.11
153.37
157.45
154.27
141.97
121.01
94.14
64.86
35.20
4.43
-30.29
-71.56
-119.24
-169.33
-215.37
-251.25
-273.84
-283.75
-283.94
-277.41
-265.52
-247.99
-224.28
-195.05
-162.67
-130.63
-102.37
-80.11
-64.42
-54.42
-48.47
-44.90
-42.48
-40.50
-38.73
-37.10
-35.40
-33.22
-29.90
-24.89
-18.00
-9.62
-0.66
7.71
14.43
19.03
21.66
23.02
24.07
25.66
28.31
32.00
36.27
40.33
43.30
44.42
43.21
39.51
33.44
25.32
15.61
4.77
-6.78
-18.72
-30.87
-43.10
-55.19
-66.65
-76.61
-83.85
-87.17
-85.80
-79.75
-69.98
-58.08
-45.86
-34.85
-25.96
-19.40
-14.88
-11.93
-10.07
-9.18
-9.52
-11.69
-16.23
-23.05
-30.80
-36.71
-37.11
-28.52
-8.92
21.52
60.29
103.13
145.22
182.21
211.01
230.16
239.62
240.23
233.22
219.76
200.99
178.18
152.83
126.69
101.40
78.10
57.14
38.11
20.36
3.37
-12.89
-28.17
-42.16
-54.68
-65.69
-75.05
-82.49
-87.60
-89.92
-89.21
-85.58
-79.57
-72.08
-64.25
-57.12
-51.29
-46.80
-43.16
-39.70
-35.90
-31.62
-27.16
-23.18
-20.35
-19.11
-19.37
-20.46
-21.34
-20.91
-18.49
-14.21
-9.07
-4.49
-1.65
-0.95
-1.77
-2.86
-3.15
-2.48
-1.75
-2.49
-5.99
-12.60
-21.86
-33.00
-45.49
-59.13
-73.48
-87.41
-99.36
-108.38
-115.40
-123.40
-136.07
-155.46
-179.98
-204.10
-220.31
-222.36
-207.94
-179.59
-143.31
-105.87
-72.56
-46.07
-26.83
-14.06
-6.81
-4.34
-5.96
-10.64
-16.77
-22.29
-25.27
-24.45
-19.82
-12.52
-4.44
2.62
7.57
10.42
11.93
13.10
14.48
15.91
16.66
15.93
13.34
9.17
4.19
-0.78
-5.27
-9.31
-13.38
-18.01
-23.53
-29.85
-36.59
-43.24
-49.41
-54.92
-59.81
-64.26
-68.37
-71.96
-74.30
-74.18
-70.04
-60.58
-45.29
-24.88
-1.36
22.54
44.00
60.95
72.38
78.48
80.23
79.10
76.72
74.65
74.26
76.40
81.21
87.97
95.20
100.97
103.45
101.49
94.91
84.65
72.41
60.29
50.05
42.73
38.39
36.24
35.16
34.17
32.85
31.22
29.37
27.19
24.18
19.78
13.76
6.52
-1.01
-7.83
-13.40
-17.86
-21.93
-26.41
-31.76
-37.90
-44.35
-50.49
-55.76
-59.67
-61.61
-60.85
-56.65
-48.61
-37.01
-22.94
-8.11
5.63
16.77
24.46
28.61
29.79
28.93
27.06
25.08
23.57
22.79
22.69
23.06
23.65
24.26
24.75
24.91
24.45
23.00
20.17
15.79
9.97
3.04
-4.54
-12.45
-20.61
-29.07
-37.94
-47.14
-56.40
-65.23
-73.21
-80.12
-86.01
-91.09
-95.70
-100.26
-105.31
-111.47
-119.30
-128.83
-139.20
-148.36
-153.39
-151.15
-139.09
-115.88
-81.66
-37.99
12.55
66.83
121.63
174.05
221.82
263.39
298.08
325.84
347.07
362.34
372.06
376.24
374.31
365.05
346.79
317.96
277.81
227.16
168.71
106.78
46.48
-7.44
-51.63
-84.75
-107.45
-121.69
-129.72
-133.23
-133.05
-129.40
-122.47
-113.00
-102.30
-91.98
-83.32
-77.07
-73.38
-72.24
-73.79
-78.27
-85.76
-95.63
-106.34
-115.61
-121.09
-121.09
-115.19
-104.30
-90.27
-75.19
-60.78
-48.03
-37.22
-28.24
-20.91
-15.24
-11.45
-9.88
-10.87
-14.66
-21.23
-30.19
-40.73
-51.54
-61.11
-68.22
-72.14
-72.91
-70.93
-66.47
-59.26
-48.46
-33.07
-12.68
12.04
39.36
66.90
92.45
114.54
132.53
146.40
156.26
162.04
163.50
160.54
153.47
143.13
130.77
117.72
105.00
93.17
82.30
72.27
63.03
54.69
47.59
42.08
38.31
36.11
34.93
34.08
32.96
31.42
29.81
28.94
29.59
32.16
36.17
40.30
42.66
41.25
34.52
21.64
2.51
-22.43
-52.33
-85.92
-121.44
-156.62
-188.65
-214.30
-230.34
-234.02
-223.87
-200.23
-165.50
-123.69
-79.39
-36.37
3.38
39.71
73.45
104.97
133.31
156.19
170.97
175.89
170.77
156.93
136.47
111.77
85.53
61.09
42.15
31.70
30.18
34.39
38.06
34.33
18.99
-7.13
-38.16
-65.67
-82.21
-84.18
-72.56
-51.64
-26.62
-1.71
20.55
38.71
51.67
58.55
59.13
54.46
46.97
39.69
34.99
33.72
35.13
37.57
39.38
39.43
36.99
31.35
22.12
9.98
-2.27
-10.09
-8.94
3.03
23.35
45.90
63.72
72.31
71.05
62.40
49.27
33.14
13.90
-8.55
-32.20
-52.55
-64.26
-64.04
-52.68
-35.10
-18.12
-7.64
-6.42
-13.30
-23.90
-32.29
-33.40
-25.09
-9.58
6.77
15.66
10.07
-12.66
-49.69
-93.78
-136.28
-170.07
-191.21
-198.80
-193.71
-177.36
-151.34
-117.72
-79.44
-40.11
-3.42
27.68
51.42
67.23
75.43
76.86
72.66
64.14
52.73
39.77
26.48
13.95
3.27
-4.38
-7.97
-7.10
-2.31
4.82
12.10
17.49
19.81
19.06
16.23
12.67
9.47
7.01
5.06
3.04
0.53
-2.50
-5.66
-8.46
-10.66
-12.38
-14.12
-16.48
-19.87
-24.33
-29.43
-34.50
-38.89
-42.24
-44.59
-46.32
-47.97
-49.97
-52.43
-55.05
-57.16
-57.91
-56.48
-52.06
-43.88
-31.24
-13.78
8.29
34.09
62.09
90.34
116.76
139.34
156.26
166.05
167.92
162.13
150.34
135.63
121.87
112.50
109.23
111.12
114.51
114.16
104.96
83.75
50.69
9.60
-32.66
-67.93
-88.96
-91.53
-75.57
-44.97
-6.11
34.30
70.92
100.35
120.63
130.37
128.42
114.51
90.54
61.25
33.70
15.24
11.16
22.93
47.88
80.37
113.53
140.79
156.81
158.10
143.22
113.03
70.37
19.53
-34.66
-87.73
-136.11
-177.44
-210.41
-234.67
-250.66
-259.57
-262.99
-262.64
-259.96
-255.82
-250.59
-244.35
-237.22
-229.62
-222.31
-216.12
-211.53
-208.21
-204.96
-199.86
-190.87
-176.52
-156.58
-132.14
-105.31
-78.40
-53.18
-30.43
-9.97
8.81
26.39
42.67
56.94
68.14
75.55
79.06
79.49
78.26
76.96
76.79
78.26
81.30
85.37
89.86
94.13
97.63
99.90
100.65
99.97
98.34
96.71
96.20
97.78
102.01
108.80
117.37
126.20
133.42
137.26
136.85
132.82
127.45
124.01
125.47
132.92
144.84
157.37
165.46
164.22
150.22
121.85
79.42
25.27
-36.26
-99.14
-156.76
-203.59
-236.76
-256.35
-264.30
-262.52
-251.20
-228.80
-193.60
-146.14
-90.53
-33.94
15.93
53.65
77.81
90.55
95.34
94.64
88.57
75.51
54.08
24.98
-8.22
-39.68
-63.02
-73.37
-68.87
-51.20
-25.00
3.49
28.01
44.07
49.98
47.32
39.95
32.64
29.27
31.65
39.18
49.46
59.31
65.82
67.01
62.14
51.73
37.27
20.74
4.23
-10.26
-21.10
-27.08
-27.57
-22.87
-14.33
-4.28
4.36
8.98
8.18
2.41
-5.95
-13.22
-15.87
-11.98
-2.32
9.55
18.33
18.97
8.61
-12.20
-39.55
-67.41
-89.42
-100.49
-97.59
-79.99
-48.97
-7.60
39.51
86.75
128.41
160.18
180.27
189.82
192.22
191.61
191.15
192.13
194.04
195.38
194.78
191.28
184.19
172.47
154.31
127.35
89.70
41.31
-15.05
-73.70
-127.25
-168.74
-193.75
-201.82
-196.21
-182.55
-166.70
-153.13
-144.09
-139.85
-139.47
-141.44
-144.08
-145.55
-144.07
-138.12
-126.93
-110.92
-91.61
-71.34
-52.60
-37.35
-26.48
-19.74
-16.02
-13.78
-11.70
-8.99
-5.60
-1.93
1.43
4.08
5.94
7.22
8.21
9.13
9.98
10.64
10.93
10.76
10.23
9.55
9.06
9.08
9.74
10.93
12.12
12.49
11.14
7.34
0.95
-7.53
-17.01
-26.20
-34.04
-40.15
-44.91
-49.27
-54.25
-60.37
-67.31
-73.81
-78.05
-78.27
-73.41
-63.54
-49.91
-34.54
-19.61
-6.88
2.62
8.56
11.12
10.60
7.35
1.71
-5.81
-14.44
-23.10
-30.58
-35.72
-37.43
-34.63
-26.31
-11.72
9.06
34.69
62.44
88.83
110.52
125.31
132.54
132.80
127.36
117.51
104.52
89.85
75.36
63.27
55.54
53.34
56.60
64.11
73.92
83.73
91.23
94.34
91.70
83.14
70.12
55.54
43.05
35.80
35.33
41.04
50.45
60.13
66.84
68.42
64.05
54.08
39.38
20.82
-0.86
-24.85
-49.82
-73.86
-94.46
-109.22
-116.51
-116.08
-109.09
-97.71
-84.38
-70.95
-58.36
-46.67
-35.54
-24.80
-14.74
-6.15
0.10
3.41
3.85
1.95
-1.52
-5.90
-10.95
-16.63
-23.04
-30.03
-37.22
-44.00
-49.80
-54.19
-56.97
-58.08
-57.52
-55.36
-51.80
-47.25
-42.31
-37.69
-34.03
-31.62
-30.52
-30.46
-31.03
-31.69
-31.91
-31.21
-29.25
-25.96
-21.57
-16.72
-12.13
-8.45
-6.07
-5.01
-5.00
-5.67
-6.68
-7.89
-9.34
-11.19
-13.64
-16.75
-20.43
-24.43
-28.53
-32.54
-36.47
-40.40
-44.35
-48.16
-51.58
-54.35
-56.58
-58.77
-61.83
-66.54
-73.21
-81.23
-89.22
-95.52
-98.79
-98.63
-95.60
-90.77
-85.09
-78.88
-71.65
-62.61
-51.20
-37.53
-22.48
-7.33
6.58
18.15
26.40
30.43
29.43
23.38
13.85
4.15
-1.27
1.29
12.70
29.84
46.59
56.57
56.52
48.25
37.93
33.37
40.34
60.18
89.48
121.88
150.47
169.97
177.56
172.63
156.29
130.91
99.62
65.88
33.08
4.08
-18.76
-33.57
-39.18
-35.28
-22.84
-4.45
15.97
34.15
46.38
50.77
47.41
37.42
22.98
7.05
-6.60
-14.01
-11.78
1.10
22.69
47.89
68.38
76.48
68.56
46.64
17.32
-11.01
-32.55
-45.18
-50.60
-54.87
-63.92
-80.47
-103.01
-127.31
-148.22
-163.42
-172.64
-177.39
-182.67
-192.71
-208.71
-228.01
-245.92
-257.29
-260.14
-253.94
-223.40
-162.35
-77.97
10.36
81.32
116.89
120.55
101.35
70.40
38.52
14.95
4.94
10.13
29.16
58.43
93.75
129.32
160.24
182.94
193.10
187.82
167.60
136.86
102.49
71.87
49.28
36.20
31.62
31.60
31.63
28.78
22.69
15.03
8.40
4.12
2.50
3.02
4.03
3.83
1.59
-2.37
-7.02
-11.14
-14.22
-16.26
-17.58
-18.84
-20.85
-24.06
-28.56
-34.11
-40.27
-46.63
-52.53
-57.00
-58.83
-56.80
-50.12
-38.73
-23.53
-6.21
11.14
26.62
38.97
47.75
53.29
56.39
57.93
58.65
59.02
59.25
59.43
59.59
59.78
59.94
60.03
59.98
59.72
59.26
58.65
57.94
57.09
56.02
54.53
52.45
49.61
45.97
41.65
36.92
32.21
27.87
24.09
20.77
17.51
13.86
9.49
4.45
-0.90
-6.02
-10.49
-14.18
-17.33
-20.49
-24.34
-29.38
-35.68
-42.63
-48.94
-52.88
-52.83
-47.79
-37.87
-24.23
-8.83
6.27
19.42
29.71
36.89
41.24
43.31
43.72
43.13
42.12
41.23
40.77
40.87
41.38
42.05
42.60
42.85
42.78
42.54
42.30
42.15
42.01
41.60
40.51
38.46
35.40
31.54
27.34
23.24
19.49
16.11
12.84
9.33
5.30
0.68
-4.37
-9.49
-14.26
-18.35
-21.57
-23.97
-25.86
-27.73
-30.09
-33.37
-37.61
-42.32
-46.47
-48.69
-47.72
-42.83
-34.15
-22.72
-10.15
1.84
11.90
19.29
23.95
26.32
27.05
26.82
26.22
25.62
25.27
25.27
25.58
26.07
26.59
27.07
27.47
27.83
28.25
28.77
29.36
29.85
29.98
29.44
28.00
25.55
22.19
18.20
13.98
9.94
6.33
3.22
0.42
-2.34
-5.27
-8.43
-11.66
-14.74
-17.43
-19.69
-21.65
-23.67
-26.18
-29.55
-33.89
-38.91
-43.81
-47.40
-48.45
-46.05
-39.98
-30.87
-19.99
-8.92
0.99
8.85
14.39
17.79
19.45
19.87
19.52
18.79
18.01
17.47
17.29
17.47
17.86
18.29
18.62
18.81
18.82
18.64
18.20
17.34
15.91
13.86
11.19
8.10
4.85
1.67
-1.27
-3.95
-6.42
-8.81
-11.19
-13.59
-15.97
-18.25
-20.38
-22.33
-24.14
-25.88
-27.65
-29.58
-31.77
-34.21
-36.64
-38.54
-39.09
-37.47
-33.14
-26.10
-17.03
-7.10
2.36
10.25
15.94
19.43
21.04
21.30
20.67
19.46
17.80
15.79
13.57
11.34
9.40
8.04
7.54
8.02
9.45
11.64
14.24
16.81
18.86
19.99
19.89
18.50
15.90
12.33
8.10
3.49
-1.29
-6.05
-10.62
-14.80
-18.35
-21.08
-22.90
-23.86
-24.18
-24.16
-24.13
-24.32
-24.80
-25.43
-25.81
-25.36
-23.46
-19.68
-13.98
-6.81
0.91
8.10
13.82
17.52
19.12
18.96
17.54
15.32
12.61
9.62
6.48
3.35
0.43
-2.06
-3.97
-5.21
-5.73
-5.53
-4.63
-3.05
-0.93
1.53
4.02
6.11
7.38
7.40
5.95
3.02
-1.06
-5.71
-10.30
-14.36
-17.76
-20.67
-23.47
-26.48
-29.90
-33.61
-37.18
-39.93
-41.00
-39.61
-35.25
-27.97
-18.45
-7.86
2.50
11.55
18.71
23.92
27.43
29.54
30.44
30.11
28.55
25.85
22.34
18.53
14.95
12.06
10.06
8.97
8.65
8.97
9.85
11.20
12.87
14.56
15.82
16.13
15.02
12.21
7.70
1.70
-5.34
-12.85
-20.19
-26.84
-32.51
-37.30
-41.54
-45.71
-49.93
-53.83
-56.42
-56.39
-52.70
-45.05
-34.17
-21.62
-9.31
1.18
9.04
14.37
17.90
20.54
22.93
25.25
27.32
28.85
29.68
29.95
29.92
29.83
29.73
29.49
28.88
27.75
26.17
24.29
22.32
20.35
18.33
16.11
13.55
10.59
7.31
3.86
0.42
-2.87
-5.92
-8.68
-11.16
-13.39
-15.47
-17.60
-20.12
-23.49
-28.04
-33.79
-40.10
-45.74
-49.03
-48.42
-43.10
-33.35
-20.51
-6.58
6.43
17.04
24.51
28.87
30.61
30.50
29.33
27.81
26.44
25.48
24.98
24.81
24.84
24.95
25.16
25.57
26.36
27.71
29.68
32.23
35.11
37.91
40.06
41.02
40.41
38.09
34.19
28.96
22.77
15.96
8.87
1.83
-4.87
-11.03
-16.57
-21.49
-25.92
-29.96
-33.70
-37.25
-40.79
-44.53
-48.54
-52.53
-55.76
-57.13
-55.51
-50.18
-41.21
-29.46
-16.42
-3.71
7.30
15.77
21.47
24.63
25.79
25.57
24.64
23.49
22.49
21.80
21.42
21.22
21.04
20.76
20.32
19.79
19.33
19.12
19.26
19.62
19.93
19.75
18.71
16.60
13.52
9.78
5.85
2.21
-0.83
-3.13
-4.68
-5.61
-6.05
-6.11
-5.88
-5.50
-5.21
-5.36
-6.43
-8.94
-13.25
-19.44
-27.06
-35.11
-42.07
-46.33
-46.52
-42.02
-33.11
-20.99
-7.34
6.07
17.84
27.09
33.54
37.28
38.69
38.23
36.44
33.87
31.02
28.25
25.76
23.55
21.54
19.63
17.84
16.35
15.39
15.17
15.69
16.69
17.72
18.24
17.77
16.13
13.44
10.05
6.36
2.63
-1.06
-4.84
-8.84
-13.13
-17.62
-21.99
-25.90
-29.10
-31.54
-33.41
-35.04
-36.82
-39.11
-42.09
-45.74
-49.73
-53.37
-55.68
-55.53
-52.05
-44.87
-34.46
-21.96
-8.99
2.91
12.64
19.75
24.36
26.94
28.03
28.16
27.77
27.28
27.12
27.67
29.15
31.53
34.46
37.40
39.70
40.94
40.97
39.97
38.35
36.48
34.56
32.50
30.06
26.98
23.24
19.12
15.04
11.46
8.57
6.25
4.13
1.73
-1.33
-5.17
-9.66
-14.44
-19.01
-22.93
-25.87
-27.80
-28.98
-30.03
-31.65
-34.49
-38.74
-43.94
-48.99
-52.37
-52.62
-48.83
-41.03
-30.10
-17.61
-5.24
5.64
14.26
20.43
24.46
26.83
28.03
28.44
28.34
27.95
27.41
26.80
26.14
25.40
24.55
23.56
22.51
21.46
20.50
19.67
18.91
18.12
17.17
15.94
14.31
12.24
9.75
6.90
3.84
0.67
-2.53
-5.75
-9.06
-12.51
-16.09
-19.69
-23.16
-26.35
-29.14
-31.45
-33.22
-34.43
-35.10
-35.43
-35.79
-36.70
-38.65
-41.80
-45.80
-49.73
-52.37
-52.54
-49.46
-43.01
-33.75
-22.72
-11.15
-0.24
9.04
16.04
20.50
22.54
22.65
21.66
20.47
19.93
20.57
22.50
25.37
28.48
31.06
32.46
32.54
31.67
30.68
30.43
31.56
34.15
37.63
41.03
43.24
43.48
41.49
37.69
33.13
29.08
26.54
25.73
25.90
25.53
23.15
18.16
11.36
4.95
1.87
4.83
15.33
33.24
56.60
82.02
105.28
122.15
129.57
126.65
115.10
98.80
82.49
69.94
62.72
59.99
59.26
57.85
54.05
47.53
38.95
29.28
19.24
9.21
-0.53
-9.46
-16.83
-21.96
-24.61
-25.20
-24.67
-24.17
-24.65
-26.44
-29.32
-32.62
-35.58
-37.73
-39.09
-40.08
-41.40
-43.62
-46.89
-50.69
-54.05
-55.80
-55.14
-51.99
-47.06
-41.60
-36.93
-33.97
-33.13
-34.35
-37.27
-41.51
-46.71
-52.53
-58.69
-64.99
-71.34
-77.80
-84.35
-90.75
-96.40
-100.41
-101.99
-100.79
-97.09
-91.76
-85.96
-80.79
-77.01
-74.94
-74.49
-75.24
-76.49
-77.26
-76.39
-72.76
-65.49
-54.31
-39.68
-22.78
-5.18
11.46
25.97
37.76
46.81
53.44
57.87
60.04
59.49
55.57
47.75
36.05
21.14
4.44
-12.16
-26.73
-37.80
-44.99
-49.05
-51.71
-54.76
-59.11
-63.90
-66.26
-62.21
-48.17
-22.80
12.01
51.26
88.36
117.24
134.09
138.05
130.69
114.80
93.17
68.10
41.41
14.93
-9.42
-29.88
-45.40
-56.04
-62.81
-67.25
-70.70
-73.97
-77.20
-80.02
-81.82
-81.92
-79.70
-74.73
-66.91
-56.61
-44.63
-32.06
-19.99
-9.38
-0.78
5.52
9.34
10.60
9.33
5.78
0.54
-5.54
-11.54
-16.65
-20.44
-22.88
-24.23
-24.98
-25.62
-26.56
-28.09
-30.41
-33.61
-37.71
-42.47
-47.37
-51.45
-53.46
-52.12
-46.55
-36.63
-23.10
-7.55
8.14
22.22
33.51
41.51
46.34
48.52
48.68
47.53
45.70
43.77
42.24
41.44
41.50
42.31
43.53
44.79
45.74
46.15
46.02
45.45
44.60
43.53
42.16
40.20
37.28
33.12
27.66
21.13
14.01
6.81
0.00
-6.18
-11.68
-16.61
-21.22
-25.80
-30.70
-36.20
-42.30
-48.49
-53.71
-56.54
-55.61
-50.11
-40.11
-26.63
-11.36
3.81
17.22
27.70
34.75
38.36
38.98
37.28
34.09
30.21
26.32
22.91
20.23
18.28
16.85
15.63
14.28
12.66
10.84
9.13
7.85
7.18
7.00
6.86
6.16
4.36
1.21
-3.15
-8.22
-13.35
-17.86
-21.30
-23.62
-25.18
-26.74
-29.10
-32.81
-37.76
-43.03
-47.02
-47.85
-44.08
-35.18
-21.86
-5.86
10.53
25.16
36.53
44.09
48.11
49.39
48.90
47.52
45.85
44.28
42.98
41.98
41.15
40.26
39.01
37.21
34.90
32.34
29.96
28.18
27.18
26.77
26.43
25.50
23.39
19.83
14.93
9.14
3.00
-2.97
-8.55
-13.80
-19.05
-24.77
-31.28
-38.55
-46.01
-52.57
-56.76
-57.13
-52.66
-43.16
-29.46
-13.21
3.47
18.53
30.45
38.50
42.79
44.07
43.41
41.88
40.32
39.22
38.76
38.82
39.21
39.62
39.78
39.51
38.70
37.42
35.80
34.07
32.42
30.88
29.31
27.36
24.69
21.05
16.47
11.23
5.83
0.80
-3.50
-7.00
-10.04
-13.24
-17.36
-22.90
-29.85
-37.47
-44.28
-48.50
-48.46
-43.19
-32.72
-18.17
-1.36
15.54
30.63
42.65
51.11
56.27
58.86
59.80
59.82
59.42
58.76
57.85
56.69
55.37
54.10
53.05
52.33
51.93
51.76
51.78
51.92
52.06
51.99
51.33
49.67
46.66
42.18
36.42
29.77
22.72
15.74
9.09
2.89
-2.94
-8.57
-14.12
-19.58
-24.72
-29.20
-32.68
-35.07
-36.64
-38.04
-40.02
-43.21
-47.72
-53.05
-58.12
-61.52
-61.90
-58.38
-50.87
-40.07
-27.37
-14.44
-2.84
6.39
12.80
16.54
18.20
18.47
18.07
17.50
17.04
16.72
16.44
16.01
15.33
14.39
13.34
12.34
11.59
11.18
11.13
11.37
11.74
11.97
11.77
10.84
9.03
6.39
3.16
-0.28
-3.58
-6.52
-9.13
-11.65
-14.34
-17.44
-20.92
-24.56
-27.98
-30.87
-33.09
-34.80
-36.37
-38.25
-40.79
-44.01
-47.55
-50.64
-52.21
-51.17
-46.67
-38.51
-27.22
-14.08
-0.74
11.18
20.58
27.04
30.76
32.36
32.54
31.89
30.77
29.43
27.96
26.48
25.06
23.72
22.50
21.39
20.43
19.66
19.10
18.67
18.27
17.70
16.75
15.30
13.35
10.99
8.35
5.54
2.55
-0.66
-4.11
-7.72
-11.30
-14.64
-17.55
-19.99
-22.04
-23.88
-25.74
-27.89
-30.53
-33.75
-37.40
-40.99
-43.70
-44.52
-42.65
-37.66
-29.81
-19.87
-9.05
1.42
10.44
17.34
21.89
24.36
25.31
25.52
25.72
26.34
27.48
28.91
30.23
31.09
31.26
30.65
29.31
27.31
24.77
21.82
18.62
15.32
12.02
8.72
5.32
1.69
-2.26
-6.56
-11.07
-15.53
-19.56
-22.83
-25.11
-26.43
-27.07
-27.49
-28.20
-29.60
-31.94
-35.18
-38.95
-42.57
-45.08
-45.48
-43.04
-37.53
-29.44
-19.85
-10.14
-1.52
5.20
9.75
12.36
13.52
13.80
13.70
13.56
13.57
13.73
13.97
14.19
14.28
14.22
14.06
13.88
13.71
13.58
13.44
13.17
12.70
11.95
10.91
9.53
7.79
5.59
2.87
-0.40
-4.06
-7.78
-11.19
-13.96
-15.93
-17.12
-17.75
-18.11
-18.58
-19.54
-21.27
-23.94
-27.36
-30.99
-33.91
-35.10
-33.65
-29.06
-21.46
-11.60
-0.73
9.70
18.40
24.56
28.06
29.44
29.61
29.51
29.77
30.51
31.46
32.20
32.42
32.10
31.43
30.67
29.99
29.41
28.84
28.18
27.36
26.41
25.33
24.11
22.70
20.99
18.95
16.59
13.99
11.21
8.41
5.75
3.40
1.46
-0.16
-1.75
-3.65
-6.16
-9.36
-12.99
-16.64
-19.85
-22.38
-24.18
-25.49
-26.66
-28.10
-30.18
-33.16
-37.11
-41.80
-46.61
-50.47
-52.11
-50.40
-44.74
-35.33
-23.22
-9.93
2.92
14.03
22.63
28.42
31.46
32.06
30.63
27.77
24.17
20.56
17.57
15.49
14.30
13.60
12.94
11.88
10.21
8.01
5.51
3.05
0.85
-1.03
-2.77
-4.60
-6.75
-9.32
-12.25
-15.40
-18.55
-21.46
-23.85
-25.42
-25.93
-25.30
-23.76
-21.77
-19.94
-18.73
-18.25
-18.26
-18.27
-17.81
-16.64
-14.92
-13.12
-11.97
-12.24
-14.41
-18.49
-23.74
-28.82
-32.14
-32.29
-28.58
-21.20
-11.11
0.26
11.45
21.18
28.46
32.65
33.44
31.11
26.46
20.80
15.67
12.39
11.77
13.88
18.16
23.65
29.33
34.29
37.93
39.93
40.27
39.09
36.66
33.23
29.02
24.13
18.67
12.84
6.97
1.52
-3.03
-6.40
-8.60
-9.96
-11.09
-12.56
-14.75
-17.81
-21.64
-26.03
-30.82
-35.90
-41.15
-46.49
-51.74
-56.68
-61.06
-64.56
-66.78
-67.19
-65.19
-60.21
-52.08
-41.14
-28.36
-15.19
-3.16
6.54
13.27
17.06
18.43
18.06
16.65
14.75
12.77
11.01
9.72
9.01
8.92
9.36
10.19
11.29
12.57
14.03
15.63
17.30
18.86
20.07
20.67
20.48
19.49
17.90
16.02
14.20
12.61
11.22
9.81
8.12
5.94
3.26
0.23
-2.89
-5.88
-8.58
-11.02
-13.39
-16.02
-19.25
-23.34
-28.19
-33.21
-37.34
-39.23
-37.69
-32.13
-22.79
-10.79
2.26
14.63
24.92
32.25
36.34
37.39
35.95
32.79
28.75
24.63
21.02
18.19
16.13
14.66
13.54
12.58
11.72
10.88
10.00
8.88
7.38
5.47
3.28
1.10
-0.76
-2.13
-3.12
-4.02
-5.25
-7.08
-9.59
-12.60
-15.83
-18.96
-21.86
-24.51
-27.06
-29.71
-32.66
-36.03
-39.84
-43.85
-47.51
-49.94
-50.06
-46.83
-39.67
-28.71
-14.87
0.25
14.79
27.08
36.02
41.20
42.92
41.88
38.95
34.98
30.61
26.29
22.36
19.05
16.59
15.14
14.72
15.19
16.27
17.57
18.73
19.51
19.76
19.44
18.56
17.09
14.97
12.12
8.53
4.34
-0.22
-4.89
-9.40
-13.61
-17.50
-21.24
-25.12
-29.44
-34.47
-40.19
-46.24
-51.80
-55.65
-56.50
-53.26
-45.53
-33.77
-19.30
-4.05
10.00
21.20
28.66
32.29
32.74
31.10
28.47
25.67
23.22
21.32
20.02
19.42
19.59
20.57
22.24
24.33
26.45
28.26
29.55
30.19
30.11
29.17
27.15
23.81
19.11
13.25
6.64
-0.16
-6.66
-12.52
-17.61
-22.07
-26.15
-30.25
-34.84
-40.29
-46.66
-53.50
-59.73
-63.81
-64.15
-59.63
-50.11
-36.52
-20.65
-4.73
9.24
19.83
26.41
29.10
28.55
25.74
21.69
17.41
13.68
11.05
9.76
9.71
10.55
11.72
12.66
12.97
12.56
11.66
10.63
9.79
9.16
8.47
7.24
5.01
1.63
-2.69
-7.49
-12.23
-16.52
-20.26
-23.65
-27.11
-31.08
-35.85
-41.37
-47.10
-51.96
-54.52
-53.32
-47.42
-36.73
-22.21
-5.65
10.83
25.29
36.40
43.58
46.81
46.52
43.29
37.82
30.94
23.56
16.63
10.84
6.50
3.48
1.28
-0.61
-2.58
-4.63
-6.55
-8.08
-9.20
-10.21
-11.59
-13.73
-16.69
-20.09
-23.22
-25.37
-26.13
-25.60
-24.42
-23.57
-24.04
-26.44
-30.74
-36.08
-40.83
-42.98
-40.61
-32.62
-19.01
-1.14
18.70
37.87
54.08
65.91
72.92
75.57
74.81
71.73
67.30
62.24
57.05
52.01
47.30
42.95
38.84
34.78
30.56
26.08
21.50
17.13
13.31
10.17
7.46
4.57
0.81
-4.27
-10.60
-17.60
-24.38
-30.09
-34.25
-36.87
-38.53
-40.09
-42.50
-46.39
-51.77
-57.76
-62.64
-64.28
-60.79
-51.23
-36.13
-17.40
2.16
19.72
33.16
41.56
45.16
44.94
42.25
38.30
34.04
30.08
26.72
24.08
22.02
20.25
18.41
16.23
13.64
10.88
8.37
6.49
5.34
4.57
3.49
1.34
-2.39
-7.73
-14.17
-20.92
-27.16
-32.35
-36.43
-39.80
-43.21
-47.40
-52.76
-58.99
-64.94
-68.70
-68.21
-61.90
-49.40
-31.78
-11.41
8.75
26.00
38.57
45.94
48.73
48.27
46.09
43.56
41.57
40.52
40.37
40.78
41.27
41.33
40.61
39.01
36.70
34.09
31.71
30.02
29.24
29.17
29.24
28.63
26.56
22.56
16.69
9.47
1.75
-5.60
-11.97
-17.19
-21.59
-25.86
-30.89
-37.41
-45.65
-54.99
-63.88
-70.11
-71.41
-66.27
-54.53
-37.65
-18.33
0.31
15.57
25.90
31.11
32.08
30.30
27.32
24.37
22.20
21.13
21.09
21.68
22.20
21.79
19.64
15.29
9.00
1.82
-4.56
-8.12
-6.96
0.52
15.40
38.26
69.13
107.50
152.31
201.73
253.00
302.14
343.95
372.53
382.30
369.53
333.59
277.33
206.45
127.91
48.45
-26.48
-92.81
-147.65
-189.12
-216.58
-231.10
-235.29
-232.65
-226.22
-217.66
-206.92
-193.05
-175.32
-154.17
-131.34
-109.28
-90.24
-75.49
-65.13
-58.26
-53.57
-49.85
-46.18
-42.11
-37.45
-32.19
-26.42
-20.19
-13.50
-6.32
1.37
9.50
17.86
26.09
33.78
40.54
46.08
50.17
52.66
53.41
52.33
49.47
45.15
39.94
34.58
29.76
25.96
23.24
21.34
19.78
18.09
15.97
13.28
10.06
6.40
2.42
-1.76
-6.00
-10.08
-13.83
-17.09
-19.91
-22.54
-25.39
-28.90
-33.41
-38.90
-44.88
-50.34
-53.89
-54.11
-49.95
-41.16
-28.42
-13.25
2.38
16.49
27.53
34.71
37.98
37.95
35.64
32.17
28.51
25.29
22.75
20.82
19.30
18.03
16.94
16.11
15.63
15.58
15.96
16.66
17.47
18.07
18.10
17.18
15.11
11.91
7.86
3.42
-0.92
-4.85
-8.29
-11.42
-14.48
-17.66
-21.00
-24.35
-27.46
-30.10
-32.17
-33.82
-35.42
-37.49
-40.50
-44.61
-49.43
-53.96
-56.77
-56.38
-51.77
-42.76
-30.15
-15.48
-0.66
12.61
23.10
30.30
34.32
35.74
35.31
33.83
31.92
30.00
28.23
26.61
25.04
23.43
21.84
20.36
19.18
18.36
17.84
17.43
16.83
15.84
14.33
12.32
9.91
7.20
4.22
1.02
-2.36
-5.85
-9.38
-12.91
-16.45
-20.03
-23.62
-27.14
-30.38
-33.27
-35.91
-38.67
-42.08
-46.57
-52.11
-57.99
-62.81
-64.89
-62.78
-55.89
-44.71
-30.68
-15.82
-1.99
9.48
17.98
23.59
26.80
28.21
28.49
28.14
27.62
27.21
27.04
27.04
27.04
26.81
26.18
25.12
23.71
22.14
20.64
19.39
18.53
18.05
17.84
17.61
17.03
15.81
13.83
11.25
8.40
5.70
3.39
1.45
-0.46
-2.79
-5.89
-9.88
-14.48
-19.18
-23.46
-26.91
-29.42
-31.15
-32.56
-34.16
-36.39
-39.41
-42.95
-46.27
-48.33
-48.04
-44.66
-38.10
-28.99
-18.61
-8.47
0.11
6.37
10.17
11.98
12.55
12.71
13.07
13.95
15.39
17.17
18.93
20.28
20.96
20.86
20.10
18.95
17.70
16.61
15.87
15.57
15.70
16.14
16.70
17.04
16.87
15.90
14.06
11.49
8.56
5.75
3.51
2.13
1.62
1.71
1.92
1.71
0.70
-1.27
-4.05
-7.24
-10.31
-12.71
-14.07
-14.35
-13.87
-13.29
-13.42
-14.85
-17.63
