1564790615.00
64.000000
-0.00
-0.00
-0.00
-0.00
-0.00
-0.00
-0.00
-0.00
-0.00
-0.00
0.00
0.01
0.01
-0.00
-0.03
-0.05
-0.05
0.00
0.13
0.36
0.66
1.01
1.37
1.72
2.06
2.40
2.79
3.24
3.80
4.42
5.07
5.69
6.25
6.76
7.30
7.93
8.70
9.73
10.92
12.16
13.35
14.42
15.43
16.54
17.96
19.83
22.39
25.43
28.69
31.87
34.81
37.58
40.52
44.07
48.54
54.34
61.11
68.34
75.44
82.08
88.33
94.72
101.97
110.63
121.26
133.36
146.15
158.72
170.54
181.65
192.73
205.16
217.69
232.59
250.49
271.48
294.32
316.10
332.53
339.00
332.20
311.30
278.71
238.27
194.30
149.95
106.78
65.03
24.60
-14.19
-50.57
-83.21
-111.44
-135.03
-154.42
-170.01
-181.94
-189.98
-193.72
-193.07
-188.27
-180.34
-170.65
-160.58
-151.15
-142.88
-135.76
-129.07
-122.27
-114.97
-107.30
-99.66
-92.51
-86.17
-80.69
-75.87
-71.35
-66.89
-62.32
-57.73
-53.30
-49.26
-45.75
-42.78
-40.21
-37.87
-35.63
-33.42
-31.23
-29.13
-27.21
-25.52
-24.10
-22.92
-21.96
-21.21
-20.63
-20.22
-19.95
-19.81
-19.77
-19.81
-19.90
-20.02
-20.16
-20.31
-20.45
-20.57
-20.64
-20.64
-20.54
-20.35
-20.03
-19.60
-19.05
-18.40
-17.67
-16.91
-16.14
-15.41
-14.75
-14.19
-13.77
-13.48
-13.35
-13.39
-13.57
-13.89
-14.31
-14.77
-15.21
-15.58
-15.84
-15.96
-15.96
-15.88
-15.73
-15.55
-15.35
-15.13
-14.89
-14.67
-14.54
-14.55
-14.76
-15.18
-15.77
-16.43
-17.05
-17.55
-17.92
-18.19
-18.46
-18.85
-19.40
-20.10
-20.84
-21.51
-21.99
-22.31
-22.63
-23.20
-24.23
-25.86
-27.98
-30.33
-32.50
-34.27
-35.66
-36.99
-38.85
-41.79
-46.09
-51.55
-57.60
-63.47
-68.60
-72.95
-77.06
-81.85
-88.17
-96.38
-106.13
-116.47
-126.38
-135.22
-143.13
-150.91
-159.65
-170.27
-183.40
-199.35
-218.32
-240.18
-263.84
-286.73
-304.99
-314.56
-312.80
-299.93
-279.14
-255.30
-232.72
-213.38
-196.47
-179.67
-161.10
-140.81
-120.86
-103.89
-91.25
-82.07
-73.63
-63.01
-48.98
-32.73
-17.27
-5.62
1.09
4.36
7.51
13.79
24.40
37.79
50.57
59.39
62.94
62.78
62.43
65.32
72.94
83.90
94.79
102.18
104.58
103.29
101.55
102.60
107.75
115.73
123.45
127.96
128.19
125.45
122.61
122.28
125.27
130.18
134.26
134.95
131.38
124.79
117.70
112.50
110.04
109.21
107.70
103.42
95.82
86.43
77.99
72.82
71.42
72.10
71.94
68.60
61.80
53.57
47.09
44.77
46.81
51.03
53.96
52.84
47.15
38.73
30.80
26.07
25.23
26.70
27.67
25.80
20.72
14.23
9.20
7.81
10.19
14.29
17.23
16.95
13.57
9.30
7.05
8.63
13.64
19.60
23.38
23.00
18.74
12.88
8.46
7.44
9.69
13.12
14.98
13.59
9.29
4.30
1.24
1.54
4.52
7.84
9.10
7.22
3.28
-0.23
-0.94
1.91
6.93
11.38
12.75
10.10
4.64
-0.96
-4.02
-3.28
0.44
4.81
7.19
6.23
2.65
-1.21
-2.71
-0.58
4.21
8.97
10.81
8.37
2.72
-3.20
-6.26
-4.92
-0.09
5.37
8.39
7.52
3.61
-0.61
-2.26
0.04
5.35
10.91
13.80
12.62
8.30
3.52
1.07
2.21
5.92
9.60
10.63
8.09
3.23
-1.24
-2.81
-0.61
4.00
8.29
9.81
7.70
3.24
-1.00
-2.72
-1.17
2.47
5.80
6.67
4.48
0.52
-2.76
-3.24
-0.48
4.00
7.53
7.84
4.52
-0.73
-5.02
-5.86
-2.71
2.71
7.43
8.96
6.74
2.42
-1.14
-1.68
1.05
5.20
7.87
6.97
2.56
-3.07
-6.73
-6.17
-1.49
4.93
9.75
10.66
7.57
2.59
-1.35
-2.22
0.02
3.54
5.90
5.57
2.84
-0.40
-1.93
-0.55
3.12
6.96
8.46
6.33
1.27
-4.30
-7.50
-6.56
-1.96
3.80
7.60
7.37
3.34
-2.11
-5.86
-5.88
-2.38
2.34
5.25
4.53
0.63
-4.04
-6.59
-5.40
-1.22
3.40
5.59
4.06
-0.19
-4.48
-6.07
-3.91
0.70
4.91
6.05
3.21
-2.16
-7.05
-8.69
-6.13
-0.77
4.46
6.79
5.26
1.20
-2.58
-3.50
-0.73
4.33
8.89
10.44
8.31
4.00
0.24
-0.68
1.68
5.69
8.56
8.09
3.99
-1.90
-6.69
-8.01
-5.35
-0.31
4.38
6.38
4.96
1.41
-1.86
-2.74
-0.68
3.02
5.99
6.17
3.19
-1.37
-4.82
-4.93
-1.31
4.30
8.89
9.98
7.01
1.70
-3.00
-4.67
-2.86
0.76
3.41
2.99
-0.54
-5.21
-8.14
-7.33
-2.89
3.01
7.39
8.24
5.51
1.22
-1.88
-1.93
0.90
4.63
6.73
5.52
1.38
-3.55
-6.65
-6.31
-2.92
1.33
3.76
2.81
-1.10
-5.80
-8.63
-8.01
-4.38
0.16
3.04
2.71
-0.42
-4.35
-6.65
-5.97
-2.87
0.59
2.12
0.67
-2.78
-5.69
-5.43
-0.99
6.24
13.08
16.26
14.27
8.31
1.63
-2.32
-1.78
2.35
7.17
9.45
7.58
2.43
-3.23
-6.48
-5.89
-2.37
1.49
3.09
1.49
-2.08
-4.90
-4.63
-0.82
4.67
8.74
8.95
5.01
-1.00
-5.83
-6.97
-4.18
0.41
3.68
3.36
-0.65
-6.25
-10.41
-10.97
-7.71
-2.49
1.97
3.65
2.27
-0.51
-2.27
-1.26
2.46
7.07
10.01
9.51
5.80
0.95
-2.24
-1.88
1.81
6.69
9.91
9.64
6.10
1.44
-1.63
-1.40
1.82
5.87
8.05
6.69
2.10
-3.55
-7.46
-7.82
-4.83
-0.57
2.21
1.67
-1.95
-6.50
-9.13
-8.18
-4.12
0.65
3.28
2.27
-1.55
-5.59
-7.03
-4.58
0.76
6.34
9.39
8.68
5.05
0.90
-1.29
-0.40
2.73
5.80
6.45
3.63
-1.54
-6.45
-8.36
-6.02
-0.61
4.84
7.10
4.57
-1.69
-8.61
-12.77
-12.30
-7.95
-2.47
1.06
1.00
-1.97
-5.50
-7.07
-5.65
-2.27
0.78
1.36
-1.00
-4.74
-7.17
-6.10
-1.24
5.48
10.91
12.41
9.38
3.67
-1.55
-3.40
-0.89
4.58
10.04
12.61
11.09
6.63
2.05
0.12
2.08
6.72
11.20
12.68
9.99
4.43
-1.03
-3.49
-2.00
1.89
5.04
4.67
0.15
-6.54
-11.95
-13.30
-10.09
-4.48
0.05
0.72
-2.87
-8.59
-13.10
-13.73
-10.00
-3.81
1.78
4.37
3.45
0.67
-1.34
-0.60
3.00
7.61
10.53
9.94
6.01
0.91
-2.38
-1.90
2.19
7.52
10.86
10.02
5.04
-1.79
-7.27
-9.09
-7.05
-3.11
-0.09
-0.06
-3.00
-7.09
-9.74
-9.24
-5.80
-1.48
1.12
0.42
-3.10
-7.10
-8.78
-6.58
-1.19
4.82
8.41
7.94
4.11
-0.45
-2.69
-0.96
4.00
9.57
12.78
12.03
8.08
3.47
1.02
2.16
6.08
10.25
11.92
9.73
4.56
-1.02
-4.25
-3.75
-0.44
3.08
4.17
1.74
-3.05
-7.41
-8.61
-5.65
0.10
5.58
7.91
6.04
1.34
-3.19
-4.73
-2.38
2.28
6.15
6.47
2.46
-4.08
-9.87
-12.07
-9.83
-4.82
-0.11
1.60
-0.36
-4.28
-7.25
-6.97
-3.30
1.62
4.59
3.30
-2.19
-9.34
-14.51
-14.95
-10.36
-3.01
3.54
6.41
4.98
0.98
-2.58
-3.26
-0.72
3.27
5.94
5.36
1.61
-3.12
-5.87
-4.71
0.05
5.92
9.70
9.19
4.63
-1.51
-5.98
-6.50
-3.04
2.30
6.59
7.84
5.96
2.67
0.29
0.31
2.55
5.30
6.44
4.86
1.10
-2.96
-4.99
-3.70
0.45
5.43
8.63
8.30
4.47
-0.93
-5.22
-6.39
-4.30
-0.69
1.81
1.35
-1.91
-5.94
-8.06
-6.63
-2.13
3.08
6.15
5.45
1.62
-2.95
-5.47
-4.44
-0.48
4.01
6.33
5.15
1.20
-3.16
-5.33
-4.05
-0.18
3.84
5.41
3.29
-1.54
-6.38
-8.40
-6.25
-0.93
4.80
7.95
7.03
2.91
-1.73
-3.99
-2.45
1.91
6.43
8.26
6.14
1.21
-3.78
-6.02
-4.38
-0.01
4.31
5.87
3.62
-1.29
-6.07
-7.92
-5.68
-0.53
4.65
6.89
4.84
-0.39
-5.90
-8.71
-7.62
-3.80
-0.11
0.87
-1.48
-5.34
-7.60
-6.05
-0.75
5.73
9.80
9.09
3.90
-2.96
-7.80
-8.09
-3.90
2.32
7.14
8.18
5.27
0.45
-3.33
-3.95
-1.27
2.88
5.83
5.75
2.70
-1.37
-3.82
-2.96
0.87
5.48
8.06
6.88
2.37
-3.05
-6.44
-5.95
-1.85
3.61
7.48
7.81
4.63
-0.20
-4.11
-5.30
-3.70
-0.83
1.20
1.01
-1.27
-4.03
-5.24
-3.67
0.28
4.72
7.27
6.45
2.63
-2.10
-5.08
-4.62
-0.99
3.77
6.98
6.94
3.97
0.21
-1.79
-0.58
3.21
7.19
8.61
6.05
0.39
-5.69
-9.14
-8.30
-3.83
1.60
4.91
4.33
0.33
-4.70
-7.92
-7.73
-4.61
-0.79
1.20
0.05
-3.57
-7.42
-9.06
-7.35
-3.14
1.27
3.44
2.27
-1.27
-4.79
-5.93
-3.72
0.73
4.89
6.44
4.53
0.42
-3.35
-4.47
-2.19
2.30
6.49
8.12
6.36
2.24
-1.89
-3.76
-2.40
1.24
4.83
5.86
3.22
-2.09
-7.44
-9.96
-8.27
-3.33
2.07
4.98
4.00
0.21
-3.57
-4.52
-1.63
3.72
8.49
10.04
7.56
2.65
-1.68
-2.89
-0.41
4.16
7.95
8.60
5.66
0.79
-3.25
-4.20
-1.69
2.60
5.95
6.24
3.07
-1.91
-6.07
-7.19
-4.80
-0.39
3.39
4.28
1.73
-2.82
-6.72
-7.64
-4.98
-0.15
4.22
5.76
3.79
-0.35
-4.07
-5.08
-2.80
1.39
5.01
6.04
4.15
0.95
-1.09
-0.24
3.33
7.56
9.66
7.90
2.76
-3.23
-6.88
-6.23
-1.71
4.07
7.80
7.39
3.20
-2.36
-6.13
-6.13
-2.63
2.08
5.13
4.63
0.83
-4.16
-7.64
-7.84
-5.02
-1.23
0.93
-0.16
-4.19
-8.99
-11.84
-11.06
-6.98
-1.81
1.67
1.84
-0.88
-4.28
-5.65
-3.54
1.36
6.59
9.32
7.98
3.30
-2.18
-5.55
-5.10
-1.39
3.23
6.09
5.72
2.80
-0.43
-1.61
0.20
3.83
6.65
6.40
2.53
-3.24
-7.81
-8.61
-5.10
0.86
6.04
7.64
4.95
-0.28
-4.89
-6.07
-3.02
2.61
7.77
9.65
7.39
2.54
-1.96
-3.54
-1.49
2.59
5.80
5.72
1.89
-3.88
-8.59
-9.83
-7.16
-2.34
1.72
2.83
0.59
-3.30
-6.24
-6.19
-3.00
1.66
5.26
5.95
3.72
0.38
-1.51
-0.26
3.95
8.97
12.03
11.25
6.91
1.27
-2.65
-2.79
0.65
5.27
7.87
6.30
0.84
-6.05
-11.02
-11.84
-8.63
-3.69
-0.09
0.21
-2.55
-6.10
-7.65
-5.59
-0.53
5.10
8.32
7.38
2.68
-3.51
-8.15
-9.18
-6.44
-1.77
2.14
3.26
1.38
-1.89
-4.06
-3.38
0.02
4.26
6.73
5.78
1.77
-3.08
-5.99
-5.33
-1.55
3.01
5.66
4.84
1.18
-2.96
-4.92
-3.35
0.91
5.35
7.22
5.29
0.53
-4.36
-6.53
-4.60
0.55
6.20
9.36
8.46
4.24
-0.77
-3.72
-3.17
0.07
3.43
4.19
1.20
-4.42
-9.77
-11.86
-9.35
-3.37
3.04
6.71
6.05
1.95
-2.82
-5.33
-4.21
-0.29
4.00
6.17
5.23
2.32
-0.15
0.00
3.27
8.01
11.39
11.04
6.53
-0.23
-6.04
-8.20
-5.96
-0.96
3.70
5.26
2.79
-2.29
-7.15
-9.16
-7.44
-3.25
0.78
2.30
0.67
-2.81
-5.58
-5.49
-2.08
3.05
7.11
7.77
4.47
-1.07
-5.82
-7.11
-4.20
1.29
6.32
8.16
6.04
1.57
-2.31
-3.12
-0.32
4.26
7.59
7.32
3.26
-2.53
-7.00
-7.91
-5.21
-1.06
1.55
0.59
-3.76
-9.18
-12.52
-11.59
-6.48
0.57
6.37
8.54
6.77
2.88
-0.35
-0.84
1.52
4.95
6.92
5.62
1.27
-3.98
-7.31
-6.75
-2.43
3.54
8.15
9.17
6.40
1.62
-2.45
-3.76
-1.97
1.29
3.66
3.48
0.81
-2.59
-4.40
-3.23
0.41
4.38
6.13
4.39
-0.10
-4.83
-7.03
-5.33
-0.66
4.31
6.71
5.11
0.48
-4.38
-6.52
-4.50
0.76
6.44
9.46
8.32
3.92
-1.00
-3.50
-2.18
1.95
6.09
7.30
4.39
-1.48
-7.41
-10.45
-9.43
-5.53
-1.59
-0.30
-2.53
-6.85
-10.39
-10.62
-6.95
-1.12
3.87
5.51
3.26
-1.16
-4.86
-5.54
-2.78
1.80
5.49
6.11
3.33
-1.32
-5.27
-6.36
-4.00
0.43
4.49
5.99
4.25
0.49
-2.87
-3.65
-1.18
3.22
7.03
7.98
5.47
1.03
-2.62
-3.18
-0.18
4.64
8.41
8.89
5.80
1.03
-2.51
-2.66
0.67
5.47
8.86
8.77
5.23
0.35
-2.98
-2.80
0.77
5.58
8.67
8.08
3.89
-1.80
-6.12
-7.04
-4.50
-0.46
2.33
2.01
-1.40
-5.90
-8.74
-8.07
-4.07
1.14
4.66
4.56
0.96
-4.08
-7.69
-7.94
-4.93
-0.55
2.55
2.61
-0.20
-3.91
-5.95
-4.66
-0.37
4.80
8.10
7.76
4.11
-0.59
-3.47
-2.77
1.07
5.62
7.88
6.18
1.20
-4.37
-7.42
-6.32
-1.91
2.94
5.11
3.03
-2.29
-7.90
-10.59
-8.68
-3.07
3.47
7.83
8.29
5.38
1.41
-1.04
-0.61
2.09
4.98
5.88
3.88
-0.02
-3.57
-4.71
-2.80
0.85
3.77
3.77
0.45
-4.60
-8.58
-9.15
-5.84
-0.38
4.19
5.39
2.62
-2.35
-6.47
-7.22
-4.08
1.12
5.30
5.89
2.45
-3.08
-7.42
-7.93
-4.12
2.07
7.39
9.23
7.12
2.94
-0.31
-0.37
2.92
7.53
10.44
9.45
4.52
-2.26
-7.72
-9.48
-7.20
-2.71
1.04
1.76
-0.88
-5.12
-8.10
-7.68
-3.85
1.33
4.81
4.43
0.34
-5.07
-8.49
-7.70
-2.78
3.79
8.62
9.33
5.87
0.44
-3.82
-4.67
-2.08
1.92
4.50
3.75
-0.16
-5.01
-7.93
-7.11
-2.88
2.47
5.98
5.75
2.17
-2.43
-5.10
-3.97
0.59
6.25
10.06
10.10
6.60
1.75
-1.62
-1.68
1.34
5.29
7.38
5.95
1.41
-3.95
-7.32
-7.10
-3.83
0.14
2.14
0.80
-3.12
-7.12
-8.58
-6.32
-1.46
3.34
5.34
3.43
-1.21
-5.65
-7.01
-4.05
1.96
7.93
10.72
8.91
3.67
-1.92
-4.65
-3.07
1.75
6.81
9.01
7.05
2.18
-2.76
-4.91
-3.27
0.70
4.05
4.24
0.60
-5.08
-9.67
-10.52
-7.04
-1.12
3.98
5.60
3.06
-1.85
-5.94
-6.53
-2.97
3.01
8.28
10.09
7.69
2.70
-1.91
-3.52
-1.42
2.88
6.49
6.94
3.59
-1.93
-6.78
-8.49
-6.41
-2.13
1.57
2.34
-0.35
-4.81
-8.22
-8.21
-4.40
1.40
6.07
7.16
4.16
-1.04
-5.23
-5.75
-2.10
3.78
8.61
9.51
5.77
-0.83
-7.04
-9.96
-8.65
-4.55
-0.61
0.53
-1.82
-6.03
-9.24
-9.07
-5.23
0.26
4.27
4.62
1.28
-3.46
-6.39
-5.38
-0.67
5.22
9.05
8.82
4.93
-0.08
-3.09
-2.24
2.06
7.41
10.80
10.34
6.30
0.88
-3.07
-3.60
-0.74
3.59
6.74
6.81
3.75
-0.71
-4.09
-4.70
-2.60
0.36
1.82
0.39
-3.44
-7.46
-9.11
-7.04
-1.99
3.58
6.85
6.41
2.90
-1.24
-3.33
-2.00
1.97
6.15
7.88
5.88
1.03
-4.10
-6.76
-5.63
-1.60
2.70
4.48
2.43
-2.46
-7.40
-9.45
-7.26
-1.79
4.12
7.52
6.97
3.41
-0.56
-2.23
-0.52
3.42
6.85
7.15
3.44
-2.74
-8.33
-10.48
-8.25
-3.13
1.86
3.95
2.24
-1.83
-5.34
-5.71
-2.26
3.35
8.08
9.35
6.45
0.99
-4.00
-5.88
-3.78
0.93
5.43
7.14
5.05
0.39
-4.19
-6.11
-4.35
0.06
4.61
6.87
5.88
2.69
-0.44
-1.44
0.23
3.29
5.44
4.83
1.28
-3.55
-7.09
-7.33
-4.04
1.03
5.15
6.20
3.79
-0.50
-4.01
-4.65
-2.02
2.36
5.95
6.66
4.17
0.11
-3.00
-3.17
-0.25
4.00
6.88
6.41
2.46
-3.05
-7.25
-7.92
-4.78
0.39
4.76
6.15
4.25
0.74
-1.82
-1.50
1.72
6.00
8.71
8.02
4.06
-1.20
-5.06
-5.77
-3.51
-0.17
1.78
0.77
-2.84
-7.06
-9.44
-8.59
-5.04
-0.98
1.09
-0.22
-4.26
-8.63
-10.61
-8.83
-3.96
1.50
4.74
4.22
0.65
-3.46
-5.26
-3.23
1.87
7.47
10.57
9.54
5.09
-0.14
-3.09
-2.15
1.93
6.48
8.49
6.41
1.22
-4.22
-6.88
-5.39
-0.95
3.50
5.03
2.51
-2.67
-7.38
-8.75
-5.84
-0.15
5.26
7.52
5.73
1.35
-2.72
-3.88
-1.39
3.18
6.91
7.23
3.49
-2.57
-7.87
-9.67
-7.24
-2.21
2.37
3.78
1.26
-3.65
-7.93
-9.02
-6.26
-1.30
2.85
3.68
0.65
-4.49
-8.70
-9.42
-5.98
0.04
5.80
8.74
8.07
4.99
1.96
1.07
2.88
6.12
8.44
7.90
4.21
-0.95
-4.92
-5.55
-2.49
2.58
6.79
7.79
5.04
0.15
-4.12
-5.46
-3.38
0.57
3.72
3.88
0.80
-3.79
-7.21
-7.41
-4.23
0.58
4.32
5.01
2.50
-1.46
-4.23
-3.92
-0.46
4.27
7.53
7.25
3.39
-2.09
-6.21
-6.70
-3.19
2.45
7.21
8.61
6.14
1.49
-2.44
-3.31
-0.68
3.63
6.76
6.47
2.51
-3.14
-7.47
-8.28
-5.46
-1.11
1.75
1.12
-2.79
-7.68
-10.50
-9.49
-5.12
0.16
3.37
2.81
-0.93
-5.44
-7.91
-6.85
-2.90
1.68
4.45
4.23
1.81
-0.67
-1.01
1.60
6.14
10.25
11.71
9.68
5.25
0.78
-1.43
-0.47
2.69
5.83
6.68
4.37
-0.09
-4.28
-5.82
-3.76
0.77
5.13
6.71
4.52
-0.16
-4.57
-6.03
-3.59
1.36
5.84
7.04
4.04
-1.76
-7.34
-9.95
-8.63
-4.70
-0.98
-0.00
-2.57
-7.20
-11.10
-11.80
-8.63
-3.15
1.81
3.82
2.25
-1.33
-4.14
-3.90
-0.15
5.42
9.99
11.22
8.67
4.12
0.43
-0.04
3.05
7.88
11.49
11.49
7.50
1.41
-3.75
-5.51
-3.30
1.21
5.16
6.13
3.52
-1.15
-5.22
-6.51
-4.52
-0.71
2.46
2.95
0.42
-3.63
-6.71
-6.86
-3.87
0.60
3.97
4.28
1.43
-2.72
-5.46
-4.84
-0.88
4.43
8.12
8.07
4.21
-1.44
-5.91
-7.02
-4.59
-0.44
2.80
3.18
0.65
-3.01
-5.44
-5.06
-2.02
1.85
4.19
3.44
-0.17
-4.83
-8.16
-8.55
-6.03
-2.20
0.66
1.08
-0.86
-3.58
-4.95
-3.67
-0.14
3.68
5.40
3.67
-0.89
-6.02
-8.91
-7.92
-3.45
2.17
6.03
6.24
2.97
-1.69
-4.89
-4.68
-1.08
3.98
7.84
8.78
6.94
4.32
3.33
5.29
9.36
13.01
13.53
9.76
2.93
-3.92
-7.57
-6.43
-1.43
4.52
8.19
7.77
3.78
-1.48
-5.29
-6.12
-4.36
-1.86
-0.72
-1.88
-4.57
-6.82
-6.66
-3.50
1.41
5.57
6.72
4.14
-0.75
-5.21
-6.63
-4.09
1.12
6.17
8.32
6.43
1.54
-3.70
-6.55
-5.72
-1.93
2.48
5.03
4.49
1.57
-1.64
-2.91
-1.32
2.14
5.13
5.38
2.09
-3.33
-8.03
-9.27
-6.03
0.18
6.19
8.94
7.26
2.45
-2.50
-4.78
-3.39
0.35
3.66
4.06
0.89
-4.23
-8.47
-9.49
-6.87
-2.39
1.14
1.48
-1.60
-6.20
-9.43
-9.06
-4.79
1.50
6.81
8.77
6.90
2.85
-0.66
-1.51
0.56
3.89
5.90
4.70
0.33
-5.17
-8.94
-8.90
-4.95
0.96
5.92
7.75
6.07
2.47
-0.57
-1.18
0.92
4.15
6.20
5.35
1.67
-2.99
-6.02
-5.64
-1.97
2.82
5.85
5.17
0.94
-4.54
-8.16
-7.80
-3.60
2.18
6.44
7.01
3.90
-0.74
-3.90
-3.50
0.42
5.72
9.36
9.23
5.38
0.01
-3.82
-4.09
-1.00
3.04
4.96
2.91
-2.56
-8.74
-12.36
-11.59
-7.00
-1.29
2.34
2.09
-1.43
-5.74
-7.96
-6.51
-1.94
3.40
6.84
6.90
4.12
0.69
-0.87
0.77
4.92
9.29
11.28
9.56
4.93
-0.14
-2.94
-2.09
1.61
5.60
7.09
4.72
-0.65
-6.40
-9.75
-9.41
-6.32
-3.02
-2.17
-4.80
-9.65
-13.92
-14.86
-11.38
-4.75
1.99
5.80
5.24
1.26
-3.41
-5.84
-4.58
-0.41
4.29
6.92
6.26
3.16
-0.04
-0.99
1.25
5.51
9.22
9.90
6.74
1.10
-4.16
-6.40
-4.71
-0.42
3.67
4.87
2.27
-2.89
-7.80
-9.77
-7.71
-2.76
2.47
5.28
4.57
1.29
-2.07
-2.99
-0.47
4.35
8.88
10.66
8.78
4.62
0.97
0.34
3.43
8.57
12.77
13.45
10.10
4.53
-0.19
-1.64
0.44
4.00
6.03
4.39
-0.79
-7.13
-11.39
-11.37
-7.23
-1.49
2.62
2.90
-0.46
-5.15
-8.08
-7.27
-3.01
2.30
5.62
4.98
0.70
-4.84
-8.48
-8.20
-4.35
0.57
3.39
2.21
-2.48
-7.98
-10.98
-9.52
-4.21
2.11
6.03
5.46
0.90
-4.83
-8.34
-7.58
-2.97
2.89
6.79
6.84
3.57
-0.49
-2.28
-0.12
5.29
11.21
14.55
13.66
9.24
3.95
0.77
1.17
4.38
7.87
8.90
6.17
0.58
-5.28
-8.58
-7.93
-4.11
0.37
2.80
1.74
-2.07
-6.21
-8.04
-6.28
-1.85
2.71
4.77
3.24
-0.74
-4.53
-5.53
-2.79
2.42
7.38
9.46
7.73
3.33
-1.20
-3.41
-2.38
0.84
3.87
4.43
1.63
-3.38
-8.11
-10.03
-8.06
-3.22
1.85
4.31
2.81
-1.90
-7.28
-10.49
-10.01
-6.47
-2.23
0.10
-0.77
-3.98
-7.07
-7.55
-4.46
0.85
5.50
6.83
4.05
-1.23
-5.80
-6.75
-3.11
3.56
9.98
13.04
11.49
6.46
0.75
-2.80
-3.01
-0.82
1.42
1.46
-1.39
-5.82
-9.39
-9.95
-6.97
-2.01
2.22
3.40
0.98
-3.44
-7.07
-7.53
-4.24
1.22
5.97
7.60
5.58
1.58
-1.60
-1.77
1.27
5.59
8.29
7.45
3.34
-1.65
-4.48
-3.33
1.31
6.87
10.28
9.68
5.51
0.24
-3.20
-3.05
0.29
4.52
6.84
5.59
1.22
-3.91
-6.92
-6.18
-2.25
2.41
4.89
3.52
-1.15
-6.59
-9.76
-8.94
-4.65
0.68
4.08
3.83
0.36
-4.02
-6.54
-5.67
-1.97
2.25
4.42
3.16
-0.86
-5.26
-7.41
-5.95
-1.52
3.59
6.71
6.42
3.24
-0.64
-2.62
-1.18
3.14
8.08
10.88
9.86
5.45
-0.12
-4.08
-4.74
-2.43
0.84
2.65
1.75
-1.17
-3.86
-4.04
-0.87
4.38
8.98
10.23
7.16
1.15
-4.83
-7.75
-6.31
-1.57
3.61
6.24
4.83
0.29
-4.80
-7.67
-6.97
-3.58
0.09
1.68
0.27
-3.01
-5.78
-5.95
-2.97
1.78
5.76
6.86
4.55
0.26
-3.51
-4.58
-2.41
1.67
5.27
6.25
4.16
0.42
-2.53
-2.74
0.06
4.12
6.69
5.76
1.25
-4.72
-9.11
-9.78
-6.69
-1.99
1.29
1.06
-2.60
-7.53
-10.80
-10.43
-6.49
-1.04
3.10
3.79
0.91
-3.70
-7.21
-7.40
-3.92
1.58
6.37
8.24
6.75
3.50
1.05
1.50
5.12
10.14
13.70
13.57
9.52
3.44
-1.62
-3.30
-1.17
2.89
5.90
5.52
1.47
-4.20
-8.28
-8.23
-3.79
2.81
8.10
9.30
6.00
0.26
-4.53
-5.81
-3.14
1.52
5.07
5.21
1.74
-3.31
-7.07
-7.55
-4.96
-1.49
0.09
-1.81
-6.44
-11.20
-13.19
-10.91
-5.22
1.11
5.07
5.14
2.04
-1.68
-3.26
-1.40
3.05
7.62
9.61
7.71
2.79
-2.59
-5.50
-4.38
0.09
5.37
8.44
7.55
3.31
-1.75
-4.69
-3.93
-0.21
3.92
5.70
3.88
-0.48
-4.64
-5.99
-3.57
1.33
5.90
7.49
5.17
0.24
-4.55
-6.48
-4.52
0.12
4.72
6.47
4.23
-0.90
-6.15
-8.68
-7.26
-2.98
1.45
3.26
1.37
-2.93
-6.81
-7.65
-4.64
0.68
5.38
6.89
4.54
-0.01
-3.73
-4.10
-0.57
5.08
9.76
10.80
7.53
1.66
-3.77
-6.08
-4.44
-0.15
4.13
5.97
4.59
1.15
-1.99
-2.75
-0.57
3.22
6.17
6.26
3.11
-1.70
-5.45
-5.98
-2.89
2.01
5.72
5.79
1.75
-4.47
-9.66
-11.23
-8.68
-3.93
-0.05
0.59
-2.14
-6.10
-8.23
-6.50
-1.23
5.01
8.84
8.13
3.19
-3.37
-8.17
-8.97
-5.87
-1.08
2.41
2.60
-0.36
-4.44
-6.92
-6.13
-2.33
2.36
5.29
4.80
1.27
-3.15
-5.68
-4.64
-0.38
4.85
8.23
7.92
4.19
-0.72
-3.93
-3.62
-0.08
4.47
7.20
6.42
2.59
-1.89
-4.08
-2.38
2.54
8.07
11.09
9.90
5.13
-0.50
-3.86
-3.29
0.42
4.49
5.84
3.04
-2.75
-8.48
-11.04
-9.19
-4.34
0.38
2.04
-0.35
-5.13
-9.05
-9.27
-5.07
1.76
7.90
10.39
8.25
2.91
-2.65
-5.55
-4.54
-0.54
3.99
6.42
5.49
1.93
-2.04
-4.07
-3.02
0.38
4.01
5.68
4.51
1.44
-1.35
-1.83
0.54
4.40
7.27
7.03
3.27
-2.33
-6.94
-8.14
-5.34
-0.09
4.77
6.67
4.81
0.60
-3.23
-4.23
-1.66
3.02
7.10
8.15
5.63
1.13
-2.55
-3.22
-0.52
3.77
6.84
6.63
3.03
-2.01
-5.60
-5.69
-2.31
2.48
5.68
5.12
0.78
-5.22
-9.87
-10.83
-7.87
-2.85
1.28
2.20
-0.46
-4.98
-8.55
-8.99
-6.03
-1.53
1.66
1.28
-2.87
-8.85
-13.60
-14.74
-11.87
-6.84
-2.72
-1.97
-5.12
-10.46
-15.13
-16.87
-15.41
-12.56
-11.15
-13.33
-19.19
-26.69
-32.87
-35.54
-34.63
-32.31
-31.68
-34.81
-41.58
-49.72
-56.42
-59.99
-60.96
-61.49
-64.07
-69.79
-77.62
-85.21
-90.54
-93.34
-95.28
-98.71
-104.93
-113.36
-121.63
-126.69
-126.39
-119.85
-107.40
-89.24
-64.88
-32.55
9.08
60.09
118.79
182.09
246.04
306.05
357.41
396.05
422.14
438.42
449.62
460.46
471.91
481.20
481.80
465.59
424.83
357.08
265.08
155.68
37.15
-83.25
-200.16
-309.97
-409.85
-497.22
-569.43
-625.57
-666.61
-695.01
-713.86
-725.31
-729.74
-725.35
-710.74
-681.88
-634.96
-567.51
-479.05
-371.17
-247.08
-111.25
31.27
174.99
314.98
446.07
563.35
662.60
740.79
796.43
829.68
842.44
835.93
812.52
774.36
723.06
659.57
584.28
497.34
398.15
287.42
167.10
40.68
-87.75
-213.84
-333.39
-442.65
-538.54
-619.46
-684.36
-732.76
-764.46
-779.97
-780.68
-768.93
-747.92
-721.24
-691.91
-662.23
-633.47
-605.67
-577.94
-548.93
-517.22
-481.44
-440.65
-393.65
-338.92
-274.51
-197.94
-106.54
2.18
129.86
276.47
438.87
610.84
783.16
944.54
1083.54
1190.54
1259.62
1289.31
1282.17
1243.36
1179.02
1094.92
996.03
886.66
770.89
652.83
536.28
424.22
318.56
220.32
130.05
48.39
-23.55
-84.82
-134.78
-173.83
-203.47
-225.88
-243.20
-256.86
-267.19
-273.68
-275.53
-272.38
-264.93
-254.89
-244.38
-234.99
-227.10
-219.68
-210.90
-199.04
-183.47
-165.29
-146.98
-131.24
-119.70
-111.99
-105.82
-98.02
-86.27
-70.15
-51.93
-35.49
-24.78
-22.20
-28.14
-40.93
-58.19
-76.43
-90.72
-96.02
-89.05
-70.35
-45.38
-23.16
-12.54
-18.07
-37.45
-62.56
-84.16
-96.75
-100.96
-102.60
-108.90
-124.19
-146.51
-170.85
-189.09
-193.74
-183.14
-160.93
-134.41
-111.11
-95.96
-89.41
-88.04
-86.31
-79.60
-66.18
-47.42
-27.55
-10.81
-0.64
1.44
-3.65
-12.36
-19.81
-21.37
-14.64
-0.21
18.84
38.57
56.10
70.40
81.95
91.22
97.64
99.87
96.61
87.63
73.97
57.73
41.23
26.25
13.58
3.00
-6.49
-15.91
-25.86
-36.17
-45.96
-53.96
-59.27
-62.04
-63.42
-64.36
-64.31
-60.53
-49.08
-26.91
5.89
45.27
84.43
116.52
137.20
145.78
144.64
137.25
126.58
114.62
102.75
92.61
86.27
85.81
91.69
101.43
109.48
108.73
93.25
61.49
17.65
-29.64
-70.43
-97.76
-110.20
-111.57
-108.45
-106.85
-109.84
-116.94
-124.96
-129.43
-126.12
-112.33
-87.86
-55.53
-20.56
10.97
34.56
48.54
54.31
54.84
52.80
49.48
44.84
38.79
32.06
26.37
23.44
23.90
26.77
29.91
31.23
29.47
24.99
19.33
14.46
11.80
11.68
13.33
15.32
16.25
15.38
12.86
9.54
6.53
4.65
4.16
4.73
5.64
6.19
5.95
4.94
3.46
2.00
0.91
0.36
0.29
0.49
0.78
1.00
1.11
1.13
1.06
0.89
0.65
0.43
0.40
0.76
1.63
2.97
4.51
5.84
6.60
6.67
6.28
5.98
6.39
7.91
10.48
13.55
16.26
17.88
18.15
17.50
16.88
17.38
19.66
23.63
28.41
32.69
35.47
36.35
35.80
34.90
34.74
36.16
39.67
45.52
53.43
62.00
68.31
68.41
58.76
38.19
9.17
-22.62
-50.43
-69.21
-77.50
-77.47
-73.10
-67.89
-63.42
-59.36
-54.78
-49.37
-43.93
-39.75
-37.67
-37.40
-37.70
-37.18
-34.74
-30.42
-25.14
-20.21
-16.73
-15.10
-14.86
-15.04
-14.59
-12.87
-9.88
-6.24
-2.79
-0.23
1.19
1.77
2.04
2.61
3.87
5.80
8.12
10.40
12.27
13.66
14.73
15.65
16.63
17.75
18.89
19.78
20.02
19.34
17.61
14.85
11.09
6.45
1.16
-4.54
-10.32
-15.55
-20.10
-23.93
-26.42
-27.30
-26.47
-23.90
-19.71
-14.20
-7.80
-1.09
5.36
11.06
15.47
18.13
18.98
18.09
15.80
12.50
8.71
4.99
1.86
-0.40
-1.80
-2.30
-2.05
-1.35
-0.57
-0.11
-0.25
-1.25
-2.15
-3.72
-5.86
-8.26
-10.57
-12.50
-13.86
-14.55
-14.67
-14.34
-13.93
-13.51
-13.08
-12.59
-11.96
-11.15
-10.23
-9.37
-8.79
-8.75
-9.22
-10.00
-10.69
-10.99
-10.68
-9.91
-9.12
-8.83
-9.51
-11.18
-13.47
-15.72
-17.25
-17.67
-17.15
-16.35
-16.37
-17.73
-20.59
-24.53
-28.62
-32.06
-34.13
-34.74
-34.33
-33.53
-33.21
-34.52
-38.59
-45.95
-55.54
-64.07
-66.66
-58.58
-37.82
-6.66
28.53
59.76
80.90
89.88
89.16
83.58
77.84
74.57
74.31
76.64
81.25
87.77
94.80
99.40
97.55
86.49
66.74
42.27
19.37
3.61
-2.51
-0.34
6.15
12.39
15.52
14.70
10.50
3.86
-4.61
-14.52
-25.32
-35.21
-43.60
-49.75
-53.37
-54.97
-55.33
-55.18
-54.64
-54.05
-51.87
-47.18
-39.45
-28.98
-16.72
-3.89
8.39
19.34
28.51
35.54
39.80
40.57
37.03
28.75
15.96
-0.21
-17.98
-34.62
-49.03
-60.83
-70.17
-77.62
-83.98
-90.26
-97.62
-106.82
-117.36
-126.73
-130.54
-124.23
-105.40
-75.70
-40.88
-8.78
13.99
24.41
23.95
17.12
8.89
2.56
-0.81
-1.83
-1.40
0.22
3.63
9.48
18.49
30.64
45.46
62.28
80.91
101.75
125.10
149.43
171.70
186.82
189.47
176.79
150.50
116.78
83.92
59.14
45.20
40.62
41.11
42.07
40.70
36.48
30.18
22.31
12.63
0.49
-14.21
-30.51
-46.47
-59.83
-68.49
-71.44
-68.86
-61.68
-51.15
-38.22
-23.52
-7.09
10.07
26.98
42.22
54.07
60.99
62.02
57.05
46.83
32.65
16.07
-1.33
-18.30
-34.03
-47.85
-59.04
-66.78
-70.32
-69.37
-64.20
-55.60
-44.98
-34.11
-24.58
-17.49
-13.25
-11.64
-12.51
-15.41
-19.75
-24.91
-30.03
-33.90
-34.93
-31.44
-22.13
-7.43
11.27
31.59
50.55
65.47
74.72
78.18
76.86
72.26
64.83
54.60
40.98
23.11
0.13
-28.52
-63.19
-103.77
-143.05
-176.52
-199.03
-205.45
-192.95
-163.30
-123.16
-82.08
-48.73
-27.71
-19.09
-18.93
-22.44
-26.67
-31.31
-37.46
-45.88
-55.60
-64.37
-70.10
-71.92
-70.52
-67.71
-65.73
-65.72
-67.11
-67.58
-64.66
-54.79
-36.25
-9.47
23.12
57.87
91.45
121.62
147.93
169.48
187.81
204.30
220.00
235.29
249.71
261.51
267.36
263.00
244.82
212.61
170.04
124.38
83.98
54.70
37.78
29.83
24.93
17.37
4.62
-13.82
-35.92
-58.15
-76.45
-87.34
-89.05
-81.75
-69.47
-57.40
-49.95
-48.97
-53.32
-60.16
-66.87
-72.36
-77.11
-82.17
-87.53
-92.09
-94.28
-93.10
-88.95
-83.51
-79.02
-77.45
-79.65
-84.86
-91.33
-96.96
-99.90
-99.10
-94.60
-87.40
-78.87
-70.27
-61.76
-52.37
-40.68
-25.21
-4.75
21.27
52.57
87.75
123.05
153.63
173.65
177.85
163.90
133.78
93.71
52.59
19.70
1.14
-0.73
12.05
33.84
57.41
75.98
84.73
81.60
67.18
43.76
14.17
-17.30
-47.18
-72.34
-89.78
-97.48
-95.10
-84.26
-68.08
-49.93
-31.98
-14.89
2.46
22.00
44.91
71.88
101.78
131.04
154.05
164.63
158.12
134.10
97.48
57.45
23.07
0.69
-8.58
-8.56
-5.34
-4.44
-8.70
-18.19
-31.21
-45.46
-58.28
-67.03
-69.54
-64.99
-54.93
-42.98
-33.79
-30.91
-35.28
-45.26
-57.97
-70.83
-82.54
-92.78
-101.51
-108.25
-112.30
-113.26
-111.42
-107.99
-104.39
-101.51
-99.16
-96.20
-90.56
-80.61
-65.65
-46.21
-23.87
-0.72
21.28
40.83
56.74
69.41
79.44
87.33
93.24
97.01
98.36
97.09
93.36
88.21
82.35
76.64
71.86
68.35
65.97
64.17
62.22
59.53
55.89
51.75
47.88
45.04
43.72
43.84
44.75
45.50
45.20
43.48
40.83
38.21
36.71
36.98
38.91
41.47
43.21
43.34
41.05
36.96
32.27
28.41
26.56
27.59
32.06
39.94
49.99
58.52
61.78
55.82
38.87
13.02
-16.17
-41.70
-58.17
-63.91
-61.10
-53.86
-45.94
-39.07
-32.97
-26.59
-19.46
-12.22
-6.19
-2.31
-0.27
1.00
2.80
6.12
10.83
15.80
19.45
20.33
17.73
11.91
3.79
-5.43
-14.73
-23.60
-32.01
-39.70
-47.08
-54.14
-60.57
-65.94
-69.90
-72.31
-73.26
-73.01
-72.20
-70.96
-69.56
-68.34
-67.50
-67.15
-67.00
-66.41
-64.72
-60.66
-53.51
-43.26
-30.69
-17.16
-4.00
7.84
18.05
26.80
34.29
40.16
43.50
42.89
37.21
26.25
10.84
-7.67
-27.56
-48.16
-68.41
-86.06
-97.41
-98.52
-86.98
-63.87
-34.08
-4.49
19.09
34.55
43.66
49.73
54.62
57.15
53.83
41.79
21.63
-1.88
-21.56
-31.04
-28.29
-15.89
0.80
16.51
28.46
36.43
41.66
45.16
46.45
43.73
35.65
22.86
8.95
-0.46
0.06
12.77
35.28
60.95
81.51
90.68
86.68
71.92
52.43
33.62
18.35
6.66
-2.88
-11.52
-19.30
-25.29
-28.61
-29.08
-27.70
-26.00
-25.36
-26.41
-28.79
-31.50
-33.46
-34.04
-33.28
-31.92
-30.96
-31.09
-32.39
-34.38
-36.28
-37.30
-36.98
-35.26
-32.25
-28.00
-22.38
-15.05
-5.78
5.29
17.42
29.49
40.17
48.41
53.61
55.67
54.82
51.23
44.87
35.20
22.52
7.38
-8.97
-24.70
-37.92
-47.11
-51.77
-52.53
-50.93
-48.31
-45.62
-42.65
-38.14
-30.56
-18.55
-1.40
20.90
47.19
74.87
98.82
113.51
114.14
98.99
70.99
37.07
5.63
-17.05
-29.04
-32.88
-33.21
-33.89
-36.05
-38.26
-38.51
-35.81
-31.33
-27.45
-26.37
-28.81
-34.14
-41.19
-48.52
-54.67
-57.48
-54.12
-41.80
-19.48
10.93
44.39
74.50
96.03
106.78
108.35
103.68
95.83
86.47
75.86
63.61
49.78
35.47
22.23
11.42
3.59
-1.52
-4.44
-5.75
-5.65
-4.16
-1.16
3.38
9.37
16.77
25.24
34.26
42.93
49.97
53.90
53.62
48.65
38.95
26.75
14.40
4.12
-2.29
-3.79
-0.50
5.65
10.65
9.41
-1.96
-24.32
-54.62
-86.04
-110.76
-123.08
-121.80
-110.65
-96.44
-85.53
-81.57
-83.88
-87.97
-87.72
-78.27
-58.24
-30.17
-1.22
21.51
33.57
35.32
30.95
26.06
24.71
28.36
35.66
44.83
54.91
65.34
74.90
81.07
80.72
71.07
53.46
31.63
10.62
-5.11
-13.21
-13.44
-7.29
3.20
15.48
26.59
33.26
32.58
23.15
5.55
-17.55
-41.66
-60.88
-68.79
-60.71
-36.23
-0.73
35.62
61.20
67.95
55.23
30.17
4.10
-12.19
-14.24
-4.88
9.00
21.04
28.43
32.15
34.44
36.44
36.64
32.54
22.04
5.22
-15.70
-37.47
-56.94
-72.46
-83.87
-92.31
-98.53
-102.55
-103.41
-99.76
-90.82
-76.66
-58.57
-36.72
-14.58
5.61
22.65
36.23
46.26
51.95
53.04
48.79
38.33
20.65
-4.04
-33.99
-65.26
-90.10
-102.14
-97.61
-77.52
-47.64
-16.72
7.69
21.76
26.24
24.95
21.92
19.66
18.34
16.93
14.59
11.85
9.99
10.04
11.94
14.20
14.99
12.75
7.17
-0.88
-9.54
-17.04
-22.22
-25.00
-26.25
-27.09
-28.35
-30.12
-31.72
-31.76
-29.15
-22.89
-12.75
0.68
16.23
32.70
48.95
64.06
77.46
88.41
96.27
100.42
100.27
95.45
85.94
72.15
54.04
33.56
12.49
-7.54
-25.14
-39.55
-50.60
-58.79
-65.01
-70.19
-74.85
-79.09
-82.36
-83.65
-82.26
-78.09
-71.72
-64.34
-56.88
-49.57
-41.87
-32.49
-19.79
-3.06
16.97
38.18
57.64
72.85
82.67
87.77
89.19
90.09
92.87
98.64
107.21
117.09
125.64
129.11
123.38
105.35
75.09
36.29
-4.31
-39.31
-63.95
-78.29
-86.60
-94.55
-104.92
-115.09
-118.23
-107.04
-77.92
-33.82
16.48
61.61
91.33
99.41
84.81
51.61
7.92
-35.83
-69.31
-84.99
-80.76
-60.16
-31.01
-2.42
18.78
30.02
32.71
29.87
24.18
16.84
8.16
-0.99
-8.68
-12.18
-9.07
1.08
16.31
32.98
47.32
55.96
59.14
58.76
57.81
58.88
63.05
69.75
77.55
85.12
91.69
96.68
98.48
94.48
81.80
59.07
28.02
-6.40
-37.74
-60.64
-72.91
-76.15
-73.83
-69.34
-64.49
-59.42
-53.70
-47.39
-41.54
-37.47
-35.94
-36.46
-37.59
-37.68
-35.55
-31.21
-25.65
-20.38
-16.59
-14.81
-14.62
-14.99
-14.77
-13.19
-10.23
-6.47
-2.83
-0.07
1.49
2.07
2.25
2.70
3.84
5.72
8.06
10.38
12.35
13.83
14.86
15.65
16.39
17.06
17.46
17.17
15.72
12.79
8.18
1.89
-5.96
-14.98
-24.75
-34.71
-44.24
-52.74
-59.47
-63.83
-65.40
-63.99
-59.67
-52.77
-43.81
-32.88
-21.33
-9.93
0.72
10.15
18.10
24.47
29.28
32.77
35.19
36.74
37.78
38.56
39.27
40.02
40.89
41.87
43.01
44.29
45.63
47.00
48.33
49.50
50.29
50.52
49.81
47.99
44.87
40.28
34.27
26.96
18.61
9.60
0.72
-7.75
-15.35
-21.71
-26.69
-30.20
-32.36
-33.37
-33.66
-33.21
-32.26
-30.93
-29.33
-27.65
-26.02
-24.59
-23.44
-22.59
-21.84
-21.08
-20.15
-18.96
-17.64
-16.45
-15.66
-15.50
-15.95
-16.69
-17.36
-17.53
-17.03
-16.11
-15.29
-15.22
-16.36
-18.65
-21.56
-24.25
-25.95
-26.33
-25.79
-25.26
-25.85
-28.32
-32.62
-37.92
-42.89
-46.48
-48.21
-48.49
-48.39
-49.06
-51.43
-56.09
-63.36
-72.98
-83.52
-91.92
-94.00
-85.92
-66.11
-36.71
-3.28
27.26
49.32
60.84
63.41
60.61
55.84
50.68
44.88
37.53
28.40
18.38
9.12
1.86
-3.19
-6.77
-10.02
-13.71
-17.65
-20.82
-21.89
-19.67
-13.80
-4.95
5.58
16.24
25.69
33.36
39.32
44.00
47.84
51.01
53.29
54.35
53.80
51.53
47.84
43.27
38.52
34.12
30.30
26.98
24.01
21.00
17.63
13.73
9.16
4.03
-1.58
-7.60
-14.01
-20.47
-26.86
-33.07
-38.82
-44.00
-48.30
-51.36
-52.90
-52.69
-50.18
-45.22
-37.82
-27.95
-16.08
-2.45
12.65
28.78
43.24
55.93
66.71
75.44
82.24
86.67
88.88
89.14
87.73
84.90
81.33
77.15
72.26
68.78
64.94
59.81
52.91
43.97
32.89
20.28
6.41
-10.15
-27.51
-44.71
-60.72
-74.75
-86.22
-94.77
-99.71
-100.85
-98.77
-93.79
-86.85
-78.52
-69.32
-59.67
-49.92
-39.73
-29.24
-18.70
-8.09
2.32
12.56
22.73
33.09
40.86
46.86
51.69
55.55
58.27
59.59
59.34
57.57
54.76
51.39
48.45
46.27
44.74
43.24
41.41
38.93
35.81
32.65
29.95
28.53
28.45
30.50
32.58
33.48
32.45
29.38
25.11
20.53
16.90
15.14
15.97
19.44
25.50
32.88
37.39
36.91
29.50
15.18
-4.01
-23.41
-40.60
-53.08
-59.53
-59.68
-53.38
-41.12
-23.76
-3.93
15.28
30.49
39.57
41.79
37.81
29.20
17.21
2.81
-13.37
-30.64
-47.89
-63.61
-76.31
-84.62
-87.31
-84.70
-77.17
-66.83
-56.86
-50.37
-49.76
-55.73
-67.11
-80.90
-93.23
-99.92
-97.83
-86.06
-66.42
-44.61
-28.14
-23.01
-30.57
-46.15
-60.29
-62.98
-48.37
-17.23
22.16
58.69
83.80
94.94
95.83
93.53
94.19
95.64
96.90
94.52
85.60
70.32
52.39
36.84
27.17
23.54
23.09
22.62
19.39
13.03
5.52
-0.09
-1.65
1.31
7.15
13.05
17.01
17.92
16.33
13.72
11.10
8.08
3.20
-4.68
-14.99
-24.81
-30.71
-30.35
-23.77
-13.30
-2.27
6.81
13.19
17.66
21.43
24.90
27.42
28.00
26.39
23.29
20.23
18.85
20.38
25.45
32.97
40.55
44.08
39.58
24.93
1.30
-26.61
-52.04
-68.72
-73.07
-65.95
-51.81
-36.13
-23.28
-15.26
-11.95
-12.23
-14.96
-19.21
-23.93
-27.68
-28.92
-27.06
-23.22
-20.34
-21.95
-29.86
-42.37
-54.06
-57.67
-47.15
-20.76
17.47
59.03
93.59
112.81
113.17
96.99
71.04
43.51
21.05
6.93
0.76
-0.10
1.22
2.26
1.77
-0.61
-5.19
-12.34
-21.97
-33.63
-45.78
-56.85
-65.25
-69.76
-68.48
-60.29
-44.92
-22.90
4.09
33.20
60.28
80.14
87.74
79.68
55.73
19.86
-20.51
-56.90
-82.72
-94.38
-93.62
-85.07
-73.85
-63.91
-57.79
-55.08
-54.07
-51.63
-43.95
-27.94
-3.02
27.88
59.46
86.42
105.45
115.64
117.62
112.58
101.56
85.73
67.10
49.08
35.44
28.71
28.48
31.37
33.47
32.73
29.23
24.70
21.04
18.48
14.99
6.91
-9.43
-34.73
-65.72
-94.67
-114.05
-119.57
-111.98
-95.96
-78.08
-64.79
-61.66
-66.62
-75.73
-84.43
-87.90
-81.87
-63.70
-29.58
14.97
59.84
95.95
118.26
127.29
128.01
126.57
127.20
129.67
131.01
125.69
110.60
85.18
51.62
14.21
-21.77
-49.33
-65.33
-71.30
-70.85
-66.69
-60.09
-50.91
-38.81
-24.76
-11.02
-0.97
2.82
0.35
-5.44
-10.55
-11.58
-7.26
0.38
8.61
13.52
12.03
3.35
-10.65
-26.59
-41.20
-50.93
-55.98
-57.88
-59.18
-62.15
-68.25
-77.80
-89.95
-102.38
-111.10
-111.41
-99.00
-72.60
-35.20
6.49
44.20
71.39
85.56
88.77
85.66
81.55
80.00
82.20
86.93
91.13
91.27
83.46
65.06
35.40
-2.76
-43.44
-78.64
-100.43
-103.47
-86.51
-52.67
-8.06
39.38
81.83
112.61
126.89
122.38
100.10
64.71
23.29
-14.16
-39.85
-50.56
-48.12
-37.97
-26.35
-17.51
-12.54
-10.34
-8.94
-7.37
-5.68
-4.38
-3.75
-3.55
-3.28
-2.26
-0.37
2.20
4.80
6.81
7.97
8.49
8.87
9.68
11.31
13.70
16.56
19.28
21.40
22.82
23.80
24.83
26.36
28.60
31.38
34.30
36.72
38.11
38.02
36.48
33.63
29.67
24.73
18.86
12.11
4.54
-3.25
-10.96
-18.07
-24.03
-28.48
-31.40
-33.06
-33.91
-34.40
-35.03
-35.60
-35.80
-35.37
-34.22
-32.62
-31.15
-30.48
-31.05
-32.84
-35.31
-37.62
-38.98
-39.03
-38.14
-37.26
-37.49
-39.66
-43.76
-49.00
-54.05
-57.85
-59.85
-60.39
-60.54
-61.44
-64.06
-69.09
-76.86
-87.21
-98.74
-108.46
-112.14
-105.85
-87.98
-60.68
-29.63
-1.81
17.17
25.33
24.61
19.22
13.20
8.76
6.06
4.33
3.48
4.37
8.44
16.69
28.87
43.41
58.11
70.73
79.38
84.28
86.39
87.00
87.17
87.36
87.25
86.00
83.41
78.50
71.64
63.83
56.61
51.01
47.43
45.29
43.29
40.17
35.51
30.19
25.54
22.37
20.27
17.76
13.29
6.23
-2.58
-11.12
-16.89
-18.34
-15.30
-8.84
-0.60
7.78
14.90
19.83
22.22
22.91
23.38
25.64
31.39
41.49
55.57
71.66
85.88
92.93
87.64
67.40
34.58
-2.81
-32.90
-44.78
-31.37
4.29
50.54
92.04
116.03
116.82
96.73
63.69
27.28
-4.71
-28.36
-42.93
-49.49
-49.68
-45.01
-36.97
-27.04
-17.59
-11.74
-12.34
-20.35
-34.16
-50.09
-64.11
-72.76
-76.24
-76.97
-78.11
-82.11
-89.33
-98.03
-105.50
-109.31
-108.58
-104.41
-99.01
-94.84
-93.92
-97.29
-104.62
-113.90
-121.35
-122.19
-112.36
-90.34
-58.40
-22.31
10.78
35.07
48.28
51.83
49.43
44.84
40.57
37.75
36.80
38.37
43.38
52.37
64.74
78.82
92.21
102.97
110.30
114.79
117.95
121.65
127.51
135.97
145.53
152.43
151.33
137.59
109.59
70.15
26.13
-13.93
-43.04
-58.33
-60.71
-55.11
-46.59
-38.02
-29.66
-20.53
-10.13
0.59
9.74
15.71
17.84
16.94
14.71
12.78
11.68
10.88
9.21
5.63
-0.14
-7.60
-15.27
-21.48
-24.89
-25.13
-23.03
-20.28
-18.38
-17.96
-19.17
-21.00
-22.28
-21.69
-18.59
-13.45
-7.88
-3.42
-0.71
-0.42
-2.04
-5.42
-9.63
-14.23
-19.93
-29.01
-43.07
-62.09
-85.73
-111.86
-138.94
-163.81
-184.28
-200.87
-218.49
-243.86
-276.06
-316.43
-363.18
-412.40
-452.89
-471.33
-457.86
-411.30
-337.19
-245.22
-147.63
-48.24
40.00
108.68
156.85
197.60
237.07
275.53
313.12
342.39
362.61
374.44
385.84
404.55
433.45
468.72
505.80
542.77
579.51
617.53
627.77
590.47
503.23
382.70
251.64
129.21
27.35
-49.68
-102.66
-138.48
-161.36
-173.06
-176.31
-177.08
-182.15
-197.37
-227.42
-266.66
-309.60
-345.38
-362.64
-353.53
-317.28
-260.28
-194.09
-132.07
-84.44
-56.76
-45.22
-41.30
-37.35
-30.34
-21.77
-15.15
-13.27
-15.92
-21.50
-26.03
-26.00
-20.32
-10.55
0.14
9.07
15.20
19.68
24.34
31.74
43.75
60.57
81.09
103.67
126.85
146.99
161.85
167.62
160.23
137.55
101.38
57.75
15.06
-19.08
-40.76
-50.24
-51.32
-48.33
-44.05
-39.18
-33.39
-26.73
-20.24
-15.53
-13.48
-13.91
-15.49
-16.40
-15.15
-11.49
-6.32
-1.16
2.53
4.11
3.87
2.93
2.56
3.71
6.53
10.32
13.97
16.36
16.87
15.45
12.49
8.64
4.40
-0.05
-4.84
-10.15
-16.08
-22.35
-28.23
-32.80
-35.20
-34.80
-31.37
-25.08
-16.42
-5.61
6.13
18.01
29.36
39.62
48.32
55.13
59.82
62.27
62.35
60.08
55.68
49.34
41.25
31.70
21.10
9.95
-0.65
-10.43
-19.09
-26.28
-31.88
-35.98
-38.67
-40.17
-40.62
-40.12
-38.83
-36.91
-34.60
-32.29
-30.40
-29.17
-28.64
-28.58
-28.42
-27.78
-26.42
-24.55
-22.75
-22.07
-22.73
-24.74
-27.52
-30.12
-31.66
-31.73
-30.70
-29.61
-29.78
-32.08
-36.63
-42.48
-48.04
-51.94
-53.45
-53.02
-51.97
-51.96
-54.31
-59.87
-68.78
-80.22
-92.13
-101.11
-103.06
-94.70
-75.39
-48.08
-18.66
6.33
22.52
29.19
29.01
25.99
23.23
21.50
19.96
17.63
14.97
14.18
18.13
28.78
46.40
69.78
96.64
123.68
146.97
161.69
164.56
154.62
134.29
109.02
85.34
68.20
59.23
56.86
57.80
59.56
61.34
63.76
67.65
72.86
77.87
80.66
79.95
75.85
69.76
63.34
57.64
52.40
46.42
38.10
26.22
10.62
-7.72
-26.99
-44.66
-59.49
-70.91
-79.16
-85.03
-89.40
-92.90
-95.73
-98.10
-99.39
-99.38
-98.12
-95.85
-92.93
-89.75
-86.48
-83.08
-79.30
-74.99
-69.32
-61.80
-52.28
-41.05
-28.97
-17.25
-7.08
0.66
5.81
8.87
10.77
12.73
15.66
19.56
24.02
28.22
31.50
33.77
35.57
37.73
40.74
44.37
47.26
47.56
43.51
33.75
17.64
-4.86
-32.95
-64.52
-94.22
-117.03
-127.86
-123.97
-106.83
-82.12
-57.49
-39.60
-31.60
-32.59
-39.16
-47.42
-55.35
-62.94
-71.06
-80.03
-89.02
-96.50
-101.06
-102.47
-101.38
-98.81
-95.49
-91.11
-84.75
-74.35
-58.58
-37.21
-11.35
16.92
45.12
71.10
92.76
109.78
122.62
131.82
137.89
141.02
141.23
138.49
133.09
125.67
117.17
108.58
100.52
93.33
86.99
81.76
76.90
72.06
67.16
62.34
57.86
53.81
50.26
47.11
44.33
41.75
39.34
37.13
35.18
33.53
32.17
31.06
30.11
29.29
28.49
27.61
26.54
25.13
23.23
20.64
17.61
13.67
8.73
2.80
-3.93
-11.18
-18.61
-25.84
-32.47
-38.10
-42.47
-45.29
-46.43
-45.90
-43.83
-40.50
-36.32
-31.72
-27.20
-23.29
-20.32
-18.55
-18.18
-19.25
-21.72
-25.39
-29.97
-35.07
-40.38
-45.32
-49.44
-52.44
-54.21
-54.78
-54.39
-53.45
-52.50
-52.19
-52.72
-54.37
-57.34
-61.72
-67.45
-74.35
-82.14
-90.55
-99.40
-107.86
-115.39
-121.67
-126.56
-130.06
-132.31
-133.61
-134.34
-135.06
-135.48
-135.52
-135.13
-134.26
-132.68
-129.95
-125.18
-116.67
-108.19
-100.72
-94.66
-90.10
-86.88
-84.70
-83.24
-82.29
-81.82
-82.04
-82.47
-83.05
-83.87
-85.06
-86.80
-89.14
-92.07
-95.50
-99.36
-102.84
-105.38
-106.60
-106.25
-104.26
-100.68
-95.74
-89.78
-83.26
-76.25
-69.00
-61.79
-54.92
-48.65
-43.23
-38.79
-35.43
-33.13
-31.62
-30.59
-29.74
-28.81
-27.54
-25.80
-23.49
-20.64
-17.35
-13.71
-9.87
-6.02
-2.36
0.93
3.67
5.75
7.13
7.79
7.73
6.98
5.65
3.87
1.86
-0.16
-1.94
-3.27
-3.92
-3.72
-2.59
-0.40
2.91
7.38
13.03
19.79
27.50
35.90
44.57
53.06
60.79
67.28
72.17
75.29
76.62
76.27
74.41
71.26
66.95
61.60
55.34
48.42
41.16
34.08
27.66
22.36
18.50
16.25
15.57
16.45
18.87
22.95
28.97
37.27
48.15
61.77
78.06
96.84
117.87
141.07
166.59
194.88
226.66
262.85
304.34
351.49
403.42
457.69
510.12
555.47
588.61
605.61
604.66
586.09
552.20
506.49
453.40
397.59
343.39
294.14
251.54
215.62
185.10
158.41
134.63
113.88
96.82
83.86
74.53
67.38
60.58
52.80
43.84
34.54
26.11
19.08
12.80
5.59
-4.43
-18.18
-35.07
-52.95
-69.05
-80.74
-86.40
-85.65
-79.35
-69.68
-60.25
-56.41
-64.36
-89.21
-132.12
-188.30
-247.10
-294.80
-319.14
-313.39
-278.77
-223.42
-159.13
-97.10
-44.93
-5.33
22.99
43.28
59.18
73.40
87.63
102.51
117.89
132.96
146.22
155.58
158.33
152.04
135.29
108.82
75.58
39.97
6.83
-20.18
-39.33
-51.10
-57.30
-60.18
-61.42
-61.74
-60.90
-57.93
-51.66
-41.06
-25.68
-5.75
17.47
41.82
64.37
82.20
93.05
95.97
91.46
81.12
67.13
51.52
35.84
21.03
7.60
-4.19
-14.31
-22.80
-29.99
-36.41
-42.81
-49.97
-58.44
-68.44
-79.68
-91.49
-102.94
-113.22
-121.85
-128.76
-134.14
-137.97
-139.74
-138.29
-132.18
-120.15
-101.78
-77.70
-49.38
-18.53
13.19
44.39
73.60
98.94
118.12
128.95
130.11
121.83
105.93
85.04
61.71
37.55
13.23
-10.57
-31.97
-47.29
-51.79
-41.64
-16.07
21.32
63.20
101.14
128.72
143.71
148.30
147.28
145.39
145.44
147.76
150.92
152.95
152.27
147.30
136.15
116.52
86.48
45.76
-3.13
-55.14
-103.91
-143.55
-170.75
-185.59
-191.04
-191.18
-189.08
-185.50
-178.88
-166.79
-148.11
-124.47
-100.11
-79.90
-66.83
-60.19
-56.09
-49.70
-38.17
-22.36
-6.23
5.82
11.70
12.56
11.67
12.20
15.16
18.88
20.03
15.84
6.13
-6.35
-17.60
-24.85
-28.13
-30.38
-35.87
-47.64
-65.41
-85.19
-100.42
-105.21
-96.98
-77.29
-50.72
-22.55
3.36
25.40
43.76
60.27
75.52
88.12
95.58
96.28
90.89
82.37
74.69
71.32
76.45
91.17
112.93
136.96
158.92
176.71
190.62
202.52
214.60
232.20
257.55
288.21
318.01
340.66
352.52
353.10
344.44
329.87
318.02
314.29
318.12
323.35
321.78
306.69
274.38
224.42
128.63
-17.44
-192.10
-356.68
-478.78
-546.00
-563.14
-543.89
-504.22
-458.84
-413.75
-372.16
-336.44
-308.45
-288.36
-274.27
-263.72
-254.46
-245.25
-231.55
-210.94
-184.88
-157.96
-135.34
-119.75
-113.15
-115.17
-123.58
-132.48
-136.90
-135.16
-129.43
-124.10
-123.46
-130.01
-143.36
-160.63
-176.24
-185.36
-185.54
-176.90
-161.16
-140.69
-118.09
-95.80
-76.24
-60.70
-49.50
-42.31
-38.16
-35.15
-31.25
-25.21
-16.61
-5.53
8.22
25.57
47.90
76.45
111.58
152.29
196.25
239.98
278.98
307.88
321.04
313.87
284.45
234.81
170.93
101.39
35.06
-21.05
-62.98
-89.77
-102.43
-102.92
-93.65
-77.43
-57.54
-37.54
-20.72
-9.34
-4.37
-5.40
-11.05
-19.58
-29.38
-39.22
-48.19
-55.46
-60.37
-62.66
-62.89
-62.41
-63.03
-66.14
-72.03
-79.60
-86.65
-90.82
-90.47
-85.21
-75.93
-64.34
-52.37
-41.62
-33.10
-27.18
-23.71
-22.16
-21.62
-20.97
-19.11
-15.20
-8.95
-0.77
8.31
16.93
23.96
28.93
32.05
34.10
35.96
38.17
40.71
43.15
44.92
45.77
45.92
45.96
46.52
48.09
50.72
54.19
58.07
61.81
64.75
66.19
65.43
62.09
56.30
48.76
40.48
32.49
25.55
20.09
16.29
14.27
13.95
15.04
16.80
18.18
18.16
16.07
11.98
6.62
1.12
-3.41
-6.19
-6.99
-5.95
-3.51
-0.21
3.43
6.88
9.60
11.02
10.60
7.99
3.15
-3.56
-11.49
-19.92
-28.28
-36.22
-43.60
-50.26
-55.99
-60.47
-63.55
-65.34
-66.22
-66.76
-67.39
-68.20
-68.87
-68.81
-67.45
-64.42
-59.75
-53.65
-46.50
-38.62
-30.17
-21.34
-12.33
-3.52
4.73
12.06
18.29
23.43
27.56
30.72
32.78
33.58
32.97
31.00
27.95
24.22
20.30
16.59
13.45
11.12
9.79
9.48
10.06
11.22
12.59
13.81
14.62
14.93
14.73
14.02
12.82
11.14
9.11
6.98
5.06
3.63
2.79
2.49
2.48
2.52
2.42
2.16
1.79
1.39
0.97
0.50
-0.04
-0.66
-1.28
-1.79
-2.09
-2.18
-2.12
-2.04
-2.11
-2.39
-2.87
-3.42
-3.91
-4.28
-4.57
-4.97
-5.68
-6.89
-8.67
-10.89
-13.37
-15.87
-18.27
-20.51
-22.60
-24.53
-26.31
-27.93
-29.34
-30.49
-31.35
-31.88
-32.00
-31.68
-30.84
-29.47
-27.57
-25.19
-22.41
-19.32
-15.99
-12.50
-8.89
-5.24
-1.59
2.03
5.60
9.11
12.63
16.21
19.87
23.53
27.04
30.16
32.65
34.35
35.20
35.32
34.91
34.30
33.73
33.38
33.23
33.14
32.87
32.23
31.15
29.65
27.89
25.96
23.91
21.71
19.37
17.00
14.81
13.07
11.98
11.50
11.38
11.11
10.12
8.01
4.58
-0.09
-5.72
-11.87
-18.15
-24.18
-29.62
-34.21
-37.66
-39.73
-40.22
-38.94
-35.70
-30.40
-23.04
-13.89
-3.49
7.31
17.51
26.16
32.50
36.08
36.78
34.71
30.21
23.74
15.86
7.10
-2.19
-11.79
-21.59
-31.19
-39.75
-45.99
-48.57
-46.57
-40.05
-30.01
-18.20
-6.46
3.79
11.86
17.66
21.47
23.62
24.34
23.83
22.38
20.33
18.17
16.28
14.90
14.01
13.33
12.53
11.32
9.62
7.55
5.41
3.52
2.09
1.23
0.88
0.97
1.44
2.32
3.65
5.49
7.79
10.38
12.96
15.09
16.33
16.27
14.70
11.58
7.15
1.86
-3.78
-9.23
-14.09
-18.14
-21.31
-23.72
-25.56
-26.98
-28.04
-28.65
-28.56
-27.45
-25.03
-21.23
-16.28
-10.68
-5.03
0.23
4.88
9.08
13.04
16.84
20.15
22.19
21.87
18.15
10.48
-1.00
-15.31
-30.75
-45.22
-56.61
-63.30
-64.59
-60.82
-53.20
-43.36
-32.89
-23.00
-14.33
-7.22
-1.79
1.85
3.74
4.11
3.51
2.61
1.95
1.79
2.07
2.69
3.72
5.60
9.03
14.61
22.48
32.02
41.94
50.64
56.75
59.47
58.70
54.90
48.86
41.38
33.23
25.06
17.46
10.95
5.87
2.35
0.18
-1.06
-1.87
-2.65
-3.54
-4.46
-5.17
-5.40
-4.97
-3.89
-2.34
-0.61
1.00
2.24
2.99
3.28
3.27
3.19
3.26
3.61
4.25
5.11
6.03
6.87
7.56
8.05
8.36
8.53
8.61
8.62
8.46
8.02
7.12
5.66
3.62
1.11
-1.66
-4.47
-7.15
-9.64
-11.98
-14.14
-16.08
-17.57
-18.31
-18.01
-16.48
-13.80
-10.26
-6.38
-2.78
-0.12
1.03
0.28
-2.52
-7.19
-13.24
-19.90
-26.26
-31.43
-34.66
-35.52
-33.99
-30.42
-25.47
-19.90
-14.33
-9.05
-3.95
1.36
7.31
14.02
21.14
27.87
33.13
35.86
35.31
31.19
23.77
13.83
2.58
-8.52
-18.12
-25.30
-29.99
-32.90
-35.05
-36.78
-37.20
-34.13
-25.07
-8.59
14.87
43.08
72.91
101.74
128.40
152.94
175.58
195.83
211.99
221.88
223.86
217.46
203.36
183.16
158.93
133.13
108.57
87.88
72.57
61.86
52.13
37.69
13.01
-24.69
-73.65
-127.72
-178.70
-219.33
-245.87
-258.53
-260.23
-254.48
-243.76
-229.06
-210.70
-189.62
-167.69
-147.25
-130.06
-116.29
-104.70
-93.56
-81.60
-68.57
-55.46
-43.73
-34.67
-28.79
-25.68
-24.30
-23.44
-22.15
-20.01
-17.31
-14.73
-13.08
-12.86
-14.12
-16.41
-18.84
-20.36
-20.02
-17.27
-12.07
-4.93
3.32
11.65
19.26
25.72
30.98
35.25
38.71
41.36
42.89
42.84
40.78
36.43
29.87
21.52
12.29
3.41
-3.70
-7.72
-7.80
-3.82
3.48
12.61
21.75
29.14
33.59
34.68
32.85
29.21
25.20
22.18
21.03
21.89
24.13
26.58
27.89
27.01
23.48
17.43
9.40
0.01
-10.27
-21.15
-32.35
-43.45
-53.72
-62.26
-68.07
-70.30
-68.33
-61.77
-50.52
-34.78
-15.28
6.75
29.60
51.44
70.74
86.59
98.91
108.22
115.35
120.99
125.48
128.82
130.97
132.09
132.55
132.92
133.62
134.83
136.44
138.17
139.65
140.32
139.16
134.63
124.76
107.73
82.82
50.85
14.47
-22.25
-54.72
-79.32
-94.21
-99.81
-98.33
-92.59
-85.11
-77.52
-70.85
-66.15
-64.71
-67.59
-74.62
-83.65
-90.98
-93.11
-88.87
-80.66
-73.83
-74.11
-84.47
-103.52
-125.93
-144.68
-153.75
-149.84
-132.43
-103.05
-64.04
-18.05
31.43
79.87
122.22
153.97
172.61
178.54
174.55
164.58
152.05
138.56
123.68
105.66
82.63
53.78
19.91
-16.72
-53.05
-86.14
-113.82
-134.81
-148.68
-155.54
-155.69
-149.48
-137.41
-120.49
-100.28
-78.75
-57.86
-39.21
-23.85
-12.31
-4.75
-1.16
-1.25
-4.42
-9.63
-15.52
-20.75
-24.29
-25.73
-25.22
-23.35
-20.89
-18.54
-16.81
-15.93
-15.88
-16.39
-17.19
-17.94
-18.40
-18.36
-17.70
-16.40
-14.54
-12.31
-9.94
-7.66
-5.59
-3.76
-2.12
-0.61
0.84
2.33
3.98
5.96
8.34
11.11
14.14
17.17
19.96
22.31
24.17
25.61
26.76
27.73
28.59
29.31
29.84
30.13
30.12
29.81
29.19
28.26
27.00
25.43
23.60
21.63
19.69
17.91
16.31
14.79
13.11
11.02
8.36
5.17
1.60
-2.11
-5.80
-9.35
-12.75
-15.99
-18.99
-21.56
-23.40
-24.29
-24.04
-22.73
-20.58
-17.95
-15.24
-12.81
-10.91
-9.65
-8.96
-8.71
-8.76
-9.01
-9.43
-10.04
-10.83
-11.72
-12.58
-13.22
-13.56
-13.59
-13.44
-13.23
-12.94
-12.45
-11.54
-10.05
-7.94
-5.35
-2.44
0.59
3.55
6.21
8.18
8.89
7.85
4.97
0.85
-3.16
-5.28
-3.82
2.18
12.72
26.79
42.81
59.09
74.33
87.73
98.88
107.63
113.86
117.57
118.84
118.00
115.51
111.92
107.64
102.86
97.60
91.88
85.95
80.18
74.90
69.97
64.67
57.77
47.91
34.17
16.51
-4.10
-25.92
-46.96
-65.46
-80.29
-91.01
-97.71
-100.81
-100.90
-98.57
-94.38
-88.82
-82.27
-75.04
-67.29
-59.16
-50.79
-42.39
-34.32
-26.99
-20.81
-16.05
-12.77
-10.84
-9.92
-9.60
-9.46
-9.20
-8.65
-7.81
-6.78
-5.67
-4.61
-3.63
-2.71
-1.82
-0.95
-0.06
0.84
1.75
2.66
3.47
4.08
4.38
4.29
3.78
2.91
1.74
0.31
-1.31
-3.05
-4.68
-5.89
-6.35
-5.83
-4.29
-1.92
0.95
3.94
6.76
9.21
11.19
12.61
13.45
13.74
13.54
13.00
12.31
11.64
11.10
10.73
10.48
10.30
10.10
9.83
9.45
8.98
8.47
7.94
7.38
6.73
5.93
4.95
3.79
2.58
1.46
0.52
-0.24
-0.93
-1.67
-2.59
-3.67
-4.76
-5.58
-5.85
-5.39
-4.23
-2.52
-0.52
1.48
3.29
4.80
6.04
7.04
7.77
8.21
8.31
8.11
7.68
7.19
6.77
6.49
6.32
6.20
6.07
5.85
5.54
5.10
4.52
3.77
2.86
1.86
0.81
-0.18
-1.05
-1.79
-2.45
-3.07
-3.74
-4.54
-5.52
-6.66
-7.78
-8.60
-8.78
-8.08
-6.42
-4.01
-1.15
1.77
4.46
6.72
8.39
9.35
9.47
8.78
7.40
5.62
3.75
2.05
0.62
-0.60
-1.68
-2.71
-3.73
-4.78
-5.92
-7.18
-8.58
-10.02
-11.32
-12.25
-12.64
-12.40
-11.61
-10.39
-8.89
-7.27
-5.72
-4.43
-3.50
-2.95
-2.67
-2.37
-1.79
-0.74
0.80
2.66
4.58
6.33
7.73
8.75
9.39
9.67
9.59
9.12
8.29
7.15
5.84
4.47
3.16
1.95
0.79
-0.38
-1.60
-2.90
-4.19
-5.35
-6.28
-6.86
-7.03
-6.84
-6.38
-5.83
-5.38
-5.18
-5.25
-5.53
-5.86
-6.06
-6.02
-5.65
-5.00
-4.06
-2.95
-1.74
-0.58
0.47
1.38
2.22
3.11
4.06
5.03
5.85
6.35
6.41
6.10
5.57
5.03
4.62
4.33
4.08
3.78
3.37
2.89
2.43
2.03
1.68
1.26
0.61
-0.35
-1.60
-3.02
-4.46
-5.76
-6.91
-7.92
-8.81
-9.52
-9.84
-9.56
-8.58
-6.93
-4.83
-2.59
-0.45
1.40
2.92
4.11
4.96
5.44
5.56
5.35
4.89
4.26
3.51
2.62
1.62
0.58
-0.37
-1.10
-1.53
-1.71
-1.76
-1.84
-2.06
-2.38
-2.73
-3.04
-3.33
-3.67
-4.15
-4.71
-5.19
-5.36
-4.96
-3.89
-2.23
-0.19
1.99
4.13
6.19
8.24
10.31
12.42
14.42
16.04
17.02
17.17
16.52
15.26
13.66
11.95
10.29
8.67
7.12
5.60
4.17
2.84
1.62
0.42
-0.85
-2.23
-3.71
-5.23
-6.74
-8.18
-9.59
-10.93
-12.15
-13.06
-13.48
-13.28
-12.43
-11.06
-9.38
-7.66
-6.07
-4.73
-3.59
-2.52
-1.32
0.17
2.01
4.10
6.20
8.04
9.44
10.34
10.87
11.28
11.78
12.48
13.28
13.92
14.10
13.54
12.09
9.78
6.80
3.43
0.05
-2.98
-5.39
-7.04
-7.95
-8.29
-8.27
-8.06
-7.75
-7.37
-6.88
-6.28
-5.57
-4.77
-3.93
-3.16
-2.59
-2.38
-2.61
-3.31
-4.32
-5.40
-6.30
-6.87
-7.08
-6.98
-6.68
-6.21
-5.62
-4.95
-4.25
-3.62
-3.11
-2.75
-2.47
-2.21
-1.90
-1.56
-1.24
-0.98
-0.77
-0.52
-0.16
0.42
1.24
2.29
3.51
4.83
6.18
7.50
8.72
9.79
10.69
11.36
11.75
11.78
11.34
10.32
8.67
6.43
3.72
0.80
-2.11
-4.80
-7.05
-8.73
-9.73
-10.06
-9.76
-9.01
-7.97
-6.89
-5.92
-5.17
-4.67
-4.47
-4.60
-5.04
-5.75
-6.63
-7.52
-8.20
-8.46
-8.18
-7.34
-6.00
-4.35
-2.56
-0.73
1.07
2.88
4.73
6.62
8.48
10.21
11.67
12.74
13.34
13.42
13.06
12.39
11.59
10.84
10.25
9.80
9.39
8.87
8.09
7.00
5.64
4.09
2.42
0.72
-0.97
-2.60
-4.05
-5.28
-6.25
-6.97
-7.55
-8.09
-8.61
-9.08
-9.37
-9.35
-8.97
-8.25
-7.32
-6.33
-5.39
-4.52
-3.68
-2.83
-1.96
-1.17
-0.55
-0.21
-0.15
-0.30
-0.48
-0.55
-0.41
-0.01
0.57
1.20
1.72
2.03
2.10
1.98
1.79
1.67
1.70
1.92
2.26
2.64
2.92
3.00
2.80
2.26
1.41
0.39
-0.57
-1.16
-1.19
-0.59
0.46
1.70
2.85
3.71
4.29
4.60
4.71
4.58
4.18
3.49
2.62
1.75
1.11
0.77
0.68
0.69
0.59
0.32
-0.11
-0.59
-1.01
-1.32
-1.52
-1.63
-1.70
-1.76
-1.87
-2.08
-2.41
-2.83
-3.25
-3.58
-3.76
-3.83
-3.90
-4.01
-4.12
-4.10
-3.76
-2.96
-1.71
-0.17
1.44
2.90
4.05
4.87
5.43
5.88
6.38
7.08
8.06
9.25
10.49
11.45
11.87
11.56
10.56
9.15
7.74
6.64
5.96
5.57
5.19
4.62
3.67
2.27
0.34
-2.13
-5.03
-7.98
-10.51
-12.15
-12.84
-13.00
-13.43
-14.79
-17.23
-20.16
-22.53
-23.34
-22.14
-19.19
-15.28
-11.23
-7.51
-4.15
-0.88
2.58
6.18
9.57
12.20
13.58
13.43
11.83
9.10
5.74
2.40
-0.22
-1.45
-0.77
1.87
5.97
10.57
14.58
17.33
18.80
19.61
20.64
22.62
25.79
29.91
34.51
39.11
43.41
47.19
50.16
51.97
52.25
50.84
47.79
43.40
38.05
32.13
25.99
19.97
14.34
9.34
5.16
1.90
-0.33
-1.40
-1.12
0.63
3.82
8.10
12.90
17.53
21.41
24.23
25.98
26.87
27.23
27.32
27.25
26.98
26.34
25.16
23.52
21.68
20.06
19.05
18.85
19.35
20.07
20.30
19.24
16.26
10.93
3.22
-6.47
-17.35
-28.51
-39.31
-49.53
-59.45
-69.45
-79.75
-89.98
-99.28
-106.70
-111.75
-114.78
-116.97
-120.00
-125.31
-133.58
-144.13
-154.94
-162.93
-164.70
-157.33
-139.28
-110.89
-74.19
-32.37
11.13
53.13
90.85
121.80
143.56
153.94
151.52
136.27
109.79
74.95
35.18
-6.25
-46.68
-84.10
-117.05
-144.51
-165.68
-179.90
-186.67
-185.73
-177.34
-162.63
-143.61
-122.75
-102.33
-83.49
-65.98
-48.48
-29.51
-8.40
14.23
36.62
56.74
73.03
85.12
93.72
100.17
105.72
111.10
116.20
120.39
123.01
123.78
122.88
120.62
117.25
113.13
109.10
106.44
106.42
109.50
114.59
119.41
121.35
118.97
112.79
104.99
98.18
93.92
92.16
91.58
90.77
89.11
87.06
85.62
85.42
86.30
87.47
87.92
86.78
83.65
78.43
71.16
61.86
50.54
37.35
22.64
7.02
-8.74
-23.75
-37.15
-48.24
-56.59
-62.10
-64.93
-65.50
-64.33
-62.03
-59.24
-56.74
-55.34
-55.68
-57.92
-61.57
-65.43
-68.05
-68.17
-65.23
-59.61
-52.50
-45.45
-39.97
-37.11
-37.25
-40.13
-44.92
-50.40
-55.23
-58.22
-58.50
-55.74
-50.18
-42.58
-34.02
-25.68
-18.61
-13.55
-10.95
-10.87
-12.96
-16.48
-20.35
-23.36
-24.47
-23.02
-18.98
-12.83
-5.42
2.47
10.27
17.78
24.93
31.62
37.51
42.09
44.79
45.24
43.43
39.66
34.51
28.60
22.47
16.43
10.65
5.24
0.36
-3.75
-6.87
-8.85
-9.70
-9.68
-9.17
-8.62
-8.37
-8.61
-9.36
-10.60
-12.33
-14.59
-17.47
-20.97
-24.94
-29.07
-32.88
-36.01
-38.23
-39.51
-40.03
-39.97
-39.42
-38.33
-36.57
-34.01
-30.66
-26.71
-22.47
-18.21
-14.14
-10.26
-6.51
-2.89
0.48
3.30
5.16
5.66
4.53
1.68
-2.79
-8.70
-15.84
-23.98
-32.85
-42.12
-51.34
-59.98
-67.47
-73.23
-76.79
-77.76
-75.94
-71.35
-64.26
-55.19
-44.84
-33.97
-23.30
-13.38
-4.57
2.91
9.03
13.80
17.31
19.69
21.15
21.85
22.01
21.78
21.28
20.51
19.50
18.24
16.70
14.87
12.73
10.33
7.81
5.33
3.07
1.15
-0.47
-1.93
-3.39
-4.99
-6.74
-8.53
-10.17
-11.48
-12.31
-12.64
-12.54
-12.13
-11.54
-10.76
-9.66
-7.98
-5.47
-2.02
2.18
6.65
10.74
13.83
15.52
15.65
14.33
11.76
8.07
3.19
-3.08
-11.02
-20.78
-32.16
-44.43
-56.25
-65.72
-70.60
-68.79
-59.02
-41.42
-17.93
7.89
31.60
49.15
58.11
58.38
52.18
43.06
34.64
29.46
28.47
31.16
36.12
41.69
46.19
48.13
46.26
39.80
28.81
14.47
-1.12
-15.37
-26.04
-31.94
-33.06
-30.42
-25.49
-19.57
-13.53
-7.79
-2.43
2.56
7.18
11.40
15.20
18.58
21.60
24.31
26.73
28.86
30.64
32.03
33.03
33.59
33.69
33.30
32.37
30.89
28.89
26.45
23.70
20.85
18.07
15.49
13.16
11.02
9.00
7.03
5.12
3.35
1.92
0.99
0.69
1.05
1.94
3.12
4.37
5.45
6.22
6.59
6.54
6.10
5.30
4.20
2.89
1.56
0.38
-0.48
-0.97
-1.15
-1.18
-1.27
-1.61
-2.28
-3.25
-4.43
-5.71
-7.02
-8.31
-9.52
-10.56
-11.31
-11.70
-11.68
-11.34
-10.76
-10.04
-9.18
-8.09
-6.57
-4.42
-1.54
2.01
5.92
9.81
13.27
16.06
18.15
19.71
20.89
21.77
22.26
22.15
21.35
19.91
18.07
16.10
14.11
12.08
9.85
7.33
4.59
1.92
-0.40
-2.17
-3.42
-4.35
-5.19
-6.08
-7.03
-7.90
-8.52
-8.81
-8.79
-8.56
-8.31
-8.21
-8.35
-8.67
-9.01
-9.10
-8.71
-7.70
-6.09
-4.05
-1.76
0.61
2.93
5.13
7.17
8.92
10.30
11.19
11.58
11.56
11.30
11.00
10.80
10.73
10.71
10.62
10.32
9.73
8.86
7.78
6.64
5.62
4.86
4.42
4.24
4.17
4.03
3.67
3.11
2.42
1.73
1.11
0.50
-0.20
-1.04
-1.92
-2.57
-2.67
-2.07
-0.82
0.73
2.19
3.21
3.69
3.72
3.55
3.44
3.66
4.44
5.93
8.13
10.76
13.13
14.40
13.83
11.23
7.12
2.53
-1.46
-4.19
-5.72
-6.67
-7.86
-9.79
-12.38
-15.09
-17.21
-18.25
-18.14
-17.24
-16.08
-15.14
-14.63
-14.49
-14.47
-14.30
-13.83
-13.04
-12.05
-11.00
-9.93
-8.86
-7.70
-6.39
-5.00
-3.64
-2.53
-1.83
-1.56
-1.60
-1.69
-1.60
-1.16
-0.29
1.08
3.06
5.87
9.70
14.67
20.62
27.20
33.88
40.19
45.78
50.51
54.38
57.43
59.68
61.01
61.23
60.13
57.52
53.34
47.63
40.54
32.30
23.24
13.75
4.27
-4.76
-12.90
-19.77
-25.06
-28.64
-30.45
-30.57
-29.22
-26.70
-23.49
-20.04
-16.70
-13.67
-10.85
-8.08
-5.19
-2.23
0.45
2.29
2.77
1.60
-1.10
-4.83
-8.93
-12.71
-15.61
-17.29
-17.54
-16.32
-13.66
-9.64
-4.40
1.84
8.80
16.08
23.24
29.85
35.64
40.59
45.03
49.45
54.31
59.83
66.00
72.54
79.16
85.61
91.72
97.28
101.94
105.09
105.99
103.94
98.45
89.43
77.17
62.27
45.53
27.68
9.36
-9.01
-27.17
-44.95
-62.15
-78.50
-93.63
-107.05
-118.25
-126.68
-131.88
-133.53
-131.50
-125.94
-117.22
-105.90
-92.64
-78.14
-63.08
-48.21
-34.16
-21.60
-10.99
-2.69
3.15
6.51
7.59
6.82
4.77
2.16
-0.43
-2.55
-4.06
-5.02
-5.60
-5.88
-5.85
-5.39
-4.39
-2.91
-1.10
0.69
2.07
2.71
2.41
1.21
-0.64
-2.69
-4.54
-5.86
-6.57
-6.75
-6.60
-6.30
-6.02
-5.92
-6.18
-7.12
-9.15
-12.77
-18.38
-26.17
-35.99
-47.30
-59.33
-71.13
-81.77
-90.49
-96.86
-100.74
-102.17
-101.24
-98.00
-92.50
-84.78
-75.04
-63.64
-51.03
-37.68
-23.87
-9.71
4.77
19.37
33.73
47.20
59.08
68.76
76.01
80.91
83.85
85.18
85.07
83.58
80.67
76.45
71.26
65.58
59.81
54.14
48.42
42.44
36.09
29.57
23.42
18.32
14.74
12.78
12.12
12.23
12.63
13.05
13.37
13.58
13.52
12.78
10.85
7.29
1.94
-5.04
-13.32
-22.54
-32.47
-42.97
-53.82
-64.62
-74.77
-83.60
-90.63
-95.68
-98.85
-100.32
-100.20
-98.49
-95.22
-90.56
-84.81
-78.36
-71.48
-64.22
-56.35
-47.58
-37.68
-26.67
-14.90
-2.93
8.53
18.84
27.48
34.13
38.70
41.28
42.01
41.13
38.88
35.65
31.98
28.56
26.12
25.23
26.13
28.62
32.18
36.19
40.09
43.51
46.26
48.13
48.78
47.77
44.70
39.49
32.51
24.56
16.67
9.85
4.83
2.07
1.81
4.23
9.60
18.17
29.98
44.72
61.63
79.56
97.11
112.85
125.46
133.88
137.39
135.65
128.65
116.74
100.53
80.91
58.92
35.74
12.60
-9.31
-29.03
-46.01
-60.15
-71.81
-81.64
-90.36
-98.54
-106.47
-114.07
-120.90
-126.19
-128.93
-128.05
-122.68
-112.63
-98.56
-82.09
-65.42
-50.79
-39.71
-32.63
-28.84
-26.92
-25.40
-23.24
-20.14
-16.33
-12.41
-9.02
-6.76
-6.07
-7.23
-10.23
-14.64
-19.53
-23.71
-25.93
-25.36
-21.80
-15.74
-8.19
-0.30
6.90
12.77
17.09
20.00
21.84
22.98
23.77
24.43
25.08
25.75
26.42
27.10
27.82
28.66
29.67
30.83
31.92
32.47
31.88
29.58
25.26
19.04
11.48
3.45
-4.09
-10.36
-14.91
-17.60
-18.49
-17.85
-15.91
-13.04
-9.56
-5.87
-2.34
0.70
3.08
4.78
5.91
6.67
7.23
7.66
7.97
8.05
7.85
7.34
6.62
5.87
5.34
5.11
5.13
5.18
4.98
4.35
3.29
1.98
0.63
-0.55
-1.56
-2.45
-3.27
-3.96
-4.30
-4.10
-3.20
-1.65
0.35
2.53
4.66
6.56
8.16
9.45
10.40
11.01
11.20
10.98
10.37
9.52
8.60
7.78
7.15
6.74
6.50
6.38
6.30
6.22
6.08
5.82
5.35
4.60
3.53
2.15
0.52
-1.27
-3.04
-4.60
-5.69
-6.08
-5.60
-4.30
-2.40
-0.25
1.82
3.62
5.16
6.49
7.68
8.69
9.34
9.52
9.16
8.34
7.32
6.32
5.46
4.73
4.01
3.17
2.24
1.36
0.74
0.60
0.94
1.57
2.17
2.40
2.08
1.27
0.18
-0.88
-1.69
-2.12
-2.16
-1.82
-1.10
0.04
1.59
3.42
5.34
7.09
8.50
9.47
10.04
10.27
10.20
9.84
9.20
8.33
7.40
6.59
6.06
5.89
5.98
6.15
6.18
5.91
5.29
4.41
3.39
2.35
1.38
0.48
-0.40
-1.26
-2.12
-2.91
-3.50
-3.74
-3.48
-2.68
-1.38
0.28
2.06
3.79
5.30
6.60
7.68
8.60
9.33
9.82
10.02
9.90
9.51
8.93
8.25
7.58
7.06
6.79
6.84
7.25
7.95
8.81
9.67
10.35
10.71
10.68
10.29
9.62
8.82
8.06
7.51
7.30
7.47
8.01
8.87
9.99
11.37
13.02
14.94
17.08
19.39
21.81
24.37
27.15
30.27
33.79
37.59
41.37
44.81
47.82
50.66
53.97
58.37
64.18
71.08
78.17
84.29
88.51
90.43
90.19
88.24
84.95
80.39
74.47
67.10
58.38
48.52
37.62
25.48
11.67
-3.94
-20.68
-36.83
-50.00
-57.95
-59.56
-55.38
-47.37
-38.08
-29.59
-22.87
-17.70
-13.26
-8.80
-4.24
-0.30
1.82
0.79
-4.37
-14.19
-28.70
-47.52
-69.93
-94.83
-120.52
-144.74
-164.80
-178.14
-182.88
-178.40
-165.34
-145.40
-120.83
-93.83
-66.23
-39.46
-14.63
7.40
25.88
40.32
50.43
56.21
57.94
56.24
52.08
46.67
41.25
36.84
34.04
33.00
33.59
35.54
38.58
42.43
46.72
50.94
54.43
56.57
56.94
55.33
51.80
46.48
39.56
31.27
21.99
12.13
2.15
-7.69
-17.28
-26.67
-35.92
-44.91
-53.35
-60.83
-67.04
-71.91
-75.67
-78.68
-81.19
-83.16
-84.19
-83.68
-81.04
-76.05
-68.91
-60.26
-50.94
-41.81
-33.53
-26.42
-20.52
-15.66
-11.50
-7.68
-3.95
-0.29
3.10
5.90
7.93
9.26
10.33
11.81
14.34
18.25
23.43
29.42
35.60
41.45
46.54
50.59
53.50
55.25
55.98
55.94
55.35
54.12
51.72
47.20
39.78
29.33
16.69
3.57
-8.06
-16.68
-21.65
-23.07
-21.28
-16.39
-8.26
3.07
16.78
31.04
43.41
51.55
54.14
51.23
44.05
34.54
24.78
16.65
11.56
10.35
13.05
18.89
26.36
33.64
39.15
41.89
41.50
37.98
31.49
22.20
10.35
-3.62
-19.13
-35.50
-52.10
-68.38
-83.95
-98.38
-111.12
-121.49
-128.76
-132.12
-130.56
-122.86
-107.70
-84.20
-52.33
-13.47
29.52
72.66
111.48
141.94
161.44
169.27
166.71
156.51
141.81
125.28
108.57
92.24
76.30
60.88
46.63
34.67
26.05
21.08
19.07
18.79
19.16
19.71
20.64
22.20
24.09
25.25
24.23
19.90
12.11
1.46
-11.52
-27.45
-48.32
-76.57
-113.27
-156.66
-201.73
-241.56
-269.55
-281.55
-276.77
-257.36
-226.97
-189.36
-147.79
-105.06
-63.87
-27.05
2.82
24.13
36.87
42.74
44.99
47.46
53.54
65.23
82.66
104.21
127.38
149.48
168.31
182.49
191.15
193.63
189.25
177.56
158.66
133.60
104.19
72.75
41.67
12.97
-11.87
-31.94
-46.71
-55.94
-59.64
-58.31
-53.06
-45.64
-38.21
-32.92
-31.36
-34.05
-40.38
-48.58
-56.45
-61.87
-63.39
-60.49
-53.62
-44.01
-33.45
-24.03
-17.62
-15.49
-17.93
-24.14
-32.75
-42.23
-51.64
-60.88
-70.68
-81.85
-94.50
-107.52
-118.68
-125.47
-126.18
-120.89
-111.60
-101.44
-93.27
-88.41
-86.25
-84.84
-82.37
-78.34
-73.98
-71.48
-72.74
-78.12
-86.17
-94.41
-100.41
-102.78
-101.63
-98.53
-96.02
-97.22
-105.56
-124.30
-155.36
-197.74
-246.09
-290.81
-319.97
-322.70
-292.75
-230.70
-143.92
-44.18
55.92
146.10
219.94
275.02
311.77
332.32
339.63
337.14
328.61
317.99
308.68
302.77
300.51
300.37
299.54
295.32
286.29
272.81
256.82
240.89
227.18
216.47
207.92
199.37
188.41
173.28
153.52
129.98
104.10
77.31
50.44
23.68
-2.90
-28.65
-52.05
-70.84
-82.57
-85.29
-77.94
-60.73
-35.34
-5.14
25.27
50.76
67.07
72.20
67.27
56.37
45.09
38.43
38.80
45.32
54.30
60.81
60.54
50.84
30.98
1.64
-35.73
-79.14
-125.53
-170.47
-208.54
-234.99
-247.86
-249.05
-243.32
-235.36
-226.89
-215.71
-197.40
-168.84
-130.98
-89.27
-51.40
-23.94
-9.68
-7.21
-12.52
-21.15
-29.55
-35.34
-36.94
-33.54
-25.35
-13.57
-0.04
13.16
24.12
31.31
33.82
31.68
26.08
19.16
13.81
13.00
19.02
32.80
53.70
79.63
107.58
134.25
156.15
170.68
176.55
174.06
164.55
149.64
130.75
109.17
86.50
63.80
42.43
23.75
8.69
-3.21
-13.73
-24.90
-37.57
-50.90
-64.74
-78.41
-90.23
-97.68
-99.07
-94.60
-85.94
-74.90
-62.86
-53.80
-50.82
-53.94
-59.79
-64.25
-64.71
-60.76
-53.02
-43.36
-38.96
-46.95
-70.63
-108.20
-155.94
-211.18
-273.04
-340.14
-387.51
-393.63
-354.67
-287.69
-213.44
-144.22
-83.84
-30.75
18.03
72.11
131.54
190.63
242.48
283.10
312.33
334.21
345.29
348.33
347.72
342.79
331.18
311.75
286.45
258.67
230.88
203.40
175.94
146.88
111.81
67.86
16.07
-38.58
-89.72
-132.33
-164.22
-185.11
-197.32
-205.78
-214.66
-225.35
-236.17
-244.01
-246.60
-243.70
-236.36
-226.60
-216.83
-208.00
-199.12
-187.66
-170.65
-146.08
-113.81
-75.62
-35.33
2.16
32.58
53.86
66.62
73.77
78.90
84.70
92.26
101.24
110.77
120.32
129.96
139.73
149.02
156.30
159.62
157.37
148.76
133.67
112.35
85.55
54.98
24.02
-2.64
-20.21
-25.70
-19.19
-3.71
16.23
36.93
56.83
76.44
97.19
119.91
144.46
170.08
196.25
222.90
249.74
275.32
296.74
310.64
314.29
306.83
289.14
262.91
229.46
189.00
140.84
84.18
19.04
-53.52
-131.41
-211.62
-290.03
-361.09
-418.02
-454.29
-465.76
-452.76
-420.70
-378.50
-335.52
-298.56
-270.38
-250.08
-234.81
-221.29
-206.51
-187.85
-163.11
-131.06
-92.14
-49.04
-5.86
33.30
65.75
91.06
110.41
125.55
137.74
147.55
155.22
161.36
167.28
174.77
185.65
200.88
220.01
240.98
260.45
274.62
280.53
276.99
264.88
246.79
225.74
203.98
182.26
159.93
135.75
108.83
79.37
48.57
18.35
-9.41
-33.29
-52.35
-66.07
-74.18
-76.70
-74.19
-67.94
-59.74
-51.54
-44.75
-39.80
-36.16
-32.73
-28.43
-22.88
-16.55
-10.60
-6.51
-5.52
-8.41
-15.50
-26.74
-41.80
-60.09
-80.50
-101.27
-120.19
-135.12
-144.69
-148.85
-148.82
-146.57
-143.96
-141.96
-140.47
-138.64
-135.66
-131.38
-126.56
-122.40
-120.01
-119.89
-121.81
-124.87
-127.72
-128.56
-125.28
-115.95
-99.45
-76.28
-48.80
-20.67
4.48
24.53
39.75
52.61
66.62
85.00
109.33
139.13
171.81
203.33
229.05
244.79
247.77
237.16
214.23
181.75
143.08
101.39
59.30
18.79
-18.67
-52.10
-81.17
-106.27
-128.37
-148.49
-167.19
-184.12
-198.15
-207.96
-212.58
-212.00
-207.13
-199.48
-190.53
-180.98
-170.36
-157.08
-139.02
-114.57
-83.75
-48.83
-13.90
16.39
38.46
51.02
55.26
54.14
51.06
48.67
48.25
49.89
52.93
56.40
59.10
59.75
57.41
52.07
45.10
39.08
36.83
40.04
48.15
58.43
66.92
70.08
66.27
56.21
42.61
28.77
17.44
10.25
7.75
9.82
16.05
25.93
38.92
54.37
71.35
88.56
104.20
116.17
122.35
121.23
112.44
97.28
78.57
60.07
45.55
37.77
37.70
44.35
55.23
67.13
77.14
83.36
85.13
82.85
77.18
68.39
56.24
40.22
20.38
-2.20
-25.34
-46.47
-63.65
-76.30
-85.25
-91.84
-96.92
-100.07
-99.69
-93.81
-81.25
-62.38
-39.11
-14.22
9.74
31.07
48.99
63.26
73.54
78.99
78.38
70.46
54.65
31.41
2.45
-29.40
-60.72
-88.14
-109.03
-121.91
-126.68
-124.31
-116.50
-105.09
-91.84
-78.17
-65.19
-53.83
-44.75
-38.36
-34.85
-34.12
-35.96
-40.11
-46.17
-53.42
-60.54
-65.57
-66.13
-60.11
-46.44
-25.80
-0.75
24.82
46.74
61.77
68.43
67.19
60.09
49.78
38.78
28.96
21.28
15.80
11.75
7.86
2.67
-4.76
-14.36
-24.77
-33.65
-38.53
-37.83
-31.62
-21.52
-9.98
0.82
9.74
16.88
23.07
29.12
35.33
41.50
47.16
51.96
55.85
58.80
60.57
60.55
57.98
52.55
44.76
36.02
28.28
23.35
22.24
24.88
30.27
36.88
43.21
48.11
50.80
50.76
47.69
41.59
32.85
22.47
11.89
2.51
-4.70
-9.59
-12.69
-14.90
-17.00
-19.36
-21.86
-24.17
-25.98
-27.18
-27.79
-27.96
-27.78
-27.34
-26.71
-25.96
-25.21
-24.55
-23.98
-23.46
-22.83
-21.92
-20.50
-18.35
-15.18
-10.74
-4.88
2.40
10.92
20.34
30.24
40.38
50.83
62.08
74.93
90.21
108.59
130.04
153.53
176.90
197.00
210.39
214.24
207.15
189.33
162.46
128.86
90.73
49.84
7.53
-34.81
-75.41
-111.80
-141.26
-161.27
-170.05
-167.13
-153.72
-132.70
-108.18
-84.03
-62.47
-43.20
-23.54
0.08
30.31
67.34
108.32
148.03
180.19
198.59
198.04
175.01
128.45
60.84
-20.90
-105.94
-181.53
-236.29
-263.81
-264.41
-244.63
-214.56
-184.16
-160.11
-144.49
-135.56
-129.48
-122.59
-112.48
-98.01
-78.67
-53.80
-22.61
15.14
58.22
103.47
146.35
182.10
207.39
221.23
224.88
220.86
211.37
197.32
178.09
152.26
118.87
78.47
33.67
-11.06
-50.20
-78.46
-92.16
-90.11
-73.95
-47.67
-16.42
14.52
40.64
58.60
66.01
61.21
43.32
12.65
-28.50
-75.56
-122.16
-161.54
-188.52
-201.09
-201.15
-193.52
-183.99
-176.81
-173.14
-170.97
-166.48
-156.00
-137.74
-112.37
-82.39
-50.95
-20.70
6.83
30.92
51.22
67.31
78.76
85.42
87.81
87.01
84.10
79.48
72.55
62.00
46.54
25.87
0.94
-26.19
-53.22
-78.48
-101.15
-121.00
-137.66
-150.24
-157.46
-158.40
-153.21
-143.36
-131.20
-118.93
-107.74
-97.42
-86.83
-74.75
-60.67
-45.02
-28.73
-12.76
2.43
16.74
30.13
42.19
52.08
58.71
61.24
59.53
54.31
47.01
39.17
31.94
25.83
20.74
16.50
13.40
12.53
15.64
24.56
40.15
61.68
86.53
110.81
130.42
142.14
144.41
137.38
122.50
101.80
77.43
51.36
25.54
2.11
-16.72
-28.87
-32.96
-28.73
-17.21
-0.39
19.33
39.78
59.52
77.82
94.51
109.61
123.11
134.95
145.06
153.34
159.55
163.28
163.78
160.08
151.24
136.52
115.62
88.68
56.22
18.95
-22.18
-65.80
-109.69
-150.52
-184.06
-205.83
-212.46
-202.72
-178.07
-142.21
-100.06
-56.45
-15.16
21.56
52.98
79.50
102.16
122.08
139.80
154.89
166.02
171.25
168.85
157.93
138.76
112.48
80.66
44.84
6.51
-32.67
-70.72
-105.40
-134.85
-158.04
-175.11
-186.91
-194.32
-197.56
-196.16
-189.29
-176.20
-156.91
-132.14
-103.24
-71.47
-37.77
-3.06
31.16
62.27
86.83
101.47
104.27
95.39
77.40
54.59
31.35
10.62
-6.69
-20.87
-32.49
-41.33
-47.24
-49.90
-49.07
-45.08
-39.10
-32.92
-28.27
-26.56
-28.74
-36.72
-51.30
-70.31
-88.94
-101.96
-106.42
-103.00
-95.73
-89.92
-91.63
-102.57
-117.63
-127.29
-122.75
-100.40
-62.85
-17.81
25.04
53.94
60.74
44.43
9.72
-36.52
-88.58
-141.81
-192.82
-219.33
-206.40
-159.55
-99.61
-43.61
3.83
45.32
85.28
126.05
167.02
202.59
227.42
243.08
252.44
258.31
261.57
262.44
260.58
256.03
247.27
234.13
219.28
206.83
200.70
197.57
195.57
192.56
186.53
174.67
155.14
128.49
96.59
61.68
25.23
-11.06
-45.85
-77.47
-104.49
-125.63
-139.69
-146.36
-146.39
-141.56
-133.64
-124.80
-117.20
-113.04
-114.09
-121.21
-134.11
-151.48
-171.48
-191.89
-211.02
-227.69
-241.01
-249.96
-253.30
-249.72
-238.20
-218.32
-190.32
-154.97
-113.41
-67.13
-17.83
32.31
80.61
124.10
160.11
186.75
203.54
211.38
212.39
209.55
206.05
204.57
206.81
213.33
223.55
236.44
250.75
265.58
280.51
295.59
311.21
327.82
345.41
362.99
378.11
386.76
383.83
364.15
324.08
262.78
182.81
89.57
-10.07
-109.19
-202.09
-285.10
-357.06
-419.39
-475.14
-526.86
-574.00
-611.35
-629.46
-617.92
-570.08
-486.79
-377.55
-257.92
-144.75
-51.40
14.66
51.72
61.89
49.04
17.86
-26.44
-77.99
-130.51
-178.00
-215.63
-240.44
-251.88
-251.62
-242.69
-228.46
-211.56
-193.10
-172.68
-148.96
-120.55
-86.94
-48.79
-7.42
35.87
80.36
125.96
172.49
218.84
262.54
299.95
327.24
341.74
342.80
332.03
312.84
289.18
264.37
240.53
218.73
199.69
184.33
173.97
169.84
172.20
179.64
189.08
196.59
198.62
193.32
180.86
163.09
142.43
120.93
99.77
79.63
61.15
45.31
33.19
25.28
20.94
18.26
14.66
7.71
-4.14
-21.18
-42.64
-67.11
-92.82
-117.91
-140.52
-158.82
-171.30
-177.00
-175.73
-168.17
-155.72
-139.86
-121.73
-101.73
-79.67
-55.45
-29.90
-5.30
15.04
27.93
31.97
28.34
20.27
11.20
3.12
-4.14
-11.98
-21.29
-31.57
-41.14
-48.53
-53.68
-58.18
-64.17
-72.93
-83.97
-95.43
-105.42
-113.24
-119.51
-125.26
-130.71
-134.88
-136.00
-132.76
-125.49
-116.35
-108.66
-105.43
-108.01
-115.47
-125.14
-134.00
-140.01
-142.59
-141.84
-137.26
-126.98
-108.20
-78.72
-38.53
9.38
59.76
107.11
147.46
179.39
203.35
220.27
230.31
232.46
225.06
207.00
178.89
143.42
104.98
68.32
37.06
12.79
-4.89
-17.33
-25.26
-27.77
-22.46
-6.70
20.70
58.32
102.14
146.74
186.77
218.09
238.22
246.08
241.69
226.11
201.50
171.14
139.08
109.26
84.70
66.82
55.45
49.27
46.44
45.25
44.27
42.54
39.33
34.15
26.66
16.75
4.55
-9.54
-24.97
-41.18
-57.62
-73.86
-89.44
-103.88
-116.62
-127.06
-134.64
-139.01
-140.19
-138.64
-135.29
-131.43
-128.65
-128.57
-132.60
-141.45
-154.77
-170.88
-186.92
-199.52
-205.70
-203.69
-193.28
-175.64
-152.69
-126.55
-99.05
-71.54
-44.92
-19.67
3.92
25.61
44.97
61.29
73.59
80.97
82.86
79.14
70.03
55.95
37.35
14.76
-11.04
-38.95
-67.61
-95.58
-121.30
-142.80
-157.35
-161.56
-151.91
-125.97
-83.51
-27.10
38.36
106.66
171.76
228.46
272.56
300.42
308.98
296.38
263.14
213.12
153.37
92.59
38.71
-3.10
-31.04
-45.89
-49.52
-43.90
-31.18
-14.49
1.63
11.95
12.38
2.14
-15.36
-33.56
-45.25
-45.56
-33.75
-13.04
11.20
33.71
51.13
62.46
68.48
70.57
69.81
66.54
60.69
52.13
41.18
28.55
15.00
1.04
-13.22
-28.02
-43.53
-59.70
-76.13
-92.30
-107.93
-123.48
-140.35
-160.45
-185.16
-213.93
-243.45
-268.10
-281.89
-281.16
-266.63
-243.49
-219.11
-199.52
-186.44
-176.66
-164.01
-142.96
-111.57
-72.45
-31.11
6.84
38.07
62.19
80.62
95.07
106.34
114.37
119.24
122.07
125.21
131.27
141.65
155.33
168.94
178.05
179.05
170.76
154.69
134.37
113.76
96.16
83.50
76.49
75.02
78.54
86.09
96.36
107.51
117.38
123.84
125.22
120.66
110.49
96.35
81.10
67.95
59.32
55.78
55.84
56.74
55.99
52.69
47.89
43.96
43.13
46.23
52.38
59.42
64.93
66.96
64.26
55.92
41.06
19.03
-10.11
-45.01
-82.73
-119.23
-150.19
-172.12
-183.10
-183.06
-173.50
-156.77
-134.96
-109.22
-79.38
-44.38
-3.13
44.40
96.62
150.25
200.93
244.20
276.35
295.20
300.29
292.78
275.11
250.37
221.60
191.26
160.92
131.37
103.05
76.35
51.62
28.90
7.62
-13.35
-35.19
-58.44
-82.75
-107.05
-130.27
-151.77
-171.42
-189.30
-205.14
-218.15
-227.53
-233.35
-237.18
-241.77
-249.58
-260.95
-273.12
-280.77
-278.05
-261.34
-231.11
-191.77
-149.60
-109.91
-74.90
-43.66
-13.80
16.18
45.36
70.74
88.93
98.19
99.42
95.80
91.10
88.15
87.83
89.47
91.96
94.75
98.30
103.54
111.02
120.28
129.88
138.02
143.29
145.12
143.51
138.53
129.74
116.22
96.94
71.36
39.90
3.95
-34.42
-73.00
-109.64
-142.53
-170.26
-192.02
-207.80
-218.40
-225.04
-228.70
-229.76
-227.64
-221.28
-209.73
-192.72
-171.11
-146.79
-122.26
-99.80
-80.95
-65.88
-53.53
-42.06
-29.60
-15.02
1.53
18.79
35.22
49.73
62.19
73.27
83.76
94.00
103.56
111.57
117.40
121.39
124.72
128.96
135.09
142.67
150.10
155.16
156.22
152.94
146.48
138.74
131.55
125.89
121.62
117.87
113.67
108.52
102.63
96.84
92.18
89.64
89.76
92.35
96.62
101.25
104.86
106.36
105.23
101.64
96.46
90.99
86.78
85.29
87.43
93.22
101.57
110.61
118.25
123.03
124.63
123.89
122.01
119.39
114.90
105.83
88.96
61.93
24.50
-20.97
-70.10
-117.54
-158.38
-189.19
-208.38
-216.44
-215.47
-208.49
-198.39
-187.03
-174.96
-161.93
-147.91
-133.85
-121.88
-114.38
-112.71
-116.26
-122.34
-126.86
-125.80
-116.51
-98.68
-74.35
-47.23
-21.33
0.31
16.66
28.69
38.55
48.10
57.85
66.81
73.26
75.93
74.68
70.52
64.77
58.36
51.37
43.33
33.79
22.62
10.06
-3.58
-18.31
-34.63
-53.43
-75.78
-102.53
-134.00
-169.66
-208.04
-246.64
-282.14
-310.83
-329.30
-335.32
-328.59
-310.80
-285.09
-254.88
-222.70
-189.50
-154.77
-117.19
-75.61
-29.83
19.35
70.31
121.18
170.19
215.77
256.58
291.40
319.11
338.83
350.09
353.05
348.57
338.02
322.90
304.47
283.66
261.13
237.46
213.16
188.30
162.28
133.78
101.24
63.75
21.87
-22.30
-65.60
-105.00
-138.53
-165.74
-187.29
-204.24
-217.29
-226.48
-231.49
-232.06
-228.32
-220.68
-209.42
-194.37
-174.72
-149.41
-117.79
-80.47
-39.47
1.97
40.20
72.18
96.24
112.32
121.72
126.43
128.41
129.18
129.72
130.61
132.15
134.34
136.62
137.63
135.40
127.81
113.42
92.14
65.37
35.68
6.05
-20.92
-43.40
-60.44
-71.79
-78.02
-80.41
-81.02
-82.31
-86.58
-95.25
-108.18
-123.51
-138.05
-148.11
-150.65
-144.16
-129.23
-108.37
-84.96
-61.84
-40.29
-19.90
0.53
21.79
43.34
63.47
80.21
92.39
100.10
104.28
105.77
104.76
100.80
93.63
83.99
73.95
66.17
62.83
64.61
70.41
78.04
85.12
89.99
92.25
92.48
91.58
90.18
88.33
85.58
81.41
75.39
67.32
57.25
45.35
31.77
16.74
0.49
-16.66
-34.41
-52.54
-70.78
-88.66
-105.30
-119.47
-129.69
-134.63
-133.42
-125.98
-113.28
-97.19
-80.24
-65.06
-53.76
-47.20
-44.70
-44.14
-42.72
-38.09
-29.42
-17.93
-6.61
0.78
0.93
-8.05
-26.14
-51.64
-81.57
-112.32
-140.22
-161.98
-175.14
-178.50
-172.35
-158.46
-139.62
-118.89
-98.84
-81.05
-65.93
-52.87
-40.65
-27.90
-13.54
3.04
21.84
42.24
63.25
83.67
102.32
118.18
130.48
138.78
142.96
143.21
139.91
133.50
124.50
113.42
100.85
87.47
74.06
61.44
50.24
40.81
33.16
26.99
21.84
17.26
12.89
8.58
4.30
0.05
-4.15
-8.34
-12.49
-16.42
-19.70
-21.77
-22.01
-19.94
-15.35
-8.35
0.79
11.61
23.60
36.15
48.50
59.82
69.17
75.73
78.95
78.65
75.06
68.75
60.47
50.96
40.83
30.52
20.36
10.74
2.14
-4.92
-10.05
-13.15
-14.47
-14.49
-13.85
-13.08
-12.51
-12.24
-12.27
-12.57
-13.06
-13.73
-14.52
-15.38
-16.25
-17.10
-17.86
-18.52
-19.01
-19.33
-19.45
-19.35
-18.99
-18.31
-17.23
-15.75
-14.00
-12.22
-10.71
-9.76
-9.48
-9.80
-10.55
-11.47
-12.38
-13.27
-14.20
-15.29
-16.63
-18.13
-19.60
-20.66
-20.90
-19.99
-17.79
-14.37
-10.03
-5.21
-0.31
4.37
8.68
12.53
15.83
18.41
20.05
20.63
20.16
18.82
16.87
14.59
12.22
10.01
8.22
7.11
6.89
7.48
8.56
9.60
10.01
9.36
7.48
4.44
0.45
-4.17
-9.06
-13.70
-17.54
-20.05
-20.86
-19.91
-17.44
-13.89
-9.75
-5.41
-1.15
2.84
6.38
9.31
11.49
12.97
13.80
14.17
14.13
13.74
12.95
11.73
10.15
8.28
6.21
3.98
1.59
-0.94
-3.49
-5.86
-7.84
-9.24
-10.03
-10.27
-10.10
-9.66
-9.07
-8.41
-7.72
-6.93
-5.94
-4.61
-2.87
-0.76
1.59
3.96
6.18
8.16
9.84
11.21
12.18
12.64
12.50
11.74
10.49
9.04
7.66
6.58
5.85
5.34
4.89
4.37
3.72
2.99
2.26
1.55
0.81
-0.06
-1.11
-2.31
-3.63
-4.95
-6.26
-7.59
-8.95
-10.27
-11.34
-11.90
-11.70
-10.62
-8.72
-6.17
-3.22
-0.09
3.03
5.99
8.59
10.65
11.95
12.39
11.98
10.88
9.38
7.78
6.34
5.17
4.26
3.48
2.75
2.05
1.43
0.99
0.77
0.74
0.83
0.88
0.73
0.30
-0.48
-1.61
-3.02
-4.55
-5.97
-6.95
-7.24
-6.70
-5.37
-3.48
-1.34
0.71
2.45
3.81
4.81
5.52
5.98
6.14
5.90
5.13
3.83
2.10
0.15
-1.74
-3.32
-4.48
-5.20
-5.57
-5.69
-5.64
-5.44
-5.02
-4.36
-3.50
-2.53
-1.59
-0.80
-0.19
0.24
0.51
0.63
0.57
0.26
-0.26
-0.89
-1.39
-1.48
-0.97
0.22
1.93
3.94
5.95
7.75
9.25
10.40
11.17
11.48
11.27
10.46
9.09
7.29
5.35
3.55
2.08
1.07
0.41
-0.06
-0.54
-1.21
-2.15
-3.35
-4.70
-6.10
-7.46
-8.76
-9.99
-11.12
-12.09
-12.76
-13.06
-12.94
-12.51
-11.88
-11.12
-10.16
-8.83
-6.93
-4.35
-1.23
2.14
5.40
8.25
10.52
12.12
13.06
13.33
12.99
12.13
10.92
9.56
8.18
6.88
5.61
4.27
2.76
1.13
-0.57
-2.22
-3.75
-5.21
-6.67
-8.18
-9.71
-11.09
-12.12
-12.66
-12.75
-12.57
-12.41
-12.45
-12.69
-12.96
-12.96
-12.43
-11.23
-9.39
-7.05
-4.39
-1.56
1.31
4.10
6.70
8.93
10.67
11.83
12.41
12.43
11.97
11.10
9.92
8.56
7.17
5.93
4.95
4.25
3.77
3.43
3.15
2.91
2.65
2.31
1.75
0.86
-0.42
-2.01
-3.76
-5.56
-7.35
-9.16
-11.01
-12.81
-14.27
-15.03
-14.77
-13.35
-10.92
-7.83
-4.54
-1.39
1.40
3.74
5.63
7.02
7.88
8.18
7.96
7.35
6.52
5.64
4.80
3.99
3.14
2.17
1.10
0.00
-0.99
-1.78
-2.33
-2.68
-2.93
-3.20
-3.52
-3.95
-4.45
-4.98
-5.49
-5.93
-6.26
-6.42
-6.39
-6.08
-5.41
-4.31
-2.75
-0.77
1.52
3.91
6.21
8.15
9.56
10.36
10.59
10.41
10.03
9.58
9.10
8.52
7.73
6.71
5.55
4.43
3.52
2.86
2.36
1.83
1.08
0.01
-1.36
-2.92
-4.53
-6.02
-7.27
-8.16
-8.69
-8.88
-8.86
-8.80
-8.84
-9.06
-9.35
-9.54
-9.36
-8.65
-7.35
-5.58
-3.53
-1.42
0.57
2.35
3.84
4.99
5.76
6.07
6.00
5.63
5.13
4.62
4.13
3.61
2.95
2.10
1.07
-0.02
-1.06
-1.91
-2.54
-2.95
-3.19
-3.33
-3.46
-3.64
-3.94
-4.43
-5.10
-5.95
-6.95
-8.00
-9.00
-9.77
-10.13
-9.91
-9.00
-7.41
-5.30
-2.87
-0.38
1.94
3.95
5.50
6.55
7.11
7.20
6.92
6.37
5.66
4.86
4.06
3.34
2.77
2.36
2.09
1.88
1.68
1.44
1.17
0.88
0.60
0.27
-0.17
-0.75
-1.49
-2.35
-3.23
-4.12
-5.01
-5.92
-6.86
-7.75
-8.43
-8.68
-8.36
-7.35
-5.68
-3.54
-1.15
1.22
3.33
5.06
6.37
7.23
7.64
7.59
7.10
6.24
5.18
4.13
3.28
2.74
2.46
2.32
2.13
1.81
1.39
0.95
0.54
0.10
-0.48
-1.35
-2.56
-4.01
-5.52
-6.85
-7.91
-8.73
-9.41
-10.05
-10.63
-11.02
-11.05
-10.59
-9.63
-8.24
-6.54
-4.60
-2.50
-0.27
2.01
4.22
6.22
7.88
9.15
10.00
10.42
10.41
9.98
9.19
8.15
7.02
5.96
5.10
4.44
3.90
3.35
2.64
1.72
0.62
-0.54
-1.64
-2.55
-3.27
-3.85
-4.41
-5.08
-5.92
-6.91
-8.00
-9.12
-10.16
-10.99
-11.40
-11.20
-10.26
-8.54
-6.17
-3.39
-0.50
2.20
4.49
6.22
7.35
7.81
7.62
6.84
5.69
4.45
3.44
2.89
2.81
3.06
3.36
3.50
3.43
3.27
3.22
3.41
3.77
4.06
4.01
3.46
2.51
1.44
0.60
0.25
0.39
0.87
1.45
2.03
2.71
3.76
5.50
8.12
11.59
15.65
19.92
24.13
28.15
32.02
35.85
39.77
43.85
48.17
52.90
58.38
65.04
73.10
82.41
92.30
101.77
109.79
115.64
119.00
119.68
117.16
110.46
98.43
80.47
57.18
30.54
3.49
-21.09
-41.26
-56.39
-66.88
-73.45
-76.55
-76.40
-73.28
-68.05
-62.27
-57.87
-56.43
-58.53
-63.61
-70.24
-76.74
-81.66
-84.13
-83.84
-80.88
-75.52
-68.02
-58.72
-48.14
-36.97
-26.16
-16.91
-10.50
-8.14
-10.56
-17.68
-28.53
-41.56
-55.22
-68.54
-81.35
-93.80
-105.74
-116.02
-122.55
-123.02
-115.83
-100.83
-79.43
-54.01
-27.02
-0.44
24.54
47.11
66.57
82.12
93.00
98.73
99.36
95.56
88.29
78.50
66.80
53.37
38.39
22.40
6.81
-6.39
-15.22
-18.61
-16.97
-11.98
-5.82
-0.13
4.44
8.08
11.09
13.09
12.90
9.04
0.62
-12.09
-27.63
-44.05
-59.77
-73.99
-86.22
-95.68
-100.73
-98.99
-88.41
-68.38
-40.68
-9.31
20.53
44.11
58.26
61.85
55.37
40.32
18.57
-7.54
-34.98
-60.00
-78.56
-87.38
-84.94
-71.75
-49.87
-21.80
10.60
46.40
85.02
125.39
164.97
199.92
226.11
240.31
241.14
229.18
206.33
175.14
138.40
98.99
59.77
23.43
-8.05
-33.83
-54.38
-71.05
-85.43
-98.50
-110.38
-120.37
-127.46
-130.94
-130.62
-126.84
-120.33
-111.97
-102.49
-92.41
-81.91
-70.99
-59.57
-47.68
-35.40
-22.96
-10.66
1.22
12.49
23.05
32.91
42.17
50.98
59.49
67.86
76.23
84.58
92.55
99.29
103.50
103.68
98.68
88.09
72.65
53.98
34.21
15.31
-1.33
-14.99
-25.44
-32.66
-36.68
-37.65
-36.16
-33.25
-30.38
-29.01
-30.31
-34.93
-42.96
-53.94
-66.96
-80.68
-93.37
-103.08
-107.97
-106.71
-98.75
-84.34
-64.42
-40.36
-13.87
13.18
38.82
61.24
79.06
91.70
99.44
103.25
104.43
104.10
102.93
100.98
97.79
92.60
84.64
73.46
59.01
41.87
23.14
4.27
-13.33
-28.49
-40.54
-49.27
-54.70
-56.97
-56.20
-52.61
-46.68
-39.21
-31.18
-23.53
-16.93
-11.54
-7.25
-3.80
-1.03
0.99
2.07
2.07
1.02
-0.87
-3.31
-6.07
-9.11
-12.51
-16.40
-20.70
-25.10
-28.96
-31.50
-32.03
-30.12
-25.79
-19.38
-11.51
-2.92
5.69
13.79
20.93
26.75
30.95
33.23
33.38
31.39
27.46
21.91
14.99
6.83
-2.64
-13.43
-25.32
-37.70
-49.45
-59.22
-65.68
-67.90
-65.53
-58.85
-48.64
-36.04
-22.31
-8.58
4.22
15.63
25.44
33.71
40.46
45.64
48.97
50.12
48.77
44.72
38.01
28.85
17.62
4.87
-8.57
-21.59
-32.75
-40.61
-44.08
-42.68
-36.76
-27.47
-16.47
-5.62
3.46
9.65
12.51
12.31
9.88
6.33
2.80
0.25
-0.71
0.24
3.03
7.33
12.47
17.60
21.80
24.38
25.05
24.08
22.17
20.14
18.56
17.49
16.42
14.27
9.85
2.20
-8.94
-22.81
-37.72
-51.35
-61.40
-66.17
-65.01
-58.44
-47.90
-35.30
-22.45
-10.77
-1.01
6.51
11.77
14.85
15.82
14.80
12.05
8.14
3.98
0.81
0.05
2.90
10.00
21.17
35.38
50.98
66.22
79.71
90.66
98.77
103.85
105.40
102.66
94.87
81.87
64.55
44.68
24.44
5.74
-10.28
-23.33
-33.63
-41.49
-47.05
-50.24
-51.01
-49.51
-46.14
-41.50
-36.16
-30.55
-24.94
-19.41
-13.94
-8.54
-3.20
2.06
7.18
12.11
16.75
21.01
24.66
27.35
28.58
27.77
24.43
18.19
8.98
-3.08
-17.72
-34.71
-53.81
-74.83
-97.44
-120.95
-144.16
-165.27
-181.96
-191.78
-192.85
-184.31
-166.76
-142.15
-113.25
-82.90
-53.41
-26.21
-1.94
19.17
37.03
51.45
62.28
69.45
73.10
73.52
71.01
65.89
58.45
49.17
38.86
28.62
19.68
13.18
9.83
9.71
12.33
16.81
22.17
27.50
32.28
36.26
39.54
42.39
45.20
48.37
52.18
56.69
61.52
65.93
68.96
69.82
68.20
64.40
59.26
53.75
48.58
43.95
39.62
35.10
30.00
24.22
17.90
11.34
4.76
-1.78
-8.36
-15.11
-21.98
-28.79
-35.17
-40.82
-45.60
-49.58
-52.81
-55.11
-55.94
-54.53
-50.21
-42.70
-32.24
-19.45
-5.01
10.42
26.24
41.60
55.26
65.79
71.94
73.15
69.79
63.07
54.59
45.91
38.23
32.34
28.69
27.48
28.69
32.05
37.03
42.93
48.99
54.54
58.97
61.82
62.75
61.50
57.94
52.03
43.82
33.52
21.55
8.61
-4.24
-15.77
-24.89
-30.97
-34.06
-34.75
-33.85
-31.96
-29.37
-26.00
-21.76
-16.82
-11.58
-6.55
-2.01
2.07
6.04
10.23
14.64
18.82
21.88
22.80
20.78
15.42
6.79
-4.59
-17.95
-32.34
-46.88
-60.77
-73.38
-84.16
-92.65
-98.44
-101.15
-100.55
-96.64
-89.71
-80.25
-68.96
-56.68
-44.27
-32.56
-22.27
-13.94
-7.94
-4.40
-3.35
-4.67
-8.19
-13.61
-20.43
-27.87
-34.99
-40.71
-44.16
-44.76
-42.36
-37.14
-29.54
-20.16
-9.66
1.10
11.16
19.53
25.42
28.43
28.76
27.11
24.44
21.70
19.53
18.20
17.69
17.84
18.44
19.42
20.77
22.52
24.67
27.12
29.68
32.12
34.20
35.69
36.42
36.30
35.19
33.09
30.00
26.08
21.67
17.17
12.98
9.36
6.37
3.83
1.48
-0.93
-3.51
-6.19
-8.84
-11.33
-13.62
-15.84
-18.13
-20.56
-23.05
-25.42
-27.35
-28.52
-28.54
-27.01
-23.46
-17.56
-9.13
1.56
13.81
26.60
38.73
49.18
57.15
62.13
63.81
62.05
56.91
48.68
38.01
25.90
13.57
2.32
-6.83
-13.31
-17.10
-18.71
-18.84
-18.15
-16.95
-15.18
-12.56
-8.86
-4.09
1.39
6.95
11.88
15.59
17.66
17.97
16.57
13.68
9.68
5.05
0.30
-4.09
-7.79
-10.66
-12.69
-13.99
-14.70
-14.90
-14.63
-13.93
-12.84
-11.41
-9.73
-7.86
-5.90
-3.98
-2.23
-0.77
0.34
1.16
1.86
2.63
3.62
4.77
5.86
6.56
6.62
5.99
4.84
3.44
1.98
0.49
-1.26
-3.55
-6.62
-10.42
-14.72
-19.08
-23.08
-26.38
-28.71
-29.86
-29.65
-28.04
-25.13
-21.19
-16.56
-11.55
-6.44
-1.40
3.37
7.70
11.33
14.06
15.78
16.47
16.26
15.29
13.75
11.80
9.60
7.25
4.81
2.29
-0.30
-2.87
-5.29
-7.32
-8.80
-9.76
-10.36
-10.90
-11.69
-12.92
-14.58
-16.53
-18.56
-20.46
-22.06
-23.24
-23.91
-24.10
-23.90
-23.41
-22.73
-21.79
-20.31
-17.95
-14.42
-9.59
-3.61
3.18
10.37
17.52
24.36
30.67
36.28
40.97
44.54
46.78
47.57
46.91
44.80
41.32
36.50
30.40
23.07
14.74
5.78
-3.24
-11.64
-18.75
-23.99
-26.99
-27.56
-25.73
-21.65
-15.74
-8.60
-1.01
6.24
12.44
17.20
20.42
22.32
23.27
23.62
23.57
23.24
22.50
21.22
19.20
16.28
12.38
7.59
2.14
-3.68
-9.53
-15.29
-21.02
-27.00
-33.55
-40.79
-48.58
-56.50
-63.95
-70.31
-75.22
-78.45
-79.95
-79.72
-77.78
-74.12
-68.87
-62.27
-54.77
-46.84
-38.83
-30.84
-22.71
-14.08
-4.65
5.65
16.55
27.47
37.67
46.50
53.48
58.34
61.06
61.77
60.72
58.20
54.56
50.11
45.16
39.95
34.73
29.79
25.52
22.43
21.07
22.01
25.68
32.30
41.79
53.59
66.64
79.41
90.24
97.78
101.39
101.32
98.46
93.79
87.90
80.71
71.69
60.36
46.69
31.33
15.34
-0.20
-14.55
-27.51
-39.13
-49.60
-58.94
-66.99
-73.54
-78.43
-81.66
-83.44
-84.09
-83.92
-83.24
-82.23
-80.97
-79.49
-77.84
-76.08
-74.32
-72.68
-71.21
-69.92
-68.75
-67.62
-66.52
-65.51
-64.66
-64.03
-63.51
-62.82
-61.57
-59.31
-55.67
-50.49
-43.82
-35.91
-27.19
-18.11
-9.09
-0.44
7.65
15.18
22.17
28.69
34.79
40.49
45.83
50.99
56.29
62.10
68.71
76.21
84.35
92.53
99.92
105.55
108.49
108.01
103.72
95.57
83.86
69.09
51.85
32.85
12.97
-6.73
-25.01
-40.59
-52.43
-59.95
-62.98
-61.82
-56.95
-49.01
-38.74
-27.04
-14.93
-3.42
6.73
15.13
21.77
26.83
30.49
32.86
33.88
33.49
31.71
28.78
25.12
21.23
17.54
14.32
11.54
8.97
6.25
2.99
-0.95
-5.44
-10.10
-14.39
-17.76
-19.88
-20.60
-20.02
-18.35
-15.86
-12.76
-9.20
-5.30
-1.16
3.03
7.09
10.80
14.02
16.64
18.72
20.34
21.57
22.42
22.75
22.42
21.27
19.25
16.41
12.92
9.03
5.12
1.60
-1.20
-3.13
-4.51
-6.02
-8.61
-13.10
-19.86
-28.62
-38.45
-48.19
-56.76
-63.46
-68.04
-70.57
-71.26
-70.26
-67.72
-63.78
-58.81
-53.34
-48.07
-43.59
-40.09
-37.31
-34.65
-31.46
-27.36
-22.46
-17.22
-12.22
-7.86
-4.20
-1.08
1.66
3.98
5.48
5.62
3.98
0.46
-4.64
-10.56
-16.37
-21.11
-24.02
-24.65
-22.99
-19.27
-13.95
-7.51
-0.35
7.16
14.71
22.05
28.89
35.02
40.25
44.36
47.15
48.45
48.22
46.55
43.77
40.31
36.64
33.17
30.06
27.23
24.44
21.37
17.78
13.69
9.48
5.87
3.78
3.87
6.37
10.84
16.43
22.23
27.57
32.12
35.86
38.83
40.92
41.99
41.87
40.65
38.59
36.16
33.79
31.86
30.68
30.44
31.26
33.00
35.26
37.33
38.39
37.76
35.04
30.35
24.16
17.21
10.32
4.24
-0.40
-3.17
-3.87
-2.59
0.35
4.40
8.89
13.13
16.50
18.49
18.79
17.27
13.96
9.11
3.03
-3.88
-11.17
-18.39
-25.08
-30.79
-35.12
-37.84
-38.92
-38.56
-37.12
-35.09
-32.88
-30.85
-29.18
-27.93
-27.05
-26.47
-26.10
-25.85
-25.66
-25.45
-25.13
-24.53
-23.42
-21.59
-18.91
-15.40
-11.32
-7.11
-3.25
-0.11
2.20
3.82
5.11
6.37
7.68
8.86
9.52
9.25
7.83
5.30
1.99
-1.67
-5.31
-8.64
-11.54
-13.91
-15.66
-16.70
-17.04
-16.84
-16.39
-15.99
-15.86
-16.03
-16.38
-16.82
-17.33
-18.08
-19.28
-21.09
-23.46
-26.15
-28.76
-30.89
-32.26
-32.71
-32.28
-31.08
-29.29
-27.15
-24.92
-22.90
-21.35
-20.46
-20.27
-20.73
-21.63
-22.65
-23.45
-23.63
-22.91
-21.20
-18.63
-15.57
-12.54
-9.97
-8.18
-7.21
-7.00
-7.46
-8.55
-10.33
-12.81
-15.84
-19.15
-22.34
-25.10
-27.31
-29.06
-30.61
-32.13
-33.52
-34.39
-34.20
-32.44
-28.94
-23.94
-17.95
-11.64
-5.54
0.11
5.27
10.13
14.94
19.91
25.19
30.79
36.61
42.37
47.65
51.97
54.92
56.27
56.02
54.33
51.47
47.68
43.12
37.97
32.42
26.81
21.58
17.14
13.75
11.36
9.64
8.14
6.38
4.03
1.00
-2.64
-6.70
-10.89
-14.88
-18.30
-20.78
-22.06
-22.00
-20.68
-18.34
-15.32
-11.94
-8.38
-4.76
-1.09
2.61
6.27
9.74
12.91
15.64
17.83
19.39
20.29
20.58
20.40
19.92
19.27
18.37
16.93
14.52
10.82
5.88
0.22
-5.34
-9.95
-12.95
-14.03
-13.21
-10.72
-6.90
-2.09
3.45
9.53
16.13
23.33
31.17
39.33
47.10
53.40
57.10
57.57
54.96
50.27
44.99
40.52
37.68
36.51
36.21
35.53
33.15
28.05
19.76
8.46
-4.96
-19.07
-32.22
-42.90
-50.17
-53.86
-54.52
-53.07
-50.40
-46.92
-42.42
-36.37
-28.31
-18.20
-6.69
5.24
16.62
27.01
36.46
45.36
54.03
62.47
70.33
77.08
82.28
85.72
87.36
87.04
84.47
79.18
70.91
59.76
46.42
32.17
18.53
6.93
-1.79
-7.44
-10.54
-11.97
-12.65
-13.28
-14.17
-15.22
-15.97
-15.86
-14.42
-11.50
-7.21
-1.98
3.57
8.79
13.13
16.20
17.69
17.29
14.45
8.30
-2.23
-17.98
-38.83
-62.96
-86.73
-105.38
-114.53
-111.81
-97.85
-76.01
-51.17
-28.00
-9.68
2.45
8.56
9.68
7.19
2.53
-2.69
-7.01
-9.37
-9.60
-8.37
-6.94
-6.52
-7.88
-11.11
-15.63
-20.48
-24.50
-26.71
-26.55
-24.03
-19.72
-14.42
-8.85
-3.28
2.60
9.29
17.12
25.93
34.97
43.19
49.60
53.52
54.65
52.99
48.67
41.92
33.04
22.37
10.25
-2.96
-16.88
-31.03
-44.73
-57.19
-67.53
-75.01
-79.20
-79.99
-77.61
-72.51
-65.31
-56.67
-47.24
-37.45
-27.51
-17.42
-7.11
3.43
13.97
23.98
32.74
39.48
43.64
44.95
43.50
39.70
34.19
27.74
21.20
15.51
11.53
10.00
11.18
14.76
20.01
26.10
32.51
39.19
46.50
54.67
63.42
71.65
77.67
79.82
76.86
68.39
54.82
37.07
16.39
-5.85
-28.11
-48.80
-66.47
-80.25
-90.01
-96.33
-100.13
-102.25
-103.06
-102.33
-99.48
-93.99
-85.74
-75.04
-62.63
-49.32
-35.65
-21.64
-6.76
9.76
28.41
48.96
70.28
90.41
107.10
118.50
123.67
122.81
116.95
107.58
96.17
84.01
72.15
61.54
53.02
47.21
44.31
43.98
45.37
47.38
49.06
49.80
49.54
48.63
47.53
46.53
45.65
44.58
42.98
40.57
37.31
33.37
29.09
24.76
20.65
17.01
14.18
12.52
12.31
13.56
15.97
18.95
21.78
23.87
24.90
24.83
23.70
21.49
17.99
13.00
6.49
-1.33
-9.86
-18.42
-26.46
-33.64
-39.83
-44.92
-48.71
-50.97
-51.62
-50.94
-49.69
-49.00
-49.95
-53.24
-58.95
-66.52
-74.98
-83.15
-89.86
-94.27
-95.93
-94.76
-91.07
-85.44
-78.46
-70.63
-62.29
-53.54
-44.51
-35.29
-26.04
-17.03
-8.57
-0.86
5.94
11.71
16.36
19.81
22.05
23.14
23.35
23.01
22.61
22.62
23.33
24.75
26.53
28.01
28.39
27.01
23.63
18.48
12.23
5.69
-0.49
-6.04
-11.05
-15.74
-20.22
-24.26
-27.44
-29.26
-29.37
-27.64
-24.21
-19.43
-13.81
-7.98
-2.66
1.42
3.73
4.05
2.57
-0.20
-3.55
-6.81
-9.42
-11.07
-11.67
-11.37
-10.49
-9.39
-8.37
-7.53
-6.82
-6.07
-5.15
-4.07
-3.02
-2.36
-2.47
-3.55
-5.64
-8.55
-12.01
-15.60
-18.93
-21.61
-23.36
-24.05
-23.71
-22.50
-20.61
-18.09
-14.84
-10.64
-5.31
1.11
8.24
15.45
21.99
27.16
30.54
31.95
31.45
29.17
25.21
19.53
11.95
2.17
-10.01
-24.52
-40.79
-57.71
-73.72
-87.12
-96.48
-100.87
-100.00
-94.11
-83.83
-69.88
-53.14
-34.59
-15.36
3.33
20.34
34.79
46.24
54.63
60.19
63.11
63.54
61.53
57.22
50.96
43.30
34.95
26.55
18.57
11.17
4.43
-1.59
-6.80
-11.00
-14.13
-16.28
-17.60
-18.17
-17.85
-16.11
-12.31
-6.06
2.45
12.29
22.04
30.24
36.02
39.22
40.32
40.09
39.10
37.59
35.50
32.73
29.33
25.68
22.20
19.24
16.84
14.74
12.55
10.01
7.09
4.16
1.79
0.54
0.79
2.57
5.57
9.37
13.56
17.85
22.20
26.63
31.20
35.91
40.66
45.20
49.23
52.40
54.37
54.90
53.85
51.19
47.01
41.45
34.68
26.98
18.71
10.24
1.94
-5.88
-13.03
-19.37
-24.80
-29.20
-32.50
-34.74
-36.10
-36.92
-37.56
-38.37
-39.47
-40.71
-41.73
-42.03
-41.24
-39.14
-35.82
-31.55
-26.72
-21.65
-16.61
-11.82
-7.42
-3.55
-0.30
2.38
4.61
6.55
8.27
9.66
10.48
10.43
9.31
7.10
4.04
0.40
-3.47
-7.34
-11.01
-14.33
-17.18
-19.47
-21.17
-22.33
-23.09
-23.56
-23.84
-23.94
-23.86
-23.59
-23.20
-22.73
-22.22
-21.55
-20.55
-19.00
-16.76
-13.83
-10.43
-6.90
-3.67
-1.10
0.58
1.36
1.40
0.97
0.36
-0.20
-0.58
-0.75
-0.73
-0.58
-0.40
-0.29
-0.37
-0.77
-1.47
-2.39
-3.36
-4.19
-4.76
-5.05
-5.06
-4.82
-4.35
-3.70
-3.00
-2.40
-2.10
-2.27
-2.95
-4.08
-5.46
-6.83
-7.91
-8.45
-8.29
-7.39
-5.86
-3.92
-1.87
0.05
1.67
2.95
3.92
4.55
4.78
4.48
3.57
2.05
0.13
-1.87
-3.57
-4.61
-4.82
-4.18
-2.84
-1.06
0.85
2.54
3.65
3.91
3.19
1.54
-0.80
-3.51
-6.31
-9.09
-11.91
-14.96
-18.41
-22.38
-26.80
-31.48
-36.05
-40.10
-43.19
-45.03
-45.51
-44.78
-43.23
-41.28
-39.26
-37.28
-35.20
-32.76
-29.67
-25.79
-21.16
-16.03
-10.78
-5.81
-1.49
1.95
4.37
5.77
6.13
5.52
4.05
1.91
-0.62
-3.25
-5.68
-7.75
-9.45
-10.90
-12.35
-14.03
-16.25
-19.25
-23.26
-28.37
-34.55
-41.47
-48.56
-55.08
-60.22
-63.32
-63.86
-61.62
-56.52
-48.56
-37.77
-24.23
-8.15
9.96
29.26
48.70
67.04
83.17
96.25
105.79
111.70
114.16
113.51
110.19
104.74
97.74
89.89
81.90
74.43
67.94
62.69
58.71
55.81
53.76
52.34
51.40
50.89
50.77
50.93
51.15
51.19
50.78
49.85
48.61
47.50
47.15
48.14
50.85
55.36
61.44
68.53
75.86
82.55
87.65
90.25
89.53
84.89
75.99
62.92
46.12
26.47
5.13
-16.63
-37.56
-56.60
-72.91
-85.87
-95.15
-100.59
-102.24
-100.40
-95.68
-88.93
-81.16
-73.47
-66.73
-61.63
-58.58
-57.78
-59.38
-63.40
-69.66
-77.49
-85.62
-91.99
-94.02
-89.17
-75.50
-52.42
-21.00
16.03
54.76
90.78
120.06
139.68
148.28
146.14
134.89
117.06
95.52
72.96
51.61
32.96
17.85
6.51
-1.26
-5.92
-8.07
-8.32
-7.30
-5.66
-4.00
-2.86
-2.68
-3.73
-6.13
-9.85
-14.72
-20.52
-26.93
-33.61
-40.18
-46.26
-51.59
-55.95
-59.30
-61.57
-62.71
-62.59
-61.11
-58.21
-54.02
-48.87
-43.16
-37.36
-31.76
-26.47
-21.49
-16.70
-12.03
-7.45
-2.99
1.30
5.33
9.02
12.23
14.75
16.33
16.75
15.87
13.74
10.62
6.82
2.68
-1.60
-5.97
-10.48
-15.14
-19.81
-24.20
-27.98
-30.96
-33.19
-34.92
-36.45
-37.83
-38.75
-38.46
-36.07
-30.82
-22.49
-11.59
0.83
13.33
24.57
33.57
39.83
43.34
44.43
43.57
41.25
37.86
33.69
28.91
23.58
17.80
11.71
5.67
0.24
-3.99
-6.53
-7.19
-6.10
-3.57
-0.02
4.19
8.71
13.19
17.17
20.22
22.07
22.76
22.66
22.26
21.90
21.66
21.35
20.77
19.89
18.84
17.82
16.86
15.66
13.76
10.72
6.37
0.89
-5.37
-12.05
-18.88
-25.58
-31.78
-36.87
-40.09
-40.79
-38.63
-33.63
-26.20
-16.88
-6.24
5.19
16.89
28.29
38.78
47.82
55.10
60.55
64.30
66.59
67.59
67.35
65.84
62.92
58.47
52.33
44.40
34.65
23.19
10.41
-3.00
-16.11
-27.93
-37.64
-44.86
-49.65
-52.45
-53.90
-54.56
-54.79
-54.62
-53.82
-52.00
-48.73
-43.62
-36.44
-27.27
-16.47
-4.61
7.65
19.74
31.33
42.31
52.59
61.97
70.05
76.16
79.59
79.72
76.24
69.13
58.68
45.27
29.40
11.60
-7.49
-27.16
-46.56
-64.86
-81.34
-95.47
-106.91
-115.32
-120.24
-120.98
-116.77
-106.97
-91.47
-70.85
-46.38
-19.73
7.33
33.18
56.56
76.44
92.14
103.22
109.55
111.43
109.56
104.92
98.59
91.52
84.33
77.26
70.17
62.72
54.60
45.68
36.06
26.04
16.02
6.34
-2.71
-10.90
-18.06
-24.06
-28.83
-32.33
-34.59
-35.64
-35.52
-34.26
-31.94
-28.67
-24.59
-19.85
-14.61
-8.95
-2.96
3.35
10.00
16.95
24.15
31.43
38.56
45.28
51.32
56.54
60.81
64.06
66.15
66.88
65.95
63.03
57.86
50.32
40.51
28.73
15.46
1.32
-12.99
-26.74
-39.25
-49.92
-58.33
-64.21
-67.43
-68.00
-66.10
-61.99
-56.06
-48.83
-40.89
-32.93
-25.63
-19.64
-15.48
-13.49
-13.81
-16.48
-21.48
-28.85
-38.69
-51.03
-65.58
-81.62
-98.06
-113.57
-126.97
-137.36
-144.19
-147.10
-145.76
-139.93
-129.64
-115.52
-98.88
-81.60
-65.57
-52.20
-42.12
-35.25
-31.14
-29.40
-29.87
-32.42
-36.68
-41.74
-46.09
-48.04
-46.05
-39.06
-26.70
-9.14
13.06
39.10
67.88
98.15
128.36
157.00
182.81
204.80
222.22
234.33
240.33
239.49
231.49
216.72
196.42
172.33
146.18
119.22
92.09
65.14
38.84
14.12
-7.71
-25.24
-37.44
-43.96
-45.21
-42.08
-35.94
-28.34
-20.98
-15.46
-12.95
-13.91
-17.85
-23.51
-29.11
-32.92
-33.68
-30.81
-24.35
-14.86
-3.27
9.39
21.99
33.50
43.08
50.19
54.64
56.44
55.76
52.82
47.95
41.50
33.89
25.52
16.78
8.03
-0.54
-8.87
-17.11
-25.50
-34.23
-43.32
-52.52
-61.39
-69.44
-76.35
-82.09
-86.89
-91.23
-95.65
-100.65
-106.62
-113.83
-122.29
-131.75
-141.63
-151.15
-159.47
-165.78
-169.51
-170.40
-168.59
-164.50
-158.68
-151.44
-142.57
-131.32
-116.53
-97.16
-72.81
-44.03
-12.24
20.63
52.68
82.47
109.04
131.90
150.76
165.52
176.24
183.15
186.48
186.32
182.55
174.98
163.56
148.71
131.38
112.85
94.45
77.20
61.82
48.77
38.48
31.36
27.75
27.79
31.24
37.47
45.49
54.16
62.34
69.02
73.57
75.67
75.26
72.43
67.21
59.52
49.28
36.45
21.17
3.79
-15.12
-34.90
-54.81
-74.26
-92.79
-110.05
-125.70
-139.28
-150.13
-157.53
-160.81
-159.58
-153.82
-143.88
-130.43
-114.36
-96.77
-78.98
-62.46
-48.56
-38.12
-31.18
-26.85
-23.51
-19.38
-12.89
-2.99
10.69
28.12
49.14
73.52
100.97
131.02
162.75
194.86
225.64
252.94
274.47
288.05
291.93
285.07
267.53
240.58
206.66
168.68
129.17
89.69
50.58
11.32
-28.86
-70.37
-112.97
-155.67
-196.98
-235.01
-267.59
-292.45
-307.65
-312.16
-306.34
-292.21
-272.96
-252.20
-232.92
-216.73
-203.56
-191.88
-179.16
-162.72
-140.56
-111.87
-77.16
-38.16
2.70
42.51
78.29
107.41
127.92
139.01
141.21
136.34
127.00
115.81
104.65
94.45
85.33
77.06
69.45
62.51
56.30
50.69
45.26
39.39
32.63
24.89
16.53
8.17
0.43
-6.22
-11.53
-15.40
-17.87
-19.02
-19.05
-18.24
-16.97
-15.39
-13.45
-10.76
-6.82
-1.22
6.03
14.40
22.86
30.19
35.45
38.29
39.08
38.85
38.95
40.54
44.26
50.04
57.17
64.54
71.00
75.44
76.86
74.32
67.01
54.48
37.04
15.87
-7.01
-29.25
-48.64
-63.53
-72.97
-76.54
-74.25
-66.38
-53.59
-36.88
-17.60
2.71
22.62
40.88
56.59
69.08
77.99
83.18
84.83
83.49
79.92
74.95
69.20
62.96
56.15
48.50
39.71
29.63
18.36
6.21
-6.36
-18.76
-30.27
-40.12
-47.54
-52.01
-53.46
-52.22
-49.11
-45.10
-41.06
-37.55
-34.74
-32.50
-30.57
-28.72
-26.73
-24.55
-22.19
-19.70
-17.16
-14.74
-12.63
-11.07
-10.28
-10.40
-11.59
-13.97
-17.64
-22.62
-28.77
-35.84
-43.50
-51.49
-59.60
-67.76
-75.88
-83.87
-91.61
-98.94
-105.70
-111.70
-116.66
-120.08
-121.36
-119.81
-114.88
-106.36
-94.54
-80.22
-64.65
-49.33
-35.73
-24.98
-17.64
-13.71
-12.75
-14.13
-17.17
-21.19
-25.50
-29.25
-31.44
-31.05
-27.27
-19.68
-8.35
6.21
23.22
41.89
61.63
82.21
103.52
125.35
146.95
166.94
183.47
194.64
199.04
196.09
185.91
169.24
147.01
120.41
90.89
60.18
30.20
2.70
-21.06
-40.49
-55.50
-66.11
-72.25
-73.77
-70.66
-63.30
-52.48
-39.33
-25.11
-11.09
1.50
11.44
17.58
19.12
15.79
8.04
-2.94
-15.31
-26.93
-35.69
-39.90
-38.71
-32.28
-21.85
-9.48
2.48
12.10
18.31
20.94
20.37
17.09
11.39
3.41
-6.64
-18.15
-30.20
-41.71
-52.00
-60.84
-68.24
-73.98
-77.16
-76.28
-69.66
-56.27
-36.26
-11.03
17.19
46.09
73.76
98.99
121.22
140.29
156.12
168.57
177.36
182.11
182.47
178.24
169.52
156.74
140.58
121.76
100.97
78.65
55.11
30.66
5.72
-18.96
-42.41
-63.64
-81.85
-96.60
-107.87
-115.84
-120.82
-123.10
-122.99
-121.00
-117.86
-114.45
-111.59
-109.87
-109.41
-109.95
-110.82
-111.15
-110.06
-106.76
-100.82
-92.27
-81.66
-69.91
-58.11
-47.10
-37.33
-28.87
-21.53
-15.06
-9.27
-3.95
1.14
6.29
11.72
17.46
23.29
28.89
33.97
38.41
42.27
45.66
48.63
51.11
52.90
53.84
53.91
53.16
51.67
49.44
46.44
42.68
38.39
33.95
29.78
26.24
23.43
21.31
19.81
19.00
19.10
20.40
22.94
26.44
30.28
33.65
35.89
36.60
35.56
32.69
27.91
21.17
12.58
2.60
-7.96
-17.93
-26.19
-31.95
-34.97
-35.52
-34.24
-31.82
-28.71
-25.02
-20.44
-14.53
-6.90
2.53
13.31
24.40
34.32
41.50
44.81
43.92
39.50
32.96
25.97
19.91
15.62
13.34
12.93
13.97
15.89
17.98
19.50
20.12
20.34
21.49
25.29
32.76
43.31
54.45
62.49
63.72
55.78
38.38
13.12
-17.20
-49.54
-81.29
-110.42
-135.35
-154.74
-167.34
-172.06
-168.26
-156.03
-136.35
-111.04
-82.24
-51.78
-20.79
10.38
41.65
72.51
101.55
126.53
144.83
154.35
154.12
144.51
127.02
103.72
76.82
48.38
20.34
-5.40
-26.84
-42.15
-50.06
-50.27
-43.70
-32.26
-18.31
-3.92
9.58
21.64
32.28
41.47
48.91
53.95
55.88
54.39
49.75
42.69
34.10
24.76
15.14
5.49
-4.01
-13.16
-21.58
-28.79
-34.43
-38.38
-40.79
-42.07
-42.69
-43.05
-43.36
-43.67
-43.87
-43.82
-43.39
-42.41
-40.72
-38.18
-34.71
-30.34
-25.25
-19.73
-14.13
-8.75
-3.84
0.40
3.81
6.26
7.70
8.24
8.10
7.59
7.01
6.57
6.33
6.26
6.27
6.31
6.37
6.47
6.70
7.19
8.08
9.50
11.52
14.14
17.32
21.01
25.16
29.69
34.44
39.00
42.73
44.81
44.40
40.86
33.95
23.80
10.86
-4.30
-21.16
-39.39
-58.76
-79.09
-100.10
-121.33
-142.20
-161.95
-179.74
-194.64
-205.66
-211.86
-212.52
-207.30
-196.22
-179.58
-157.79
-131.22
-100.32
-65.75
-28.57
9.74
47.47
83.05
115.30
143.56
167.51
186.89
201.23
209.74
211.49
205.75
192.40
172.18
146.79
118.69
90.65
65.30
44.59
29.40
19.43
13.26
8.75
3.77
-3.03
-11.66
-20.64
-27.66
-30.45
-27.65
-19.21
-6.10
10.35
29.05
49.35
70.76
92.50
113.23
131.31
145.20
153.76
156.28
152.24
141.15
122.87
98.10
68.88
38.49
10.72
-11.29
-25.90
-33.22
-34.68
-32.16
-27.20
-20.81
-13.59
-6.15
0.67
6.05
9.50
11.18
11.80
12.35
13.50
15.37
17.35
18.45
17.60
14.11
7.70
-1.35
-12.43
-24.68
-37.19
-49.27
-60.59
-71.35
-82.21
-94.03
-107.50
-122.77
-139.32
-155.86
-170.57
-181.54
-187.06
-185.94
-177.62
-162.20
-140.36
-113.35
-82.83
-50.69
-18.78
11.40
39.02
63.95
86.66
107.95
128.56
148.95
169.26
189.23
208.18
224.94
238.15
246.49
249.13
245.87
237.10
223.54
205.87
184.53
159.60
130.96
98.62
63.12
25.62
-12.04
-47.70
-79.51
-106.31
-127.90
-144.82
-157.83
-167.45
-173.74
-176.40
-175.19
-170.31
-162.40
-152.49
-141.65
-130.82
-120.67
-111.64
-104.01
-97.86
-93.26
-90.14
-88.36
-87.60
-87.37
-86.90
-85.34
-81.87
-76.02
-67.89
-58.11
-47.75
-37.83
-29.03
-21.49
-14.90
-8.79
-2.82
2.94
8.10
12.10
14.52
15.32
14.89
13.96
13.40
13.95
16.05
19.74
24.70
30.36
36.05
41.26
45.85
50.23
55.29
62.09
71.43
83.36
96.85
109.72
119.15
122.30
117.12
103.14
81.65
55.54
28.59
4.36
-14.66
-27.56
-34.90
-38.19
-39.12
-38.99
-38.59
-38.24
-38.16
-38.60
-39.73
-41.50
-43.49
-45.00
-45.33
-44.11
-41.53
-38.28
-35.29
-33.24
-32.29
-31.96
-31.38
-29.64
-26.27
-21.33
-15.41
-9.35
-4.02
-0.10
1.98
2.05
0.19
-3.29
-7.85
-12.76
-17.20
-20.43
-21.88
-21.28
-18.62
-14.15
-8.41
-2.09
3.97
9.03
12.55
14.35
14.58
13.64
11.97
9.93
7.76
5.57
3.49
1.65
0.18
-0.84
-1.44
-1.75
-2.00
-2.39
-3.09
-4.19
-5.71
-7.66
-9.96
-12.53
-15.18
-17.77
-20.21
-22.50
-24.80
-27.23
-29.90
-32.75
-35.66
-38.48
-41.19
-43.80
-46.36
-48.71
-50.45
-50.99
-49.82
-46.84
-42.38
-37.12
-31.69
-26.44
-21.33
-16.11
-10.68
-5.29
-0.52
3.00
5.04
5.83
5.95
5.95
6.06
6.11
5.84
5.18
4.46
4.38
5.57
8.30
12.29
16.99
21.90
27.03
32.94
40.43
50.10
61.93
75.30
89.28
102.98
115.78
127.18
136.52
142.73
144.49
140.59
130.44
114.42
93.61
69.51
43.42
16.24
-11.53
-39.36
-66.33
-90.99
-111.61
-126.68
-135.38
-137.71
-134.26
-125.93
-113.60
-98.01
-79.85
-59.76
-38.45
-16.56
5.28
26.42
46.11
63.50
77.87
88.81
96.55
101.88
105.92
109.68
113.76
118.18
122.41
125.59
126.77
125.13
120.35
112.79
103.46
93.84
85.32
78.74
74.16
70.88
67.89
64.42
60.20
55.66
51.49
48.24
45.87
43.73
40.71
35.67
27.68
16.24
1.39
-16.37
-36.18
-57.00
-77.74
-97.47
-115.55
-131.70
-146.00
-158.69
-169.99
-180.11
-189.03
-196.39
-201.28
-202.22
-197.40
-185.36
-165.55
-138.81
-107.19
-73.49
-40.47
-10.32
15.50
36.24
51.56
61.42
66.10
66.31
63.18
58.10
52.37
46.93
42.14
38.00
34.40
31.37
29.14
28.02
28.22
29.60
31.71
33.80
35.09
35.04
33.40
30.28
25.86
20.25
13.31
4.68
-5.92
-18.50
-32.41
-46.52
-59.47
-70.09
-77.78
-82.48
-84.37
-83.42
-79.17
-70.87
-57.94
-40.39
-19.18
3.98
27.02
48.17
66.24
80.65
91.21
97.85
100.60
99.65
95.49
88.92
80.93
72.42
63.94
55.88
48.57
42.51
38.35
36.63
37.44
40.18
43.60
46.12
46.29
43.20
36.62
27.05
15.37
2.67
-10.15
-22.42
-33.77
-43.94
-52.68
-59.70
-64.76
-67.86
-69.33
-69.82
-70.05
-70.54
-71.34
-72.09
-72.16
-70.90
-67.99
-63.42
-57.51
-50.66
-43.23
-35.50
-27.73
-20.26
-13.54
-8.00
-3.93
-1.28
0.34
1.51
2.77
4.43
6.49
8.78
11.10
13.37
15.64
18.00
20.40
22.65
24.41
25.36
25.26
24.12
22.18
19.89
17.76
16.17
15.33
15.15
15.40
15.80
16.15
16.48
16.96
17.76
18.94
20.36
21.68
22.50
22.49
21.51
19.60
16.98
13.94
10.88
8.18
6.18
5.23
5.59
7.43
10.65
14.82
19.25
23.00
25.18
25.15
22.80
18.68
13.90
9.88
7.96
8.96
13.07
19.77
28.05
36.63
44.22
49.79
52.80
53.21
51.38
47.81
42.88
36.75
29.34
20.62
10.78
0.37
-9.89
-19.24
-27.17
-33.37
-37.75
-40.30
-41.19
-40.86
-40.02
-39.42
-39.60
-40.62
-42.01
-42.97
-42.64
-40.55
-36.82
-32.19
-27.80
-24.90
-24.41
-26.70
-31.41
-37.55
-43.80
-48.83
-51.69
-51.92
-49.66
-45.46
-40.04
-34.13
-28.31
-23.02
-18.53
-14.92
-12.12
-9.91
-7.92
-5.75
-3.03
0.49
4.88
9.95
15.33
20.57
25.18
28.81
31.14
31.98
31.23
28.92
25.17
20.27
14.52
8.25
1.76
-4.69
-10.86
-16.49
-21.33
-25.18
-27.85
-29.22
-29.22
-27.83
-25.09
-21.17
-16.42
-11.28
-6.20
-1.40
3.14
7.63
12.35
17.41
22.66
27.76
32.27
35.90
38.58
40.45
41.73
42.58
43.02
42.96
42.25
40.72
38.38
35.41
32.11
28.87
26.00
23.61
21.65
19.91
18.15
16.26
14.32
12.51
11.14
10.42
10.52
11.53
13.46
16.20
19.44
22.71
25.34
26.70
26.30
23.99
19.94
14.51
8.08
0.89
-6.91
-15.11
-23.35
-31.14
-37.99
-43.58
-47.88
-51.02
-53.23
-54.65
-55.32
-55.26
-54.57
-53.48
-52.22
-50.98
-49.77
-48.50
-47.16
-45.87
-44.84
-44.32
-44.44
-45.12
-46.13
-47.15
-47.78
-47.62
-46.29
-43.50
-39.15
-33.47
-27.04
-20.66
-15.16
-11.18
-9.05
-8.90
-10.72
-14.57
-20.48
-28.37
-37.89
-48.33
-58.56
-67.16
-72.54
-73.16
-67.95
-56.66
-40.10
-20.08
1.11
21.46
39.87
56.37
71.88
87.37
103.29
119.28
134.31
146.92
155.65
159.32
157.06
148.70
134.71
116.23
94.72
71.67
48.15
24.74
1.65
-21.13
-43.49
-65.18
-85.64
-104.01
-119.01
-129.03
-132.43
-128.09
-115.93
-97.11
-73.85
-48.83
-24.54
-2.83
15.27
29.55
40.34
48.27
54.13
58.65
62.43
65.85
68.96
71.47
72.79
72.19
69.07
63.27
55.13
45.49
35.41
25.99
18.02
12.07
8.42
7.16
8.23
11.30
15.77
20.84
25.72
29.77
32.71
34.67
35.97
36.98
37.85
38.42
38.29
36.91
33.87
29.05
22.80
15.87
9.24
3.84
0.34
-1.09
-0.87
0.06
0.45
-1.00
-5.30
-12.99
-23.92
-37.25
-51.57
-65.11
-76.11
-83.12
-85.33
-82.68
-75.83
-65.84
-53.87
-40.89
-27.55
-14.26
-1.31
11.06
22.76
33.87
44.61
55.13
64.96
72.84
76.79
74.64
65.05
48.28
26.43
2.83
-18.94
-36.25
-48.07
-54.83
-57.92
-58.87
-58.82
-58.41
-57.92
-57.52
-57.40
-57.59
-57.86
-57.63
-56.11
-52.61
-47.00
-39.86
-32.37
-26.05
-21.98
-20.50
-20.98
-22.13
-22.54
-21.36
-18.47
-14.44
-10.12
-6.12
-2.58
0.66
3.91
7.31
10.59
13.33
15.12
15.68
15.14
13.85
12.24
10.67
9.31
8.20
7.33
6.71
6.44
6.68
7.55
9.06
11.07
13.36
15.67
17.88
19.99
22.04
24.14
26.27
28.30
30.03
31.32
32.20
32.93
33.96
35.64
38.12
41.17
44.24
46.69
47.98
47.89
46.43
43.72
39.78
34.56
27.97
20.16
11.51
2.76
-5.30
-11.94
-16.65
-19.21
-19.65
-18.18
-15.18
-11.07
-6.33
-1.29
3.90
9.32
15.23
21.84
29.17
36.99
44.88
52.27
58.73
63.95
67.90
70.74
72.76
74.27
75.56
76.63
77.07
75.99
72.32
65.31
54.89
41.87
27.59
13.32
-0.41
-13.86
-27.92
-43.37
-60.37
-78.34
-96.15
-112.60
-126.75
-138.05
-146.17
-150.93
-152.27
-150.47
-146.01
-139.60
-131.84
-123.13
-113.65
-103.40
-92.37
-80.63
-68.35
-55.74
-43.03
-30.34
-17.70
-5.06
7.70
20.68
33.80
46.71
58.82
69.42
77.89
83.83
87.14
87.94
86.55
83.36
78.81
73.28
67.14
60.55
53.58
46.11
37.97
28.95
18.93
7.88
-4.08
-16.67
-29.54
-42.23
-54.25
-65.10
-74.38
-81.82
-87.29
-90.84
-92.63
-92.90
-91.92
-89.89
-86.96
-83.18
-78.52
-72.87
-66.12
-58.22
-49.21
-39.27
-28.66
-17.62
-6.44
4.60
15.19
24.90
33.32
40.14
45.35
49.36
52.85
56.53
60.94
66.27
72.23
78.35
84.12
89.14
93.27
96.56
99.13
101.17
102.78
103.96
104.61
104.52
103.42
101.10
97.41
92.28
85.73
77.86
68.78
58.73
48.05
37.10
26.32
16.10
6.72
-1.68
-9.11
-15.78
-21.98
-28.08
-34.38
-40.96
-47.70
-54.15
-59.65
-63.32
-64.19
-61.44
-54.64
-43.97
-30.35
-15.20
-0.09
13.70
25.43
34.79
41.66
45.77
46.74
44.28
38.45
29.79
19.24
7.83
-3.41
-13.59
-21.90
-27.62
-30.27
-29.70
-26.30
-20.89
-14.52
-8.15
-2.53
1.80
4.51
5.29
3.86
0.09
-6.03
-14.23
-24.00
-34.58
-45.11
-54.73
-62.76
-68.69
-72.24
-73.29
-71.90
-68.32
-62.93
-56.26
-48.89
-41.41
-34.28
-27.89
-22.48
-18.21
-15.13
-13.20
-12.26
-12.11
-12.59
-13.58
-15.03
-16.84
-18.78
-20.44
-21.28
-20.79
-18.71
-15.12
-10.36
-4.92
0.74
6.26
11.30
15.54
18.60
20.25
20.51
19.68
18.31
16.90
15.77
14.88
13.92
12.48
10.26
7.15
3.24
-1.24
-6.09
-11.16
-16.37
-21.70
-27.12
-32.57
-37.93
-42.97
-47.25
-50.12
-50.73
-48.23
-42.12
-32.44
-19.88
-5.55
9.42
24.33
39.15
54.52
71.34
90.23
111.14
133.24
155.15
175.39
192.76
206.42
215.84
220.62
220.33
214.65
203.73
188.30
169.55
148.65
126.25
102.37
76.74
49.32
20.62
-8.57
-37.67
-66.55
-95.35
-123.83
-150.83
-174.36
-192.44
-204.06
-209.81
-211.63
-211.69
-211.33
-210.56
-208.43
-203.89
-196.65
-187.32
-177.01
-166.82
-157.30
-148.40
-139.70
-130.73
-121.22
-111.25
-101.02
-90.67
-80.21
-69.29
-57.50
-44.50
-30.39
-15.65
-1.12
12.34
24.13
33.91
41.64
47.26
50.67
51.70
50.25
46.42
40.54
33.03
24.27
14.49
3.82
-7.57
-19.30
-30.68
-40.69
-48.19
-51.98
-51.03
-44.78
-33.26
-17.41
0.96
19.50
35.91
48.64
57.37
62.94
66.87
70.55
74.62
78.81
82.25
84.14
84.23
82.96
81.24
80.05
80.11
81.82
85.20
89.88
95.10
99.74
102.58
102.74
100.06
95.13
89.09
82.92
77.06
71.19
64.65
56.90
47.99
38.58
29.55
21.70
15.33
10.22
5.77
1.34
-3.52
-8.85
-14.30
-19.29
-23.14
-25.32
-25.57
-23.93
-20.65
-16.19
-11.03
-5.54
-0.01
5.50
11.01
16.59
22.28
27.93
33.12
37.14
39.13
38.28
34.15
26.86
17.05
5.62
-6.59
-18.96
-31.06
-42.29
-51.88
-58.79
-62.06
-61.12
-55.93
-46.86
-34.62
-20.06
-4.18
11.65
25.86
36.86
43.55
45.62
43.54
38.27
30.80
21.97
12.44
2.88
-6.08
-13.76
-19.65
-23.48
-25.08
-24.33
-21.05
-15.16
-6.96
2.68
12.37
20.59
26.12
28.42
27.63
24.27
18.90
11.93
3.58
-5.83
-15.75
-25.38
-33.92
-40.82
-46.04
-49.88
-52.73
-54.80
-55.88
-55.50
-53.16
-48.71
-42.62
-35.95
-30.09
-26.22
-24.85
-25.68
-27.74
-29.86
-31.20
-31.51
-31.12
-30.54
-30.14
-29.88
-29.43
-28.62
-27.73
-27.73
-29.96
-35.51
-44.59
-56.34
-69.05
-80.90
-90.61
-97.54
-101.50
-102.28
-99.42
-92.44
-81.34
-67.05
-51.30
-36.09
-22.78
-11.58
-1.73
7.94
18.20
29.06
39.78
49.34
56.90
62.13
65.19
66.56
66.75
66.10
64.76
62.72
60.09
57.15
54.47
52.78
52.66
54.27
57.17
60.46
63.12
64.46
64.29
63.04
61.37
59.96
59.29
59.61
60.95
63.22
66.07
68.81
70.51
70.34
68.06
64.36
60.70
58.68
59.20
61.88
65.12
66.79
65.13
59.45
50.28
38.91
26.76
14.82
3.65
-6.51
-15.45
-22.93
-28.66
-32.49
-34.60
-35.44
-35.65
-35.84
-36.44
-37.55
-39.06
-40.76
-42.56
-44.60
-47.19
-50.71
-55.43
-61.35
-68.18
-75.42
-82.44
-88.59
-93.28
-96.16
-97.06
-96.02
-93.22
-88.84
-82.98
-75.74
-67.24
-57.82
-48.03
-38.49
-29.76
-22.11
-15.44
-9.46
-3.84
1.51
6.38
10.30
12.77
13.53
12.70
10.88
8.81
7.18
6.29
6.05
6.10
6.02
5.44
4.06
1.59
-2.28
-7.78
-14.91
-23.27
-32.09
-40.39
-47.26
-52.11
-54.62
-54.64
-51.94
-46.24
-37.42
-25.85
-12.64
0.42
11.34
18.64
21.83
21.66
19.73
17.85
17.41
19.16
23.29
29.82
38.82
50.44
64.70
81.26
99.29
117.60
134.89
149.98
161.80
169.35
171.59
167.60
156.87
139.57
116.73
90.08
61.72
33.68
7.65
-15.30
-34.62
-50.19
-62.20
-70.92
-76.66
-79.64
-80.02
-77.93
-73.59
-67.39
-59.92
-51.85
-43.86
-36.41
-29.70
-23.77
-18.56
-14.16
-10.85
-9.13
-9.40
-11.71
-15.59
-20.01
-23.79
-26.02
-26.45
-25.69
-24.99
-26.03
-30.39
-39.28
-53.20
-71.67
-92.93
-114.02
-131.29
-141.33
-142.06
-133.51
-117.78
-98.20
-78.08
-59.63
-43.61
-29.70
-17.21
-5.68
4.91
14.47
23.27
31.99
41.60
52.91
66.09
80.65
95.60
109.80
122.37
132.83
140.94
146.53
149.37
149.12
145.38
137.71
125.56
108.35
85.55
57.02
23.32
-14.04
-52.73
-89.86
-122.56
-148.45
-165.96
-174.46
-174.12
-165.86
-151.10
-131.62
-109.21
-85.48
-61.54
-38.03
-15.05
7.56
30.01
52.10
73.02
91.42
105.80
115.13
119.37
119.57
117.56
115.13
113.22
111.40
108.14
101.48
90.04
73.66
53.58
32.15
12.23
-3.57
-13.40
-16.47
-13.20
-4.99
6.10
17.88
28.46
36.72
42.40
46.05
48.65
51.02
53.57
56.09
57.86
57.98
55.79
51.05
44.12
35.64
26.24
16.32
5.89
-5.40
-17.99
-32.35
-48.75
-67.23
-87.41
-108.34
-128.37
-145.04
-155.43
-156.63
-146.56
-124.59
-92.03
-51.92
-8.40
34.31
72.89
105.45
131.58
152.01
167.83
180.00
188.86
193.86
193.69
186.44
170.23
143.94
107.93
64.39
17.11
-29.42
-71.09
-105.14
-130.42
-147.16
-156.30
-158.97
-156.31
-149.58
-140.21
-129.84
-119.97
-111.56
-104.75
-98.79
-92.24
-83.35
-70.50
-52.64
-29.64
-2.49
26.78
55.51
80.93
100.68
113.20
117.75
114.31
103.40
86.05
63.81
38.82
13.82
-8.21
-24.52
-33.21
-33.58
-26.24
-12.91
3.93
21.55
37.25
48.50
53.24
50.12
39.03
21.49
0.46
-20.27
-37.25
-48.27
-52.97
-52.47
-48.57
-42.93
-36.61
-30.13
-23.79
-18.06
-13.61
-10.95
-10.16
-10.69
-11.67
-12.25
-12.12
-11.62
-11.61
-13.12
-16.86
-22.82
-30.29
-38.10
-45.05
-50.25
-53.37
-54.49
-54.04
-52.46
-50.14
-47.37
-44.40
-41.46
-38.77
-36.47
-34.57
-32.93
-31.24
-29.09
-26.10
-21.92
-16.36
-9.38
-1.19
7.80
16.95
25.55
32.95
38.68
42.56
44.70
45.42
45.16
44.32
43.29
42.34
41.62
41.07
40.53
39.80
38.70
37.20
35.34
33.24
30.97
28.61
26.21
23.93
21.96
20.55
19.88
19.94
20.64
21.87
23.62
26.08
29.60
34.53
40.99
48.77
57.20
65.33
72.14
76.76
78.65
77.65
73.80
67.32
58.59
48.08
36.44
24.42
12.79
2.12
-7.31
-15.59
-23.20
-31.00
-40.26
-52.53
-69.31
-91.61
-119.41
-151.28
-184.36
-214.77
-238.13
-250.48
-248.99
-232.44
-201.48
-158.44
-106.92
-51.16
4.48
56.05
100.21
134.61
158.09
170.79
174.28
171.16
164.68
158.00
153.77
153.61
157.96
165.91
175.25
182.81
185.18
179.61
164.76
141.14
110.74
76.41
41.05
6.91
-24.62
-53.13
-79.07
-103.36
-126.83
-149.58
-170.31
-186.22
-193.87
-190.45
-175.24
-150.27
-119.81
-89.02
-62.52
-43.34
-32.78
-30.72
-35.82
-45.69
-56.80
-64.82
-65.38
-55.57
-35.11
-6.83
24.20
52.56
74.19
87.44
93.05
93.32
90.87
87.73
84.80
82.00
78.89
74.90
69.54
62.57
54.17
44.78
35.11
25.76
17.24
10.42
5.91
3.58
2.64
2.01
0.62
-2.35
-7.56
-15.09
-23.51
-31.37
-38.24
-44.89
-52.33
-61.29
-71.78
-83.81
-96.69
-107.91
-115.34
-118.42
-117.96
-114.55
-108.05
-97.34
-81.69
-59.97
-29.50
11.29
61.14
116.32
172.85
227.48
278.84
326.11
355.37
356.47
330.66
289.04
241.72
192.67
141.44
91.60
39.79
-14.11
-66.08
-112.00
-151.06
-185.88
-213.55
-232.74
-242.81
-246.86
-248.17
-247.58
-244.25
-237.62
-226.90
-210.55
-187.97
-158.96
-127.86
-99.53
-77.36
-63.81
-61.84
-73.09
-96.47
-128.84
-164.68
-202.17
-240.53
-279.21
-306.14
-312.27
-297.04
-267.12
-239.24
-207.76
-164.78
-104.47
-21.29
81.00
191.13
295.25
381.98
445.40
486.91
509.12
515.54
508.90
489.64
456.29
408.57
349.39
284.86
223.22
169.05
123.59
85.27
50.67
16.22
-19.85
-56.80
-92.17
-122.63
-147.23
-166.31
-180.56
-190.55
-196.46
-197.97
-194.53
-186.01
-172.74
-156.49
-139.39
-123.16
-108.61
-95.54
-82.87
-69.21
-53.40
-34.88
-14.25
7.26
28.22
47.44
64.25
78.42
89.90
98.64
104.43
106.96
106.03
101.69
94.38
84.80
73.87
62.53
51.62
41.76
33.32
26.39
20.81
16.31
12.60
9.45
6.70
4.26
2.07
0.18
-1.35
-2.41
-3.01
-3.30
-3.60
-4.23
-5.35
-6.93
-8.73
-10.49
-12.02
-13.30
-14.38
-15.28
-15.86
-15.87
-14.99
-13.04
-10.01
-6.05
-1.49
3.28
7.86
11.86
15.00
17.07
17.97
17.66
16.21
13.74
10.43
6.56
2.43
-1.60
-5.23
-8.22
-10.48
-12.06
-13.06
-13.64
-13.92
-13.93
-13.67
-13.14
-12.34
-11.34
-10.22
-9.06
-7.90
-6.83
-5.94
-5.39
-5.37
-5.97
-7.20
-8.94
-10.93
-12.90
-14.58
-15.77
-16.35
-16.30
-15.64
-14.52
-13.10
-11.46
-9.63
-7.42
-4.60
-0.93
3.74
9.35
15.63
22.18
28.64
34.67
40.16
45.10
49.44
53.06
55.76
57.29
57.40
56.09
53.45
49.74
45.26
40.21
34.71
28.80
22.46
15.67
8.50
1.08
-6.26
-13.11
-18.97
-23.37
-26.00
-26.70
-25.54
-22.74
-18.71
-13.94
-8.96
-4.33
-0.50
2.25
3.80
4.23
3.66
2.23
-0.01
-3.02
-6.84
-11.38
-16.32
-21.08
-24.75
-26.38
-25.19
-20.75
-13.12
-2.79
9.39
22.33
34.84
45.68
53.66
57.85
57.80
53.70
46.31
36.70
25.95
14.84
3.81
-6.90
-17.03
-26.08
-33.33
-38.03
-39.70
-38.44
-34.93
-30.20
-25.28
-20.89
-17.33
-14.61
-12.66
-11.35
-10.66
-10.48
-10.65
-10.91
-11.13
-11.21
-11.20
-11.11
-10.87
-10.42
-9.73
-8.90
-8.11
-7.57
-7.41
-7.66
-8.26
-9.19
-10.54
-12.36
-14.71
-17.48
-20.46
-23.41
-26.23
-28.96
-31.80
-34.84
-37.90
-40.52
-42.10
-42.10
-40.29
-36.90
-32.44
-27.52
-22.61
-17.94
-13.58
-9.55
-5.95
-2.90
-0.51
1.30
2.79
4.29
6.11
8.35
10.89
13.38
15.38
16.41
16.06
14.12
10.54
5.54
-0.37
-6.48
-11.97
-16.17
-18.58
-18.99
-17.38
-13.90
-8.83
-2.58
4.30
11.16
17.40
22.59
26.68
29.94
32.80
35.66
38.71
41.88
44.95
47.68
49.91
51.61
52.87
53.83
54.63
55.35
56.01
56.49
56.62
56.11
54.66
51.89
47.55
41.44
33.58
24.15
13.45
1.89
-10.13
-22.09
-33.43
-43.49
-51.66
-57.61
-61.48
-63.95
-66.02
-68.65
-72.37
-77.11
-82.24
-86.74
-89.58
-89.78
-86.58
-79.48
-68.25
-53.12
-34.82
-14.53
6.27
26.23
44.35
60.10
73.39
84.19
92.32
97.30
98.44
95.06
86.90
74.29
58.13
39.75
20.48
1.51
-16.42
-32.88
-47.67
-60.70
-71.89
-81.25
-88.79
-94.58
-98.74
-101.36
-102.49
-102.12
-100.30
-97.13
-92.85
-87.76
-82.14
-76.16
-69.75
-62.73
-54.78
-45.73
-35.65
-24.88
-13.96
-3.48
6.07
14.49
21.78
28.13
33.78
38.85
43.41
47.36
50.54
52.80
54.02
54.22
53.53
52.17
50.39
48.39
46.22
43.69
40.45
35.99
29.88
21.91
12.17
1.09
-10.63
-22.11
-32.47
-40.92
-46.98
-50.57
-52.03
-52.00
-51.19
-50.06
-48.68
-46.78
-43.92
-39.83
-34.58
-28.60
-22.49
-16.80
-11.86
-7.69
-4.08
-0.71
2.72
6.36
10.19
14.16
18.22
22.48
27.22
32.84
39.72
47.92
57.09
66.24
73.99
78.84
79.60
75.61
66.96
54.29
38.49
20.52
1.37
-17.63
-34.68
-47.63
-54.49
-54.03
-46.21
-32.30
-14.40
5.03
23.65
39.45
50.79
56.28
54.94
46.48
31.50
11.82
-9.89
-30.52
-47.20
-57.98
-62.11
-60.01
-52.79
-41.77
-28.04
-12.46
4.11
20.74
36.35
49.91
60.53
67.47
69.96
67.15
58.20
42.66
21.10
-4.70
-32.00
-57.66
-79.06
-94.71
-104.31
-108.65
-109.20
-107.56
-105.20
-103.16
-101.93
-101.47
-101.26
-100.38
-97.70
-92.19
-83.04
-69.85
-52.48
-30.72
-3.96
28.64
67.72
112.75
161.38
209.31
251.28
282.37
299.53
302.30
292.52
273.46
248.61
220.91
192.59
165.38
140.81
120.35
105.04
95.10
89.57
86.38
82.80
76.23
65.09
49.17
29.64
8.42
-12.61
-32.25
-50.32
-67.52
-85.05
-104.05
-125.33
-149.20
-175.64
-204.44
-235.01
-265.96
-294.59
-316.95
-328.54
-325.53
-306.17
-271.50
-225.24
-172.63
-119.06
-68.76
-24.44
12.57
41.74
62.99
76.53
82.97
83.43
79.49
72.94
65.33
57.72
50.45
43.30
35.62
26.79
16.57
5.28
-6.14
-16.28
-23.45
-25.92
-22.11
-10.93
7.99
34.25
66.63
103.34
142.07
179.98
213.74
239.69
254.39
255.33
241.61
214.29
176.12
130.92
82.84
35.77
-6.89
-42.54
-69.58
-87.65
-97.46
-100.51
-98.37
-92.16
-82.41
-69.39
-53.79
-37.02
-21.00
-7.42
2.96
10.60
16.73
22.43
28.01
32.85
35.94
36.69
35.31
32.75
30.15
28.12
26.26
23.41
18.08
9.26
-3.19
-18.39
-34.44
-48.76
-58.63
-62.06
-58.42
-48.83
-35.85
-22.61
-11.83
-4.98
-2.19
-2.57
-4.96
-8.36
-12.15
-15.89
-19.09
-21.17
-21.55
-19.91
-16.30
-11.13
-5.02
1.43
7.75
13.78
19.63
25.61
32.04
39.07
46.54
53.98
60.63
65.57
67.76
66.11
59.46
46.81
27.56
1.94
-28.60
-61.42
-93.07
-120.10
-140.00
-151.79
-156.28
-155.80
-153.35
-151.76
-152.91
-157.35
-164.24
-171.43
-175.76
-173.59
-161.60
-137.87
-102.87
-59.85
-14.30
27.46
60.10
80.60
88.75
86.54
76.97
63.00
46.92
30.43
14.88
1.50
-8.80
-15.57
-19.05
-20.03
-19.43
-17.95
-15.69
-12.21
-6.80
0.95
10.92
22.28
33.85
44.54
53.72
61.34
67.75
73.27
77.94
81.40
83.11
82.54
79.51
74.24
67.32
59.44
51.28
43.33
35.84
28.97
22.84
17.57
13.21
9.72
6.95
4.69
2.78
1.17
-0.05
-0.79
-1.02
-0.86
-0.55
-0.30
-0.12
0.19
0.97
2.52
4.96
8.20
11.94
15.75
19.19
21.82
23.24
23.23
21.82
19.36
16.45
13.77
11.89
11.07
11.29
12.29
13.75
15.39
16.99
18.30
19.02
18.85
17.58
15.20
11.87
7.89
3.42
-1.49
-6.95
-13.06
-19.69
-26.49
-32.89
-38.26
-42.18
-44.45
-45.08
-44.16
-41.82
-38.14
-33.36
-27.87
-22.20
-16.87
-12.21
-8.32
-5.04
-2.20
0.32
2.42
3.91
4.60
4.43
3.58
2.30
0.85
-0.60
-1.96
-3.27
-4.51
-5.59
-6.38
-6.77
-6.70
-6.23
-5.53
-4.78
-4.14
-3.68
-3.37
-3.14
-2.95
-2.83
-2.85
-3.09
-3.52
-4.00
-4.29
-4.20
-3.65
-2.76
-1.78
-0.97
-0.50
-0.41
-0.65
-1.09
-1.67
-2.33
-3.08
-3.88
-4.71
-5.55
-6.40
-7.35
-8.51
-10.04
-12.02
-14.39
-16.92
-19.30
-21.17
-22.33
-22.68
-22.28
-21.27
-19.77
-17.87
-15.63
-13.19
-10.72
-8.45
-6.53
-4.95
-3.61
-2.31
-0.94
0.54
2.06
3.56
5.04
6.52
8.09
9.75
11.42
12.99
14.40
15.65
16.83
18.02
19.18
20.16
20.75
20.81
20.29
19.32
18.12
16.89
15.84
15.05
14.56
14.30
14.18
14.04
13.75
13.22
12.44
11.55
10.67
9.95
9.41
9.02
8.63
8.17
7.65
7.17
6.89
6.87
7.11
7.51
7.95
8.36
8.77
9.25
9.78
10.31
10.66
10.67
10.22
9.38
8.30
7.14
6.00
4.91
3.82
2.71
1.68
0.85
0.34
0.21
0.42
0.80
1.17
1.39
1.42
1.34
1.22
1.15
1.14
1.22
1.39
1.66
2.07
2.64
3.30
3.89
4.14
3.78
2.64
0.69
-1.88
-4.76
-7.58
-10.03
-11.89
-13.08
-13.61
-13.61
-13.23
-12.60
-11.85
-11.01
-10.07
-8.95
-7.63
-6.15
-4.64
-3.24
-2.05
-1.11
-0.40
0.13
0.53
0.83
1.01
1.11
1.17
1.25
1.40
1.61
1.80
1.89
1.79
1.48
1.01
0.49
0.03
-0.30
-0.51
-0.65
-0.76
-0.86
-0.94
-0.93
-0.83
-0.63
-0.36
-0.08
0.19
0.41
0.57
0.61
0.56
0.48
0.47
0.62
0.98
1.52
2.12
2.61
2.85
2.85
2.67
2.43
2.21
2.01
1.84
1.66
1.45
1.21
0.97
0.72
0.43
0.08
-0.36
-0.83
-1.29
-1.69
-2.01
-2.29
-2.59
-2.94
-3.31
-3.63
-3.86
-3.95
-3.89
-3.67
-3.26
-2.63
-1.77
-0.69
0.51
1.72
2.81
3.73
4.47
5.02
5.40
5.68
5.91
6.21
6.56
6.94
7.25
7.38
7.28
7.00
6.68
6.43
6.39
6.55
6.88
7.29
7.71
8.08
8.39
8.70
9.05
9.47
9.93
10.38
10.76
11.04
11.31
11.69
12.34
13.34
14.67
16.24
17.90
19.58
21.22
22.83
24.38
25.81
27.03
27.95
28.47
28.48
27.91
26.70
24.84
22.43
19.62
16.54
13.28
9.78
5.96
1.75
-2.75
-7.31
-11.61
-15.39
-18.66
-21.68
-24.92
-28.87
-33.89
-40.23
-47.90
-56.81
-66.76
-77.52
-88.77
-100.25
-111.72
-123.13
-134.42
-145.38
-155.31
-162.82
-166.00
-162.91
-152.25
-133.65
-107.72
-75.69
-39.03
0.76
42.08
83.12
121.80
156.01
183.93
204.06
214.93
214.94
202.44
176.58
138.45
91.64
41.81
-4.75
-42.92
-69.87
-85.08
-89.57
-84.81
-72.32
-53.82
-31.68
-9.00
10.86
25.34
33.36
35.24
32.09
24.98
14.40
0.52
-16.32
-35.09
-53.82
-69.98
-81.21
-86.07
-84.24
-76.50
-64.18
-48.74
-31.35
-12.93
5.67
23.55
39.69
53.11
63.05
69.11
71.20
69.53
64.40
56.20
45.38
32.61
18.78
4.95
-7.83
-18.68
-26.90
-31.87
-32.97
-29.60
-21.38
-8.49
8.11
26.62
44.74
60.14
70.98
76.32
76.13
71.20
62.84
52.67
42.26
33.01
26.00
21.76
20.36
21.31
23.76
26.63
28.93
29.83
28.79
25.57
20.09
12.45
2.88
-8.35
-20.95
-34.65
-49.25
-64.53
-80.12
-95.37
-109.17
-120.10
-126.68
-127.74
-122.64
-111.30
-94.16
-71.93
-45.59
-16.30
14.55
45.40
74.70
101.17
123.92
142.37
155.94
163.88
165.38
159.92
147.77
130.32
109.90
89.20
70.52
55.27
43.83
35.88
30.85
28.24
27.70
28.84
31.08
33.58
35.45
35.86
34.25
30.39
24.29
16.13
6.17
-5.38
-18.25
-32.18
-46.92
-62.17
-77.70
-93.33
-109.04
-124.90
-140.90
-156.60
-170.96
-182.32
-188.59
-187.79
-178.62
-160.80
-135.11
-103.15
-67.01
-28.99
8.47
43.08
72.77
96.01
111.97
120.58
122.46
118.60
110.20
98.57
85.03
70.94
57.45
45.41
35.21
26.79
19.90
14.31
9.90
6.70
4.60
3.28
2.23
0.89
-1.07
-3.61
-6.40
-8.99
-11.03
-12.43
-13.34
-14.01
-14.65
-15.38
-16.25
-17.18
-18.05
-18.70
-18.90
-18.45
-17.23
-15.23
-12.61
-9.63
-6.62
-3.85
-1.51
0.34
1.77
2.84
3.63
4.10
4.11
3.42
1.78
-1.01
-4.88
-9.44
-13.98
-17.64
-19.70
-19.76
-18.01
-15.08
-11.83
-8.98
-6.86
-5.49
-4.82
-4.95
-6.33
-9.61
-15.38
-23.92
-35.04
-48.22
-62.83
-78.31
-94.01
-109.00
-121.97
-131.26
-135.39
-133.40
-125.22
-111.76
-94.57
-75.47
-56.10
-37.74
-21.21
-7.06
4.44
13.14
19.05
22.29
23.21
22.36
20.55
18.76
17.85
18.37
20.36
23.52
27.38
31.65
36.28
41.44
47.27
53.53
59.50
64.08
66.23
65.35
61.51
55.44
48.28
41.17
35.03
30.44
27.70
26.87
27.90
30.56
34.36
38.71
42.90
46.42
49.08
51.01
52.66
54.48
56.66
59.00
60.94
61.71
60.73
57.82
53.23
47.50
41.23
34.72
27.94
20.59
12.30
2.83
-7.73
-18.91
-29.91
-39.79
-47.77
-53.37
-56.47
-57.20
-55.88
-52.88
-48.68
-43.82
-39.00
-34.90
-32.06
-30.55
-29.97
-29.50
-28.18
-25.18
-19.87
-11.98
-1.51
11.31
26.19
42.69
60.36
78.65
96.91
114.30
129.72
141.66
148.31
147.94
139.28
121.93
96.52
64.60
28.43
-9.25
-45.47
-77.36
-102.43
-119.10
-126.87
-126.46
-119.50
-108.05
-94.17
-79.55
-65.52
-53.03
-42.83
-35.26
-30.28
-27.53
-26.43
-26.38
-26.72
-26.81
-25.95
-23.52
-19.01
-12.16
-3.04
7.99
20.32
33.16
45.55
56.52
65.27
71.32
74.61
75.42
74.20
71.34
67.01
61.22
53.90
45.07
34.88
23.63
11.60
-0.93
-13.72
-26.50
-38.92
-50.60
-61.06
-69.88
-76.62
-80.95
-82.63
-81.55
-77.88
-72.02
-64.64
-56.62
-48.91
-42.20
-36.87
-32.83
-29.63
-26.68
-23.51
-19.91
-15.98
-12.04
-8.57
-6.05
-5.04
-6.01
-9.28
-14.81
-22.08
-30.05
-37.36
-42.72
-45.15
-44.28
-40.24
-33.51
-24.71
-14.36
-3.01
8.83
20.51
31.39
40.81
48.34
53.62
56.45
56.65
54.12
48.91
41.38
32.30
22.79
14.13
7.45
3.54
2.67
4.59
8.65
13.92
19.39
24.20
27.73
29.80
30.59
30.60
30.41
30.54
31.34
32.95
35.26
37.92
40.36
41.78
41.38
38.56
33.21
25.75
17.07
8.22
0.12
-6.55
-11.42
-14.25
-14.89
-13.28
-9.55
-4.19
2.02
8.18
13.54
17.76
20.85
23.12
24.86
26.21
27.07
27.20
26.38
24.49
21.61
17.99
14.04
10.20
6.88
4.33
2.59
1.51
0.90
0.69
1.12
2.67
5.81
10.78
17.29
24.51
31.24
36.27
38.77
38.52
35.91
31.72
26.75
21.49
15.89
9.42
1.23
-9.49
-23.14
-39.37
-56.97
-74.09
-88.62
-98.72
-103.38
-102.63
-97.46
-89.42
-80.10
-70.65
-61.64
-53.15
-44.95
-36.82
-28.66
-20.45
-12.20
-3.99
4.04
11.58
18.03
22.66
24.76
23.97
20.50
15.18
9.31
4.22
1.01
0.16
1.49
4.41
8.17
12.25
16.52
21.23
26.73
33.29
40.97
49.68
59.26
69.35
79.31
88.00
93.95
95.47
91.19
80.35
63.06
40.19
13.16
-16.31
-46.39
-75.24
-101.16
-122.83
-139.58
-151.44
-159.06
-163.42
-165.51
-166.00
-165.19
-163.02
-159.14
-153.10
-144.46
-132.91
-118.34
-100.98
-81.42
-60.57
-39.47
-19.02
0.16
17.82
33.97
48.68
61.98
73.78
83.96
92.45
99.35
104.83
109.04
112.11
114.06
114.88
114.59
113.23
110.83
107.39
102.79
96.84
89.28
79.76
68.00
53.88
37.52
19.31
-0.28
-20.87
-42.29
-64.37
-86.62
-107.92
-126.52
-140.37
-147.71
-147.70
-140.58
-127.42
-109.54
-88.13
-63.90
-37.30
-8.70
21.38
52.21
83.03
113.04
141.32
166.49
186.62
199.37
202.55
194.82
176.25
148.55
114.70
78.15
41.95
8.26
-21.75
-47.51
-68.63
-84.51
-94.33
-97.34
-93.27
-82.58
-66.44
-46.48
-24.47
-1.96
19.62
39.03
55.21
67.50
75.85
81.08
84.49
87.46
90.70
93.81
95.35
93.38
86.24
73.27
54.90
32.44
7.58
-18.12
-43.38
-67.23
-88.91
-107.72
-123.04
-134.39
-141.64
-145.00
-145.03
-142.48
-138.07
-132.40
-125.81
-118.22
-109.38
-99.02
-87.02
-73.64
-59.42
-45.00
-30.82
-17.05
-3.62
9.56
22.29
34.12
44.46
52.89
59.32
64.08
67.71
70.71
73.30
75.39
76.67
76.83
75.75
73.60
70.78
67.82
65.20
63.27
62.11
61.61
61.46
61.35
61.02
60.39
59.43
58.12
56.42
54.28
51.70
48.83
45.85
42.98
40.25
37.47
34.39
30.89
27.16
23.67
21.01
19.47
18.88
18.53
17.42
14.58
9.55
2.48
-5.81
-14.11
-21.08
-25.60
-27.06
-25.46
-21.42
-15.87
-9.82
-4.08
0.81
4.33
5.90
4.67
-0.23
-9.45
-22.82
-39.26
-56.84
-73.20
-86.14
-93.94
-95.61
-90.85
-80.03
-64.19
-44.97
-24.45
-4.82
12.06
25.04
33.78
38.61
40.23
39.25
36.09
30.97
24.08
15.64
6.05
-4.20
-14.57
-24.56
-33.75
-41.79
-48.27
-52.62
-54.14
-52.12
-46.13
-36.32
-23.47
-8.98
5.49
18.46
28.89
36.19
40.16
40.73
37.96
32.15
23.91
14.21
4.22
-4.95
-12.50
-17.98
-21.31
-22.70
-22.47
-21.06
-18.95
-16.52
-14.06
-11.68
-9.41
-7.24
-5.23
-3.52
-2.22
-1.39
-0.88
-0.48
-0.06
0.41
0.81
0.86
0.22
-1.39
-4.17
-8.13
-13.02
-18.47
-23.93
-28.96
-33.32
-37.00
-40.11
-42.80
-45.04
-46.75
-47.92
-48.65
-49.24
-49.98
-51.07
-52.40
-53.72
-54.71
-55.13
-54.94
-54.15
-52.77
-50.76
-48.03
-44.61
-40.70
-36.74
-33.26
-30.75
-29.32
-28.58
-27.54
-24.86
-19.21
-9.75
3.58
20.00
38.23
56.89
74.91
91.60
106.56
119.44
129.87
137.50
142.01
143.27
141.29
136.33
128.98
120.21
111.26
103.44
97.59
93.79
91.29
88.78
85.02
79.35
71.80
62.89
53.23
43.19
32.88
22.19
11.01
-0.78
-13.32
-26.88
-41.75
-58.15
-75.97
-94.59
-112.94
-129.74
-143.77
-154.06
-160.00
-161.42
-158.57
-152.24
-143.58
-133.88
-124.20
-115.01
-106.16
-97.12
-87.45
-77.39
-67.99
-60.85
-57.42
-58.39
-63.15
-69.94
-76.39
-80.15
-79.47
-73.28
-61.02
-42.49
-17.76
12.61
47.29
84.06
120.06
152.21
177.80
194.97
202.72
200.89
190.03
171.30
146.37
117.38
86.63
56.35
28.38
3.98
-16.01
-31.21
-41.51
-47.13
-48.51
-46.40
-41.85
-36.01
-30.03
-24.85
-20.96
-18.44
-17.00
-16.20
-15.73
-15.59
-16.03
-17.30
-19.49
-22.28
-25.04
-27.07
-27.89
-27.43
-25.98
-24.09
-22.23
-20.64
-19.26
-17.75
-15.73
-12.92
-9.33
