1563543312.00
64.000000
-0.00
-0.00
-0.00
-0.00
-0.00
-0.00
-0.00
-0.00
-0.00
-0.00
0.00
0.01
0.01
-0.00
-0.03
-0.05
-0.05
0.00
0.13
0.36
0.66
1.01
1.37
1.72
2.06
2.40
2.79
3.24
3.80
4.42
5.06
5.66
6.20
6.68
7.15
7.69
8.33
9.18
10.15
11.14
12.03
12.78
13.43
14.16
15.18
16.64
18.75
21.33
24.10
26.77
29.17
31.36
33.68
36.55
40.28
45.26
51.12
57.36
63.39
68.86
73.83
78.79
84.44
91.31
99.93
109.79
120.10
129.98
138.86
146.79
154.40
163.04
171.38
181.70
194.58
210.13
227.15
242.72
252.55
252.02
237.76
208.88
167.75
118.18
64.52
9.98
-43.90
-96.77
-148.72
-199.46
-248.15
-293.33
-334.11
-369.80
-399.85
-423.47
-439.30
-445.75
-441.38
-425.53
-398.47
-361.91
-318.38
-270.72
-222.35
-175.65
-131.95
-91.82
-55.40
-22.58
6.49
31.69
52.98
70.54
84.96
96.94
107.14
116.07
124.00
130.80
136.24
140.13
142.40
143.24
142.90
141.59
139.36
136.53
133.11
129.03
124.32
119.17
114.00
109.21
105.08
101.63
98.65
95.61
92.12
88.17
84.21
81.10
79.82
81.09
85.19
91.88
100.42
110.12
120.68
132.38
145.62
160.48
176.11
190.46
200.51
202.49
193.16
170.63
134.74
86.53
27.69
-40.28
-116.53
-198.63
-284.64
-372.71
-461.27
-548.69
-632.88
-710.07
-774.24
-817.77
-833.84
-819.76
-778.64
-719.09
-652.29
-588.57
-534.36
-491.30
-457.61
-430.21
-406.73
-385.52
-366.38
-347.29
-325.26
-297.33
-261.90
-219.52
-172.53
-124.52
-78.68
-36.92
0.64
34.80
66.43
95.74
121.96
143.76
159.89
170.24
176.14
180.24
185.26
192.87
203.10
214.32
224.14
230.47
232.70
231.94
230.54
230.76
233.64
238.37
242.66
244.10
241.36
235.06
227.63
222.20
221.33
226.45
238.12
256.40
280.40
307.40
331.76
345.92
343.10
321.11
284.57
243.91
210.87
193.01
190.70
197.94
206.72
211.41
210.81
206.83
201.48
194.52
183.79
167.46
146.24
123.94
105.44
94.12
89.89
89.33
87.07
78.00
59.32
32.10
2.05
-21.63
-29.18
-14.13
23.39
76.25
133.12
183.55
221.32
247.28
267.18
287.29
310.44
334.53
354.24
364.21
361.72
347.25
323.34
292.34
255.32
212.26
163.09
108.97
52.74
-1.57
-49.98
-89.58
-119.46
-140.73
-155.69
-166.72
-175.28
-181.61
-184.93
-184.16
-178.52
-168.12
-154.06
-138.05
-121.73
-106.30
-92.35
-79.96
-68.87
-58.87
-50.02
-42.70
-38.07
-37.46
-41.94
-52.17
-68.08
-88.78
-112.65
-137.07
-159.98
-180.22
-197.55
-212.38
-225.59
-237.87
-249.28
-259.12
-266.45
-270.56
-271.57
-270.41
-268.48
-267.70
-269.97
-276.66
-287.72
-300.93
-311.71
-313.73
-302.10
-272.89
-226.39
-167.26
-102.84
-40.05
16.78
66.65
110.49
148.90
180.44
201.07
205.90
191.70
159.67
116.29
72.49
40.43
29.55
43.41
77.94
123.62
168.44
202.04
217.84
213.83
192.45
159.67
124.43
96.98
85.86
93.83
115.29
136.98
143.53
125.01
81.85
24.84
-30.78
-72.93
-98.21
-111.41
-122.25
-139.23
-165.18
-197.65
-231.78
-264.21
-294.43
-323.84
-353.00
-379.80
-400.33
-409.01
-401.93
-378.68
-342.50
-299.10
-254.22
-211.83
-173.34
-137.87
-103.36
-68.29
-32.51
2.62
35.13
63.34
86.84
106.47
123.94
141.32
159.85
180.01
201.54
224.84
251.41
283.05
320.16
360.15
396.79
421.76
427.18
408.61
366.33
305.01
231.89
154.94
81.93
19.76
-25.59
-50.12
-52.33
-34.26
-1.27
38.97
78.53
110.95
132.32
141.57
139.60
128.43
109.93
85.69
57.05
25.97
-4.70
-31.64
-51.87
-63.91
-68.04
-65.59
-57.89
-45.57
-28.68
-7.47
16.10
38.22
53.70
57.81
48.36
27.21
0.47
-23.87
-39.13
-43.49
-41.03
-39.79
-47.37
-65.94
-89.94
-108.31
-110.63
-93.21
-62.01
-30.07
-10.97
-11.88
-30.18
-55.77
-76.33
-83.43
-75.33
-56.32
-32.95
-10.68
7.84
22.73
34.83
44.31
49.71
49.15
41.12
26.16
7.43
-9.94
-20.50
-21.16
-12.88
-0.46
9.94
13.79
11.04
5.81
3.74
8.46
19.05
30.68
37.24
35.13
25.42
13.57
6.51
8.82
20.23
35.69
48.44
53.79
51.66
46.13
42.34
42.88
45.73
46.16
40.31
28.90
17.97
15.90
28.64
55.89
90.69
122.22
140.93
142.02
126.61
100.30
69.71
39.91
12.78
-12.31
-37.52
-64.41
-92.83
-120.23
-142.74
-156.64
-160.44
-155.51
-145.42
-133.90
-122.65
-110.93
-96.61
-78.66
-58.61
-40.32
-27.68
-22.23
-21.93
-22.27
-19.04
-10.83
0.27
10.15
15.13
14.07
8.40
1.38
-3.91
-5.99
-5.38
-4.07
-4.36
-7.66
-13.78
-21.16
-27.80
-32.31
-34.68
-35.96
-37.51
-39.99
-42.97
-44.95
-44.12
-39.14
-29.83
-17.33
-3.70
8.71
18.08
23.92
27.22
29.91
33.74
39.08
44.49
47.50
46.10
40.24
32.09
24.97
21.48
22.04
24.85
26.94
26.22
22.75
18.69
16.80
18.58
23.05
27.40
28.56
25.25
18.76
12.25
8.76
9.46
12.83
15.71
15.27
10.47
2.41
-7.00
-16.72
-27.64
-41.94
-61.18
-84.26
-106.78
-122.66
-126.90
-118.36
-100.53
-79.94
-62.88
-52.70
-48.65
-47.18
-44.30
-37.99
-29.04
-20.37
-15.00
-14.17
-16.44
-18.32
-16.09
-7.53
6.97
24.65
41.68
55.21
64.59
71.41
78.12
86.20
94.75
101.11
102.59
98.71
92.17
87.73
89.04
96.18
105.10
109.76
105.94
94.08
79.28
68.07
64.54
67.49
71.37
69.71
58.84
39.61
16.44
-5.37
-22.31
-33.18
-38.60
-39.42
-36.24
-29.37
-19.35
-7.10
6.39
20.49
34.94
49.58
63.98
77.06
87.14
92.11
89.57
77.00
52.70
16.86
-27.61
-75.06
-118.69
-152.68
-173.83
-182.34
-181.09
-173.92
-164.06
-153.22
-141.59
-128.44
-113.10
-95.38
-75.79
-55.37
-35.28
-16.59
-0.21
13.00
21.98
25.43
22.43
13.32
0.48
-12.25
-20.70
-22.45
-17.98
-10.44
-3.95
-1.50
-3.19
-6.43
-7.41
-3.54
5.06
15.47
23.47
25.72
21.57
13.36
5.02
0.08
-0.31
2.32
4.63
3.77
-0.96
-7.43
-11.80
-10.83
-3.81
6.85
16.69
21.81
21.08
16.74
13.33
14.85
22.27
32.59
40.30
40.28
31.08
16.11
2.41
-3.17
2.44
16.12
30.46
37.52
33.58
21.44
8.69
3.08
7.66
18.85
28.30
28.19
16.15
-3.21
-20.61
-27.74
-21.85
-7.50
6.21
10.91
3.83
-10.90
-24.79
-29.97
-23.84
-10.16
3.03
8.33
3.24
-8.24
-18.29
-19.82
-10.49
5.50
19.90
24.88
17.72
2.42
-12.17
-17.60
-10.59
4.90
19.76
25.04
17.51
1.55
-13.11
-17.38
-8.20
9.06
24.12
27.49
16.38
-3.44
-21.55
-28.70
-22.67
-9.04
2.31
3.47
-7.02
-23.08
-35.35
-36.52
-25.73
-8.70
5.52
9.83
2.78
-10.95
-23.09
-26.52
-18.87
-3.60
11.91
20.39
18.66
9.19
-1.28
-5.79
-1.11
9.85
20.27
23.36
16.97
5.24
-4.08
-4.08
6.59
22.79
35.37
36.60
24.43
3.92
-15.57
-25.60
-23.25
-12.48
-1.59
1.60
-5.79
-20.00
-33.07
-37.49
-30.91
-17.45
-5.61
-2.94
-11.45
-26.12
-37.71
-38.22
-25.52
-4.76
14.71
24.55
22.38
12.95
4.84
5.22
14.89
27.83
34.55
28.32
9.55
-13.53
-29.47
-29.92
-14.80
7.65
25.38
29.39
18.75
0.86
-13.15
-15.02
-4.28
12.07
23.71
23.48
11.58
-4.65
-15.23
-13.58
-0.64
15.86
25.97
23.45
9.81
-6.54
-15.36
-10.49
5.99
24.90
34.99
29.63
10.24
-14.22
-32.84
-38.69
-32.76
-22.11
-15.46
-17.21
-24.79
-30.84
-27.94
-13.98
6.33
23.89
30.73
24.78
11.39
0.19
-0.34
12.04
31.90
48.85
53.24
41.31
17.51
-7.95
-24.82
-28.23
-21.36
-13.25
-13.33
-25.73
-46.83
-67.35
-78.09
-75.31
-62.94
-49.72
-44.14
-49.25
-61.32
-72.86
-77.27
-72.82
-62.52
-51.63
-43.87
-39.37
-35.30
-28.24
-16.52
-1.00
15.74
31.54
45.81
59.63
74.95
92.94
112.72
130.93
144.27
150.35
149.66
145.37
141.44
139.98
138.56
131.31
111.45
75.02
23.30
-36.91
-96.16
-146.02
-181.52
-201.56
-206.84
-198.14
-175.57
-139.37
-91.25
-35.40
21.98
74.77
118.46
151.57
175.51
193.21
207.37
219.31
228.43
232.74
230.68
222.06
208.54
192.86
177.79
164.75
153.31
142.40
128.38
107.41
76.42
34.04
-18.59
-77.32
-135.29
-183.50
-214.08
-223.91
-215.74
-197.20
-177.49
-163.53
-157.90
-158.99
-163.14
-167.43
-171.33
-175.91
-182.54
-191.48
-201.37
-210.11
-215.93
-217.89
-216.22
-212.10
-206.32
-198.72
-188.83
-174.44
-153.11
-123.33
-85.14
-40.72
5.86
49.74
86.52
113.22
129.10
135.42
134.75
130.77
127.54
129.25
139.67
161.01
192.40
229.38
264.46
288.53
295.82
286.01
264.23
238.38
215.32
197.70
183.83
170.32
153.13
130.36
102.34
70.48
36.19
0.43
-36.19
-72.38
-105.96
-134.17
-153.82
-162.58
-159.51
-145.34
-121.31
-90.32
-55.77
-20.94
10.88
37.13
54.73
60.22
50.84
26.34
-9.82
-50.11
-85.30
-107.45
-112.55
-101.92
-81.46
-59.45
-43.10
-37.62
-44.24
-60.56
-81.54
-100.86
-112.41
-111.01
-93.38
-59.29
-13.06
36.16
75.77
93.55
82.66
45.42
-6.36
-55.66
-86.91
-91.93
-71.99
-35.92
3.94
35.77
50.67
43.95
15.80
-28.24
-77.84
-119.96
-142.83
-140.58
-115.80
-79.33
-45.69
-27.46
-30.36
-51.42
-80.68
-105.36
-114.45
-102.02
-68.50
-20.21
32.20
76.56
102.15
102.83
79.21
39.27
-3.87
-36.09
-46.91
-32.43
4.71
57.83
119.11
180.97
236.35
278.31
300.91
301.05
280.29
245.03
204.46
166.30
133.51
103.60
71.22
32.79
-9.26
-45.75
-63.73
-52.77
-11.06
52.22
119.50
170.92
191.48
175.90
129.07
63.13
-7.49
-70.27
-117.12
-144.83
-154.35
-149.58
-135.82
-118.59
-102.39
-90.35
-83.98
-83.47
-87.94
-95.64
-104.15
-111.02
-114.70
-115.42
-115.50
-118.40
-127.20
-143.32
-165.66
-190.89
-214.85
-234.12
-247.07
-254.08
-256.74
-256.72
-254.65
-249.74
-240.39
-225.05
-203.27
-176.09
-145.82
-114.93
-85.29
-57.62
-31.67
-6.94
16.84
39.85
62.91
87.69
116.06
148.29
181.45
209.46
225.34
224.65
207.87
179.97
147.76
116.57
88.77
64.97
46.78
38.50
46.02
72.96
116.83
167.91
212.32
237.88
239.47
220.89
192.44
165.80
149.72
147.56
157.78
175.78
196.55
216.15
232.13
242.92
247.45
245.21
236.67
223.45
207.84
192.36
178.95
168.49
160.78
155.03
150.31
145.61
140.78
134.52
124.77
109.00
84.93
50.45
4.10
-54.54
-123.99
-199.44
-272.33
-331.39
-367.28
-375.15
-357.54
-323.91
-287.45
-259.90
-247.05
-247.85
-256.27
-265.89
-273.23
-278.41
-282.45
-284.16
-278.74
-259.21
-221.70
-168.49
-108.64
-54.47
-17.20
-2.55
-9.11
-30.14
-57.10
-83.70
-105.91
-121.10
-126.39
-118.69
-96.32
-60.55
-17.20
25.17
58.07
76.79
81.50
76.20
66.27
56.36
49.84
49.38
57.25
74.19
98.31
124.40
145.40
155.34
152.12
138.17
119.26
101.13
87.17
77.76
71.50
67.58
67.13
72.53
85.59
106.43
132.79
160.69
185.75
204.68
215.25
216.21
208.08
191.28
167.27
139.40
112.75
92.42
81.47
78.65
79.32
76.90
66.01
45.74
20.15
-4.21
-22.27
-33.99
-44.14
-59.28
-83.87
-117.30
-153.52
-183.43
-198.90
-195.82
-175.58
-143.58
-106.76
-71.36
-41.27
-18.42
-3.38
3.73
2.57
-6.89
-23.60
-44.54
-64.74
-78.65
-82.45
-76.32
-64.82
-54.89
-51.85
-55.90
-61.64
-61.52
-50.91
-31.84
-12.13
-0.33
0.28
-5.03
-5.50
8.71
39.08
76.48
104.91
110.19
87.42
44.18
-3.45
-38.68
-51.70
-43.41
-23.58
-4.76
3.87
0.18
-11.58
-24.28
-32.17
-33.45
-30.38
-27.14
-27.07
-31.25
-38.03
-45.98
-55.34
-68.49
-88.58
-118.06
-157.05
-202.46
-248.99
-290.36
-321.44
-339.45
-346.10
-344.10
-336.91
-327.12
-315.67
-302.02
-284.64
-262.31
-234.97
-203.76
-170.61
-137.88
-107.17
-79.18
-53.41
-28.33
-2.42
25.32
54.90
85.63
116.51
147.10
177.97
210.32
244.77
280.86
317.14
351.95
384.14
412.66
435.89
450.90
453.70
440.85
411.53
368.87
319.52
271.38
230.61
200.07
179.24
165.89
157.82
153.73
153.05
154.90
157.57
158.81
156.39
148.82
135.77
118.05
97.18
74.59
51.40
28.21
5.25
-17.28
-38.98
-59.05
-76.33
-89.68
-98.47
-102.64
-102.84
-100.18
-95.95
-91.43
-87.53
-84.73
-83.10
-82.52
-82.94
-84.40
-87.07
-91.09
-96.53
-102.98
-109.59
-115.02
-117.68
-116.06
-109.06
-96.56
-79.06
-58.05
-35.11
-11.72
11.22
33.45
55.18
76.66
97.84
118.09
135.92
150.14
160.20
166.40
169.80
171.49
172.18
171.41
169.34
163.85
152.49
133.06
103.68
63.05
11.34
-48.72
-111.05
-166.03
-204.47
-220.78
-215.50
-195.11
-169.37
-147.29
-134.27
-131.01
-134.69
-141.53
-148.20
-152.78
-154.75
-154.71
-153.89
-154.00
-156.65
-162.44
-170.76
-179.66
-185.88
-185.59
-176.23
-155.42
-123.14
-82.82
-41.40
-7.80
10.78
12.63
3.19
-6.88
-6.49
10.12
40.45
75.09
102.13
112.15
101.72
73.37
32.92
-13.56
-61.73
-108.45
-149.98
-180.76
-194.00
-183.41
-145.67
-81.65
3.15
98.78
192.08
269.73
321.93
345.16
343.02
324.27
299.12
275.41
256.36
241.25
227.73
214.49
202.10
192.02
184.88
179.35
172.60
161.59
145.76
125.61
102.96
79.84
56.99
33.59
7.92
-21.32
-53.94
-87.79
-119.60
-146.04
-165.05
-176.72
-182.92
-186.16
-188.37
-190.31
-191.37
-190.31
-185.70
-176.66
-163.72
-149.06
-136.75
-131.48
-136.53
-151.41
-170.74
-185.02
-183.56
-158.78
-109.59
-42.49
30.05
93.18
133.72
143.04
119.35
68.40
2.39
-63.23
-113.90
-139.89
-138.10
-111.57
-67.25
-13.61
40.54
85.86
113.12
115.15
90.10
43.95
-9.73
-53.37
-71.48
-56.29
-10.78
52.86
117.81
168.05
193.18
190.41
163.66
120.87
70.94
21.37
-22.68
-58.10
-82.84
-95.90
-97.63
-90.39
-78.27
-65.40
-53.77
-41.80
-25.07
0.50
35.10
73.53
105.96
122.13
115.96
89.28
51.84
17.75
-0.47
2.47
21.77
44.34
54.59
41.71
4.88
-46.05
-94.85
-125.85
-130.54
-110.51
-76.01
-40.75
-15.76
-5.30
-6.05
-9.79
-7.53
6.32
31.64
62.64
90.40
106.27
104.91
85.90
53.28
13.83
-25.36
-58.01
-79.12
-84.50
-70.98
-37.61
12.74
71.83
126.57
161.59
164.16
129.14
62.12
-21.29
-99.53
-151.68
-163.97
-133.97
-71.21
6.01
76.20
120.88
129.48
101.78
47.27
-18.20
-77.21
-115.69
-126.18
-109.04
-71.10
-23.05
23.81
60.06
79.60
80.41
64.80
38.92
11.63
-8.01
-13.41
-3.20
17.93
40.70
54.64
52.21
31.56
-2.80
-41.86
-75.29
-94.72
-95.89
-79.29
-49.38
-12.96
22.54
50.67
66.94
69.44
58.88
38.23
12.16
-13.92
-35.11
-48.15
-52.27
-48.96
-40.97
-30.74
-19.42
-6.85
7.18
21.60
33.54
39.19
35.82
23.46
5.53
-12.31
-24.18
-26.22
-17.64
-0.77
19.81
38.48
49.79
49.70
36.76
13.05
-16.00
-42.72
-59.42
-60.88
-46.02
-18.30
15.35
46.52
67.38
72.42
59.59
30.88
-7.68
-46.80
-75.85
-85.80
-72.31
-38.02
7.74
51.43
79.84
84.55
64.88
27.82
-14.66
-49.99
-69.02
-68.37
-50.55
-21.95
9.59
37.10
55.59
62.20
56.01
38.03
11.59
-17.64
-42.52
-56.53
-56.07
-41.91
-18.71
7.11
29.85
46.08
54.58
54.94
46.52
28.49
1.50
-30.66
-60.61
-79.30
-79.68
-60.15
-26.10
11.80
41.71
55.37
51.14
34.10
12.98
-4.18
-13.63
-16.80
-18.35
-22.57
-30.27
-37.97
-39.59
-30.03
-8.25
21.40
50.56
70.12
73.70
59.76
31.73
-3.47
-37.76
-63.93
-76.93
-74.54
-57.29
-28.32
7.04
41.84
68.58
80.57
73.92
49.04
11.32
-29.84
-63.54
-80.61
-76.62
-53.22
-17.64
19.90
49.43
64.11
61.85
45.17
19.95
-6.63
-27.93
-39.58
-40.30
-31.98
-18.91
-6.38
1.13
1.46
-4.29
-11.99
-15.80
-10.44
6.32
32.02
59.52
78.89
80.99
61.28
22.50
-25.47
-68.58
-93.69
-93.31
-68.34
-27.43
16.71
52.06
71.28
73.07
61.04
40.93
17.99
-4.17
-23.33
-37.68
-45.29
-44.51
-35.02
-18.64
0.83
18.85
31.68
37.49
36.38
29.69
19.03
5.94
-7.89
-20.09
-27.57
-27.23
-17.31
1.18
23.90
44.12
54.74
51.16
33.27
6.16
-21.34
-39.51
-40.98
-23.21
10.72
53.31
94.84
126.16
140.82
136.04
112.68
74.69
28.33
-18.51
-57.54
-81.71
-87.17
-74.61
-49.23
-18.70
9.74
31.89
47.58
59.51
70.87
83.37
96.52
108.39
117.15
121.94
122.94
120.54
114.58
104.12
87.65
63.52
30.51
-11.02
-58.12
-104.74
-142.73
-164.07
-164.14
-144.14
-110.82
-73.96
-42.58
-21.93
-12.64
-11.68
-14.09
-14.52
-8.14
8.61
37.27
76.37
120.85
163.09
193.85
205.83
196.31
167.69
125.88
77.71
28.96
-16.07
-54.60
-85.03
-106.77
-120.52
-128.18
-132.31
-135.52
-139.55
-144.73
-150.64
-156.45
-161.39
-165.26
-168.59
-172.47
-178.07
-186.07
-196.12
-207.24
-218.06
-226.93
-232.54
-234.00
-230.99
-223.62
-213.30
-200.39
-184.81
-166.33
-144.60
-119.39
-90.45
-57.58
-20.73
20.11
64.93
113.11
163.34
213.35
259.98
299.49
327.93
341.57
337.54
314.34
271.41
210.07
133.29
45.17
-49.29
-144.78
-236.34
-319.48
-391.06
-448.82
-491.35
-518.04
-529.02
-524.85
-506.45
-475.13
-432.34
-379.60
-318.54
-250.75
-177.98
-102.17
-25.18
51.21
125.22
195.49
261.02
321.18
375.67
424.29
466.04
499.84
524.39
538.09
539.42
527.14
500.55
459.62
405.14
338.65
261.92
178.76
92.39
6.48
-75.33
-149.66
-213.84
-266.19
-306.31
-335.03
-353.95
-365.38
-371.28
-373.10
-371.41
-366.31
-357.78
-346.23
-332.50
-317.85
-303.56
-290.16
-277.20
-263.34
-247.04
-227.19
-203.84
-178.27
-152.39
-127.97
-105.76
-84.96
-63.71
-39.78
-11.09
24.08
67.02
118.41
177.58
241.69
305.59
362.89
408.00
438.30
455.43
463.99
468.96
472.67
473.87
468.92
455.07
432.88
406.52
381.44
360.94
343.97
325.54
300.05
264.75
221.85
177.17
137.27
106.00
83.23
65.92
50.53
35.26
20.63
8.75
1.75
0.75
5.58
14.75
26.04
36.51
42.88
42.06
32.30
13.80
-10.90
-37.67
-62.21
-81.28
-93.40
-99.04
-99.84
-97.81
-94.78
-92.06
-90.44
-90.49
-92.33
-95.78
-100.12
-104.02
-105.60
-102.69
-93.55
-77.55
-55.77
-30.78
-5.77
16.56
34.84
49.06
59.89
67.58
71.61
70.97
65.53
56.64
47.03
39.48
35.22
33.10
30.08
22.84
9.29
-10.32
-33.47
-56.35
-74.92
-86.14
-88.78
-83.71
-73.89
-63.68
-57.02
-56.11
-60.49
-67.43
-73.13
-74.59
-70.68
-62.61
-53.69
-47.14
-44.14
-42.70
-37.74
-23.40
3.94
43.31
88.55
130.18
159.98
174.71
177.27
175.11
176.59
186.14
204.08
229.51
259.50
289.79
316.51
335.65
343.36
337.02
316.96
287.18
254.10
222.08
192.98
164.88
132.73
91.02
36.54
-30.16
-104.94
-182.27
-256.35
-323.22
-380.24
-425.55
-457.60
-475.20
-478.03
-466.70
-443.15
-410.78
-373.32
-334.27
-296.02
-259.56
-224.25
-188.53
-150.76
-110.72
-69.98
-31.64
1.06
26.77
46.88
65.26
85.75
109.67
134.41
155.13
167.83
172.44
172.92
174.18
177.88
180.17
173.58
152.46
117.61
77.67
44.37
25.90
21.52
22.05
15.79
-4.04
-34.29
-63.62
-79.11
-74.21
-52.71
-27.10
-10.91
-11.13
-24.36
-39.20
-43.78
-33.47
-14.73
-1.43
-6.96
-35.32
-77.65
-116.33
-134.65
-126.13
-98.28
-67.65
-49.89
-50.08
-59.86
-62.29
-42.81
1.37
58.26
107.23
130.05
120.80
89.47
56.37
41.15
52.29
83.01
115.23
130.61
120.50
90.82
57.66
37.60
37.61
50.79
61.15
53.19
21.62
-25.06
-69.56
-95.95
-98.50
-84.35
-67.42
-58.65
-58.26
-55.42
-35.16
10.78
77.10
145.52
193.73
207.05
186.58
148.50
115.10
102.80
113.73
135.93
150.63
143.00
109.39
57.99
2.63
-44.97
-80.90
-109.35
-137.70
-170.32
-205.08
-233.68
-246.48
-238.42
-212.36
-178.32
-148.59
-131.94
-129.78
-136.77
-144.38
-145.95
-139.58
-127.86
-114.90
-103.62
-94.59
-87.10
-81.11
-77.95
-79.25
-84.93
-91.81
-94.06
-85.45
-61.83
-23.35
25.06
74.62
115.05
137.67
138.63
120.44
91.37
62.47
43.06
37.15
42.48
52.64
61.19
65.08
65.57
66.25
69.62
74.82
77.86
74.30
62.29
44.26
25.76
12.58
7.21
7.58
8.30
4.00
-7.16
-22.32
-35.33
-40.49
-35.79
-24.13
-11.66
-4.08
-3.57
-7.70
-11.26
-9.52
-1.32
10.42
20.35
24.05
20.46
12.40
4.78
1.80
4.72
11.48
18.16
21.30
19.65
14.75
9.58
6.87
7.42
9.79
11.25
9.40
3.87
-3.27
-8.29
-7.71
-0.10
13.05
27.94
40.37
47.50
49.19
47.40
45.09
44.35
45.73
48.19
50.33
51.38
51.85
53.10
56.37
61.91
68.62
74.80
79.27
82.48
86.47
93.72
105.26
119.04
130.07
132.48
122.48
100.80
72.85
46.61
28.94
22.69
25.86
33.43
40.50
44.72
46.84
49.11
52.97
57.36
59.11
54.43
41.09
19.57
-7.10
-34.66
-59.27
-78.57
-91.97
-99.72
-102.30
-99.66
-91.20
-76.10
-53.92
-24.99
9.44
47.07
85.39
121.76
153.82
179.44
196.93
204.95
202.64
189.54
165.70
131.68
88.57
38.20
-17.18
-75.38
-135.01
-195.80
-258.01
-320.96
-381.55
-433.91
-470.60
-485.47
-476.62
-447.82
-407.50
-365.73
-330.72
-306.50
-292.81
-286.61
-284.11
-282.12
-277.96
-268.76
-251.23
-222.83
-183.58
-137.60
-92.64
-57.69
-38.98
-37.37
-47.61
-60.27
-65.47
-56.37
-30.90
8.61
57.63
111.67
167.35
222.42
274.69
320.82
356.40
376.46
377.59
359.66
327.59
290.12
257.15
235.92
228.60
232.08
240.02
246.02
245.92
237.73
220.00
190.70
147.60
90.36
23.39
-43.45
-97.22
-126.36
-125.47
-97.35
-51.19
1.68
52.32
96.28
132.54
160.69
178.30
180.63
163.01
124.01
67.83
3.38
-58.27
-107.70
-139.44
-152.47
-148.93
-132.13
-105.85
-73.20
-37.10
-1.29
28.84
47.64
51.45
40.97
21.89
3.11
-7.62
-7.74
-1.75
0.97
-8.89
-35.83
-77.45
-126.22
-173.69
-214.15
-245.97
-270.28
-288.25
-299.55
-303.11
-298.89
-289.25
-278.45
-270.51
-266.05
-262.28
-253.35
-232.49
-194.65
-138.26
-65.87
16.95
102.88
184.54
255.65
311.82
351.05
372.53
376.11
362.67
334.45
294.92
248.01
196.73
142.68
85.48
24.22
-41.29
-109.52
-177.29
-240.59
-295.47
-338.38
-364.23
-368.69
-348.56
-303.20
-235.46
-151.85
-61.94
23.52
93.63
141.71
165.60
168.24
157.21
142.65
133.49
133.35
138.41
138.53
121.95
80.76
15.49
-64.28
-143.75
-208.01
-246.96
-257.36
-241.80
-205.62
-154.57
-93.70
-27.82
37.75
97.28
145.30
178.46
196.21
200.78
196.23
186.93
176.37
166.43
157.49
148.68
138.70
126.83
113.16
98.62
84.64
72.30
61.80
52.36
43.06
34.10
27.35
25.60
30.65
41.44
53.66
61.47
60.29
49.25
31.62
12.92
-2.03
-11.16
-15.49
-17.53
-19.23
-20.98
-21.86
-20.95
-18.37
-15.33
-13.42
-13.59
-15.88
-19.10
-21.72
-22.57
-21.33
-18.57
-15.48
-13.24
-12.51
-13.22
-14.60
-15.68
-15.59
-14.25
-12.06
-9.76
-8.01
-7.20
-7.25
-7.74
-8.13
-8.10
-7.55
-6.67
-5.77
-5.09
-4.78
-4.77
-4.88
-4.96
-4.89
-4.73
-4.50
-4.30
-4.13
-3.99
-3.85
-3.68
-3.55
-3.54
-3.73
-4.12
-4.60
-5.00
-5.18
-5.07
-4.78
-4.55
-4.69
-5.38
-6.59
-8.04
-9.29
-9.97
-9.95
-9.46
-9.07
-9.38
-10.78
-13.17
-15.99
-18.41
-19.70
-19.65
-18.72
-17.88
-18.20
-20.33
-24.12
-28.67
-32.65
-35.12
-35.69
-34.88
-33.73
-33.30
-34.31
-37.22
-42.23
-49.13
-56.73
-62.28
-61.99
-52.31
-31.93
-3.07
28.81
57.06
76.51
85.39
85.50
80.64
74.41
68.78
64.08
59.92
56.28
53.70
52.84
53.67
55.26
56.24
55.71
53.54
50.75
48.79
48.74
50.69
53.80
56.77
58.46
58.40
57.08
55.66
55.69
58.63
65.22
74.95
85.47
92.75
91.88
79.56
55.13
22.00
-13.44
-44.47
-66.55
-78.70
-82.91
-82.19
-78.76
-72.89
-63.64
-50.25
-33.55
-16.03
-0.82
9.88
15.36
16.43
14.65
11.35
6.96
0.77
-8.43
-21.44
-37.70
-55.48
-72.07
-84.62
-91.58
-92.78
-89.77
-84.98
-80.66
-78.41
-79.03
-82.84
-89.00
-95.92
-100.64
-99.51
-89.32
-68.91
-40.65
-9.80
17.33
36.08
45.06
46.27
43.41
39.75
36.77
34.09
30.89
26.93
23.04
20.45
19.93
21.16
22.90
23.76
22.64
19.62
15.59
11.85
9.50
8.91
9.65
10.74
11.13
10.16
7.85
4.80
1.88
-0.23
-1.30
-1.56
-1.60
-2.04
-3.25
-5.21
-7.57
-9.86
-11.70
-12.97
-13.85
-14.67
-15.82
-17.57
-19.99
-22.96
-26.24
-29.66
-33.08
-36.49
-39.78
-42.73
-44.96
-45.92
-44.85
-41.17
-34.61
-25.31
-13.86
-1.14
11.89
24.36
35.75
45.88
54.70
62.28
68.54
73.27
76.19
77.19
76.38
74.15
71.11
67.83
64.93
62.98
62.51
63.63
65.70
67.15
65.72
59.32
47.12
30.20
11.32
-6.09
-19.26
-26.96
-29.47
-28.09
-24.18
-18.83
-12.86
-7.35
-3.57
-2.65
-4.73
-8.34
-10.94
-9.95
-4.12
5.87
17.50
27.68
33.78
35.01
32.71
29.05
26.22
25.39
26.43
28.09
28.70
26.23
19.44
8.40
-6.64
-24.00
-41.95
-58.92
-73.54
-84.64
-91.66
-93.98
-90.54
-81.80
-69.18
-54.73
-40.79
-29.52
-20.22
-14.67
-17.27
-33.02
-65.92
-114.18
-168.97
-216.95
-244.86
-244.22
-215.51
-172.13
-122.58
-74.66
-32.92
2.07
31.77
57.79
81.26
101.87
119.43
135.46
150.11
164.69
181.07
199.67
219.24
238.22
254.21
265.18
269.51
265.26
251.16
226.97
191.41
137.86
65.12
-20.69
-106.17
-176.38
-221.42
-246.01
-259.10
-271.85
-294.23
-330.41
-377.84
-422.49
-450.79
-453.62
-429.22
-382.15
-321.65
-257.24
-194.66
-135.25
-76.80
-18.10
40.05
95.43
147.08
195.78
244.19
288.49
323.31
345.30
353.21
347.62
329.06
298.22
256.41
206.85
161.80
124.20
95.41
74.21
57.33
41.19
24.01
6.50
-8.72
-22.04
-33.02
-40.93
-46.54
-51.51
-57.22
-63.98
-71.08
-77.46
-82.56
-86.35
-88.25
-87.82
-84.72
-78.67
-69.52
-57.53
-43.58
-29.12
-15.66
-3.72
6.67
15.80
24.03
31.60
38.59
44.82
49.83
53.04
54.20
53.28
50.49
46.30
41.27
36.03
31.20
27.25
24.48
22.84
21.76
20.06
16.45
10.03
0.65
-11.07
-24.17
-37.77
-51.30
-64.06
-74.83
-81.72
-82.81
-77.25
-65.99
-51.70
-37.89
-27.22
-20.61
-16.82
-13.08
-5.96
7.58
29.49
60.00
97.04
136.37
172.21
198.81
212.09
210.92
197.27
175.32
150.01
125.56
104.81
89.00
78.22
71.73
68.31
66.41
64.39
60.89
55.08
46.88
36.92
26.35
16.53
8.49
2.73
-1.01
-3.63
-6.40
-10.49
-16.67
-25.19
-35.55
-46.66
-57.03
-65.15
-69.85
-70.55
-67.39
-61.06
-52.66
-43.56
-35.24
-29.04
-25.78
-25.49
-27.41
-30.43
-33.52
-36.24
-38.60
-40.62
-41.85
-41.29
-37.75
-30.55
-20.00
-7.35
5.78
18.30
30.03
41.71
54.39
68.73
84.47
100.24
114.03
123.84
128.53
128.34
124.69
119.67
115.24
112.74
112.82
115.79
121.67
129.90
138.78
145.12
144.67
133.20
108.11
69.54
20.48
-34.13
-88.66
-137.86
-177.39
-203.98
-215.74
-212.57
-196.69
-172.59
-146.14
-123.04
-107.11
-99.32
-97.98
-99.98
-102.21
-102.58
-100.16
-94.74
-86.24
-74.55
-60.08
-44.30
-30.07
-20.39
-17.08
-19.78
-26.26
-33.48
-39.05
-42.19
-43.91
-47.07
-54.30
-66.65
-83.50
-103.20
-124.19
-145.86
-168.71
-193.68
-221.91
-251.80
-278.37
-294.70
-294.93
-276.95
-243.49
-200.86
-156.34
-117.00
-86.15
-63.25
-45.60
-30.72
-17.69
-6.80
1.56
16.85
43.48
80.01
119.65
154.45
178.67
189.51
186.93
173.41
152.92
128.36
102.51
77.83
56.08
37.98
23.26
11.23
1.03
-5.96
-10.54
-13.34
-14.26
-12.45
-6.87
3.02
17.11
34.42
53.36
71.17
86.04
97.68
107.37
116.91
127.66
139.79
152.19
162.94
169.50
170.34
165.35
155.63
142.76
128.26
113.24
98.43
84.33
70.88
57.94
45.29
32.77
20.46
8.87
-1.22
-8.96
-13.76
-15.60
-14.93
-12.41
-8.76
-4.49
-0.01
4.28
7.73
9.43
8.37
3.83
-4.30
-15.46
-28.65
-42.90
-57.57
-72.40
-87.09
-100.91
-112.49
-119.98
-121.88
-117.63
-107.98
-94.80
-80.34
-66.37
-53.83
-42.75
-32.67
-23.21
-14.31
-6.36
0.14
4.88
8.02
10.16
12.12
14.64
18.08
22.28
26.63
30.33
32.69
33.41
32.60
30.77
28.50
26.28
24.37
22.82
21.49
20.26
18.97
17.54
15.96
14.19
12.12
9.57
6.29
1.95
-3.76
-11.11
-20.21
-30.88
-42.47
-53.70
-62.73
-67.57
-66.73
-59.82
-47.83
-32.90
-17.59
-4.01
6.93
15.55
22.96
30.27
37.98
45.67
52.29
56.61
57.83
56.09
52.40
48.36
45.67
45.62
48.74
54.84
63.03
71.99
80.21
86.26
89.11
88.44
84.90
79.85
75.07
71.86
70.70
71.00
71.36
70.14
66.03
58.48
47.96
36.02
24.90
17.10
14.52
17.95
26.67
38.83
51.83
63.00
70.14
71.79
67.51
57.86
44.26
28.64
12.93
-1.49
-13.92
-24.30
-32.92
-40.18
-46.61
-52.87
-59.61
-67.19
-75.24
-82.63
-87.72
-89.14
-86.45
-80.34
-72.47
-64.76
-58.81
-55.46
-54.82
-56.43
-59.46
-62.88
-65.53
-66.23
-64.11
-58.88
-51.08
-42.05
-33.52
-27.14
-23.89
-23.83
-26.16
-29.72
-33.50
-37.01
-40.19
-43.11
-45.67
-47.46
-47.90
-46.44
-42.98
-37.89
-31.93
-25.94
-20.50
-15.92
-12.42
-10.25
-9.68
-11.03
-14.33
-19.16
-24.64
-29.53
-32.82
-34.27
-34.25
-33.49
-32.72
-32.33
-32.35
-32.42
-31.97
-30.76
-29.41
-28.64
-28.84
-29.91
-31.55
-33.58
-36.03
-38.83
-42.21
-47.22
-54.43
-63.65
-74.13
-84.94
-95.47
-104.93
-111.89
-114.90
-113.88
-108.81
-99.74
-86.78
-70.34
-51.70
-32.34
-13.43
10.53
39.72
69.48
92.03
100.98
94.72
76.23
48.93
19.45
-6.70
-27.26
-41.57
-49.97
-53.18
-48.53
-36.30
-18.14
3.88
27.25
49.07
67.81
83.54
97.41
110.85
123.86
135.48
144.54
149.69
149.79
144.90
136.19
125.47
114.86
105.70
98.68
93.84
90.09
85.15
76.30
61.16
37.89
8.36
-21.80
-45.18
-56.34
-54.70
-43.86
-29.05
-14.54
-2.32
7.80
16.58
24.28
30.32
33.83
34.53
33.06
30.76
29.16
29.48
32.11
36.48
41.43
45.83
49.13
51.59
54.04
57.23
61.71
67.45
73.73
79.56
83.45
84.34
81.82
76.10
67.51
56.74
44.52
31.42
17.64
3.23
-11.70
-26.62
-40.56
-52.74
-61.92
-67.06
-67.73
-64.35
-58.12
-50.78
-44.00
-38.91
-36.68
-37.57
-41.45
-48.26
-58.31
-72.30
-91.42
-117.72
-148.46
-183.56
-223.17
-266.33
-309.64
-346.86
-370.00
-371.90
-349.04
-303.05
-240.96
-171.67
-103.28
-41.30
11.26
52.85
82.38
99.17
103.81
98.17
85.95
71.38
57.34
44.47
31.42
16.10
-2.56
-23.35
-43.08
-57.19
-61.29
-53.01
-32.86
-3.99
28.79
60.66
87.74
106.88
115.33
110.23
88.95
50.40
-3.39
-66.59
-130.36
-185.11
-223.48
-242.41
-243.34
-230.93
-210.61
-186.42
-159.91
-130.06
-94.36
-49.78
6.09
74.34
153.75
239.81
324.23
395.85
443.30
458.58
439.94
392.69
327.23
255.35
186.69
126.80
77.52
38.69
9.83
-9.21
-18.68
-19.56
-13.60
-2.72
11.93
30.08
51.89
77.00
104.00
130.54
154.25
173.70
188.96
201.42
212.81
224.27
235.81
246.56
255.16
260.30
260.92
256.21
245.60
228.70
205.53
176.64
143.19
106.68
68.76
30.99
-5.27
-39.15
-70.25
-98.80
-125.43
-150.89
-175.65
-199.56
-221.70
-240.51
-254.23
-261.30
-260.78
-252.67
-237.87
-218.10
-195.48
-172.13
-149.88
-130.07
-113.51
-100.50
-90.96
-84.37
-79.94
-76.67
-73.69
-70.46
-66.96
-63.64
-61.20
-60.16
-60.54
-61.78
-63.07
-63.82
-64.12
-64.99
-68.18
-75.31
-87.03
-102.12
-117.23
-127.47
-127.53
-113.27
-82.88
-37.65
18.21
78.31
135.50
183.54
218.59
240.06
250.44
254.11
255.48
257.24
259.46
259.96
255.65
244.13
224.70
198.49
167.76
134.93
102.03
70.46
41.36
15.80
-5.14
-20.68
-30.76
-36.21
-38.58
-39.75
-41.21
-43.66
-46.82
-49.85
-51.83
-52.35
-51.72
-50.95
-51.17
-53.02
-56.35
-60.33
-63.88
-66.15
-66.81
-66.12
-64.80
-63.60
-63.05
-63.34
-64.32
-65.51
-66.11
-64.97
-60.82
-52.88
-40.96
-25.57
-7.84
10.74
28.69
44.85
58.63
69.84
78.00
83.07
85.75
87.50
90.15
95.06
102.63
112.14
121.80
128.22
128.78
122.83
111.83
98.25
84.18
70.55
57.39
43.77
26.53
3.25
-26.69
-61.84
-99.93
-138.85
-177.12
-213.27
-246.51
-278.86
-311.84
-345.31
-377.15
-404.66
-425.79
-439.76
-446.25
-427.96
-374.93
-289.68
-187.94
-88.47
-3.33
64.02
113.11
150.19
178.89
198.29
207.48
207.68
202.92
196.28
190.78
187.71
187.11
187.40
184.65
175.88
160.36
139.85
117.43
96.08
77.58
62.81
51.26
40.77
29.43
16.34
1.80
-13.32
-28.15
-42.38
-55.92
-69.18
-83.34
-99.45
-118.06
-139.00
-161.59
-184.70
-207.36
-228.62
-247.82
-264.46
-277.80
-286.55
-289.07
-283.84
-270.11
-248.33
-219.92
-186.96
-151.46
-114.98
-78.69
-43.62
-10.97
18.04
42.42
62.17
78.55
93.97
111.25
132.62
158.98
189.76
223.21
256.93
288.22
314.37
332.79
341.56
339.86
328.55
310.12
288.12
266.22
247.05
231.59
219.19
207.91
195.34
179.56
159.83
137.07
113.79
93.45
79.32
73.40
75.78
84.64
96.97
109.50
119.53
125.41
126.71
124.20
119.39
114.16
110.15
108.44
109.56
113.84
121.64
133.10
147.50
162.56
174.48
178.89
172.40
154.05
125.82
91.60
55.45
19.94
-14.50
-48.89
-84.50
-121.82
-160.33
-199.03
-237.21
-274.89
-312.65
-350.93
-389.50
-427.31
-463.03
-495.39
-523.61
-547.19
-565.73
-578.65
-585.24
-585.01
-577.73
-563.34
-541.68
-512.31
-474.61
-428.38
-374.36
-314.17
-250.09
-184.18
-117.94
-52.24
12.06
73.67
130.56
180.08
219.63
247.45
263.63
270.48
272.25
273.73
278.52
287.49
298.26
306.43
307.70
300.33
286.08
269.37
255.16
246.50
243.29
242.77
241.10
235.15
223.59
206.79
185.95
162.42
137.27
111.48
86.32
63.54
44.85
31.47
23.47
19.64
17.99
16.43
13.51
8.79
2.78
-3.49
-8.93
-12.81
-14.94
-15.62
-15.48
-15.15
-15.03
-15.23
-15.51
-15.51
-14.80
-13.14
-10.60
-7.58
-4.71
-2.56
-1.55
-1.76
-2.82
-4.16
-5.29
-5.99
-6.54
-7.49
-9.52
-13.08
-18.32
-25.03
-32.61
-40.25
-46.92
-51.56
-53.21
-51.24
-45.50
-36.33
-24.52
-11.15
2.72
16.09
28.05
37.76
44.26
46.69
44.53
37.92
27.90
16.52
6.24
-0.81
-3.64
-3.01
-1.20
-1.04
-4.58
-11.97
-21.32
-29.68
-34.74
-36.01
-35.18
-34.97
-37.74
-44.47
-54.81
-67.64
-81.50
-94.38
-103.24
-104.19
-93.66
-70.54
-37.61
-1.23
30.83
52.58
61.91
60.98
54.84
49.35
49.43
58.15
76.69
104.32
138.43
174.71
207.49
231.41
242.66
239.64
223.00
195.31
160.21
121.67
83.31
47.31
14.78
-13.79
-37.98
-57.22
-70.96
-78.82
-81.17
-79.51
-77.53
-78.76
-84.93
-95.24
-107.21
-117.91
-125.05
-127.64
-126.18
-124.06
-124.20
-127.91
-134.84
-144.31
-155.95
-169.11
-182.23
-192.93
-201.22
-207.04
-210.04
-209.83
-206.75
-201.53
-194.27
-184.15
-155.75
-103.59
-35.81
30.46
81.44
112.78
127.40
130.99
128.85
124.39
116.81
105.19
90.52
75.78
64.13
57.27
55.10
56.03
57.85
56.69
50.40
39.62
27.24
16.52
9.45
6.48
6.78
9.10
10.70
10.74
10.12
10.96
15.44
24.93
39.73
58.97
80.40
99.88
112.93
116.28
109.38
94.62
76.50
59.70
47.29
39.84
35.72
32.76
29.78
26.91
24.79
23.68
22.92
21.41
18.47
14.02
8.24
0.79
-9.80
-25.34
-46.34
-70.94
-95.08
-114.16
-125.20
-128.08
-125.07
-119.28
-112.87
-106.48
-100.09
-94.26
-90.71
-91.87
-99.35
-112.83
-130.12
-147.97
-163.20
-173.54
-177.54
-174.20
-162.81
-143.06
-115.23
-80.43
-40.36
3.13
48.21
93.14
136.11
175.13
208.29
234.28
252.67
263.99
269.42
270.27
267.68
262.46
255.21
246.29
235.83
223.87
210.44
195.80
180.51
165.33
150.76
136.69
122.21
106.00
86.95
64.97
41.26
18.07
-2.05
-17.28
-27.21
-32.88
-36.33
-39.63
-44.02
-49.41
-54.60
-57.88
-57.81
-53.92
-46.74
-37.53
-27.63
-18.02
-9.05
-0.58
7.56
15.40
22.67
29.13
34.54
38.63
40.53
38.65
31.04
16.60
-4.02
-27.93
-50.68
-67.96
-77.37
-79.44
-77.30
-75.12
-76.39
-83.19
-96.40
-116.38
-143.31
-176.75
-214.95
-254.33
-289.68
-315.05
-325.73
-319.57
-297.76
-264.35
-225.02
-185.56
-150.14
-120.19
-93.98
-68.83
-42.60
-15.21
11.31
33.78
48.80
54.29
50.80
42.27
32.98
26.75
26.05
32.59
47.89
72.27
104.97
144.58
190.22
238.57
285.16
325.51
356.67
377.65
386.36
379.45
354.05
311.39
253.97
187.14
118.17
55.14
9.63
-7.41
6.95
36.68
71.97
106.82
140.47
169.67
190.53
200.65
196.07
173.18
133.75
86.98
42.35
7.54
-14.35
-33.74
-53.40
-76.18
-105.98
-146.93
-190.29
-231.76
-268.40
-298.60
-321.80
-337.19
-346.91
-354.63
-363.80
-376.16
-394.51
-419.88
-450.45
-480.65
-500.96
-502.98
-481.80
-437.39
-374.13
-300.79
-225.92
-155.20
-90.35
-29.47
29.19
85.61
137.67
181.90
213.99
231.51
234.85
227.38
214.66
201.85
191.99
185.57
181.03
175.82
168.37
158.51
146.90
134.30
120.44
104.56
86.11
65.70
45.06
26.75
12.99
4.78
1.62
1.78
3.09
3.54
1.83
-2.51
-9.18
-17.34
-25.95
-33.75
-39.41
-41.35
-38.01
-28.12
-11.18
12.13
40.05
70.21
100.39
128.79
154.24
175.71
191.98
201.88
204.62
200.57
191.23
178.71
164.59
149.31
132.16
112.02
88.46
62.25
35.17
9.12
-14.61
-35.61
-53.99
-69.77
-82.69
-92.26
-98.17
-100.59
-100.10
-97.61
-93.86
-89.40
-84.57
-79.48
-74.09
-68.20
-61.60
-54.16
-46.22
-38.48
-31.86
-27.26
-25.19
-25.51
-27.75
-31.18
-34.93
-38.12
-39.80
-39.15
-35.60
-29.06
-20.01
-9.44
1.43
11.49
19.99
26.63
31.52
34.88
37.02
38.11
38.16
37.17
35.09
32.02
28.10
23.70
19.22
15.14
11.83
9.50
8.11
7.46
7.24
7.09
6.88
6.59
6.23
5.79
5.13
3.96
1.86
-1.52
-6.47
-13.04
-21.00
-29.70
-38.17
-45.27
-49.83
-51.04
-48.59
-42.75
-34.29
-24.22
-13.59
-3.21
6.23
14.29
20.62
25.07
27.57
28.31
27.56
25.65
22.92
19.63
16.02
12.33
8.89
5.92
3.51
1.57
-0.21
-2.11
-4.31
-6.78
-9.39
-11.89
-14.08
-15.97
-17.62
-19.23
-20.98
-23.07
-25.47
-28.19
-31.04
-33.74
-35.88
-36.87
-36.26
-33.73
-29.27
-23.16
-15.99
-8.46
-1.15
5.47
11.26
16.06
19.64
21.63
21.77
20.07
16.98
13.50
10.73
9.63
10.52
13.04
16.33
19.60
22.29
24.32
25.88
26.90
27.03
25.65
22.13
16.22
8.18
-1.46
-12.11
-23.42
-35.66
-49.48
-65.51
-83.72
-103.10
-121.55
-136.50
-145.40
-146.37
-138.84
-123.61
-102.44
-77.69
-51.65
-26.21
-2.71
18.06
35.67
49.80
60.19
66.60
68.83
66.72
60.27
49.67
35.56
18.98
1.36
-15.67
-30.66
-42.79
-51.77
-57.75
-60.99
-61.52
-59.17
-53.70
-45.13
-33.85
-20.85
-7.20
6.36
19.52
32.68
46.49
61.52
77.99
95.66
113.95
132.14
149.68
166.08
180.94
193.94
204.63
212.49
217.01
217.99
215.53
210.37
203.40
195.45
186.82
177.08
165.29
150.37
131.79
109.74
85.44
60.55
36.93
16.03
-1.48
-15.65
-27.24
-37.07
-45.60
-52.51
-56.94
-58.00
-55.49
-50.61
-45.42
-42.26
-42.61
-46.40
-51.97
-56.52
-56.88
-50.02
-33.94
-8.39
24.28
58.71
87.47
103.17
101.13
81.28
48.33
9.65
-27.60
-58.98
-83.60
-103.36
-121.31
-140.11
-161.19
-184.36
-207.96
-228.76
-242.61
-245.36
-234.25
-209.01
-172.25
-128.88
-84.83
-45.70
-15.92
1.68
6.10
-1.62
-18.44
-39.57
-59.31
-72.32
-75.09
-66.63
-48.61
-24.63
1.18
25.29
45.39
60.55
70.73
76.31
77.84
75.86
71.01
64.19
56.46
48.95
42.60
37.95
35.01
33.24
31.70
29.45
25.84
20.80
14.82
8.57
2.55
-3.09
-8.58
-14.12
-19.74
-25.18
-30.09
-34.33
-38.13
-41.94
-45.88
-49.45
-51.46
-50.48
-45.44
-36.23
-23.82
-9.91
3.59
15.16
23.98
29.94
33.39
34.85
34.85
33.84
32.12
29.93
27.41
24.65
21.78
18.96
16.45
14.37
12.56
10.60
7.72
3.09
-3.71
-12.28
-21.33
-28.97
-33.37
-33.54
-29.64
-23.11
-16.16
-11.10
-9.53
-11.96
-17.63
-24.71
-31.00
-34.37
-33.43
-27.76
-17.93
-5.27
8.52
21.76
33.05
41.21
45.42
45.17
40.26
30.98
18.16
3.20
-11.94
-25.05
-34.20
-37.99
-36.05
-28.98
-18.27
-5.83
6.44
16.95
24.55
28.58
29.04
26.39
21.62
15.93
10.32
5.42
1.26
-2.47
-6.04
-9.14
-10.93
-10.09
-5.44
3.45
15.98
30.75
45.92
59.91
71.93
81.94
90.35
97.72
104.24
109.60
112.96
113.32
109.86
102.20
90.53
75.82
59.50
42.97
27.13
11.79
-4.24
-22.92
-46.25
-75.33
-109.75
-147.44
-185.16
-219.47
-247.89
-269.69
-285.83
-298.29
-308.93
-318.25
-325.03
-326.61
-320.19
-304.04
-278.44
-245.38
-207.58
-167.24
-125.60
-83.25
-41.07
-1.07
33.47
59.00
72.75
73.89
63.83
45.87
24.62
5.26
-7.12
-8.63
2.57
24.80
52.86
79.28
97.17
103.10
98.74
90.21
85.01
88.53
101.62
120.67
139.74
153.62
159.89
159.14
153.66
145.51
135.44
123.37
109.86
97.19
89.46
91.42
106.36
134.52
172.51
214.13
252.43
281.73
299.29
305.53
303.33
296.46
288.09
279.72
270.87
259.49
242.61
217.55
183.05
139.90
91.24
42.01
-2.25
-37.08
-60.35
-72.89
-77.95
-79.73
-81.83
-86.02
-92.34
-99.85
-107.61
-114.94
-121.12
-124.58
-122.73
-112.59
-92.08
-61.34
-23.28
17.11
54.60
85.46
108.66
125.27
137.26
146.20
152.61
156.01
155.64
151.32
144.02
136.17
130.22
127.71
128.58
131.42
133.65
132.15
123.98
107.09
81.32
47.33
6.45
-38.85
-84.68
-126.06
-157.77
-175.39
-176.33
-160.02
-129.60
-91.93
-55.48
-28.21
-15.36
-18.44
-34.97
-62.97
-93.98
-116.24
-120.86
-106.19
-77.29
-41.21
-3.72
31.77
63.55
91.39
115.70
134.68
146.77
151.39
149.73
143.87
135.93
127.21
118.73
110.00
98.76
85.31
70.27
54.90
40.55
28.29
18.53
11.39
6.02
0.81
-5.84
-15.31
-28.20
-44.27
-62.70
-82.20
-101.43
-119.77
-137.46
-155.20
-174.07
-194.55
-216.40
-238.86
-261.12
-282.68
-303.49
-323.51
-342.07
-357.93
-369.62
-376.10
-377.15
-372.89
-362.96
-345.81
-318.98
-280.26
-229.23
-167.93
-100.77
-32.98
30.98
88.90
140.86
188.14
231.53
269.94
300.38
319.08
323.75
315.11
297.11
275.57
255.52
239.10
225.03
209.85
190.20
164.74
134.56
102.06
69.52
37.89
6.51
-25.72
-59.55
-95.09
-131.69
-168.83
-206.34
-243.91
-280.27
-312.62
-336.62
-347.54
-341.84
-318.20
-277.65
-223.03
-158.30
-88.51
-20.01
39.49
81.99
101.31
95.66
68.96
30.07
-10.09
-42.08
-60.77
-66.11
-62.13
-54.52
-48.22
-46.30
-49.45
-56.45
-65.22
-73.37
-78.99
-81.19
-80.24
-77.45
-74.56
-73.01
-73.35
-75.18
-77.41
-78.94
-78.91
-76.65
-71.92
-64.86
-56.38
-47.88
-41.12
-37.46
-37.27
-39.62
-42.58
-43.89
-42.01
-37.05
-30.82
-26.02
-24.86
-28.07
-34.28
-40.57
-43.63
-41.25
-33.31
-22.15
-11.76
-6.20
-7.83
-16.09
-27.35
-36.41
-38.42
-30.82
-14.13
8.40
31.99
52.08
65.00
68.68
62.49
47.41
26.29
4.07
-13.53
-21.69
-18.37
-5.40
12.50
29.83
43.03
51.72
58.76
68.48
85.13
111.30
147.05
189.72
234.07
272.96
298.60
304.40
287.16
248.53
195.14
136.69
83.54
43.83
21.68
16.96
26.10
43.25
61.46
74.02
75.53
63.62
39.50
7.51
-26.83
-59.34
-89.23
-119.53
-155.48
-201.56
-258.36
-321.22
-381.13
-427.69
-453.03
-454.65
-436.28
-406.16
-374.16
-348.78
-335.03
-334.30
-345.30
-365.69
-392.90
-424.16
-455.81
-483.29
-501.54
-506.19
-494.98
-468.26
-428.70
-380.35
-327.37
-273.08
-219.55
-167.69
-117.86
-70.35
-25.87
14.48
49.36
77.71
99.23
114.52
125.17
133.49
141.79
152.11
165.70
182.77
202.50
223.81
245.64
267.48
289.63
312.96
338.85
368.93
404.81
447.60
496.93
549.77
600.22
640.70
664.35
667.97
653.53
627.47
597.73
570.28
546.85
525.24
501.64
473.25
440.35
406.09
374.61
349.10
330.24
315.79
301.33
281.21
249.51
201.15
132.98
45.09
-57.93
-166.98
-270.04
-354.95
-413.03
-441.47
-443.54
-426.76
-399.80
-369.69
-340.49
-313.63
-289.18
-266.84
-246.11
-226.00
-204.68
-179.94
-149.93
-113.99
-72.68
-27.26
20.97
70.62
119.70
165.13
203.00
229.41
241.83
240.49
228.48
210.84
192.83
178.22
168.33
162.69
159.79
157.69
154.47
148.44
139.40
128.67
120.02
119.38
133.28
165.97
216.19
276.40
334.16
378.07
400.11
398.56
378.18
348.17
318.62
296.52
284.90
282.31
288.11
299.54
312.17
320.96
322.03
314.26
298.54
279.22
260.72
251.94
257.61
276.89
304.52
333.96
361.08
383.38
402.87
421.56
447.10
481.73
520.58
553.70
570.92
567.35
543.17
507.21
424.06
283.15
99.23
-92.18
-255.68
-373.25
-432.38
-451.84
-448.05
-433.56
-410.46
-381.55
-354.56
-336.82
-333.92
-347.36
-377.06
-417.98
-465.49
-510.18
-546.93
-574.05
-591.96
-601.21
-600.85
-590.83
-569.07
-536.35
-491.99
-440.77
-389.34
-343.64
-306.98
-279.53
-260.97
-248.69
-242.77
-242.31
-251.66
-274.52
-311.05
-356.95
-404.78
-447.94
-479.99
-500.12
-509.01
-514.59
-524.34
-542.54
-569.88
-605.22
-648.10
-695.84
-747.13
-757.39
-694.89
-553.82
-360.43
-156.26
24.50
151.36
233.64
283.82
313.59
326.52
325.06
315.78
306.86
307.15
322.01
352.85
391.73
427.74
446.29
438.44
404.83
355.38
304.51
263.83
239.06
225.23
213.03
191.14
154.24
106.03
58.04
24.51
15.32
32.37
66.16
101.08
119.54
109.43
67.74
0.75
-78.95
-157.10
-220.87
-261.90
-275.73
-261.93
-223.20
-164.78
-93.54
-16.55
59.95
131.71
195.57
248.84
288.48
311.22
314.94
300.36
271.86
236.58
202.02
173.34
151.99
136.06
122.25
108.00
92.54
76.57
60.90
45.31
28.25
7.70
-17.51
-46.69
-77.28
-105.58
-128.34
-143.91
-152.74
-157.05
-159.70
-163.06
-168.26
-175.12
-182.38
-188.13
-189.78
-184.26
-168.45
-140.46
-100.96
-54.27
-7.68
30.57
54.24
61.60
56.10
44.91
35.75
33.83
40.33
52.70
66.55
77.73
84.02
85.59
84.72
84.81
89.14
99.51
115.19
132.62
145.97
148.91
136.81
108.75
68.11
21.64
-22.62
-57.80
-79.95
-88.70
-86.74
-78.69
-69.52
-63.37
-62.71
-68.11
-78.44
-91.17
-102.91
-109.91
-108.78
-97.12
-74.17
-41.10
-0.94
41.75
81.62
113.44
133.15
138.65
130.23
110.58
84.04
55.57
29.61
9.35
-3.70
-9.52
-9.19
-4.34
3.60
13.78
26.23
41.73
61.28
85.33
113.27
143.08
171.58
195.44
212.30
221.76
225.48
226.12
225.59
223.57
217.15
202.34
176.43
140.30
98.88
59.41
28.03
6.87
-6.94
-19.65
-37.65
-64.54
-100.11
-141.47
-185.17
-228.62
-269.96
-306.70
-334.58
-347.98
-342.07
-315.54
-271.87
-218.29
-162.65
-110.16
-62.16
-17.40
25.29
64.41
95.63
113.64
115.07
100.27
73.42
40.74
8.19
-20.30
-43.45
-61.84
-76.59
-88.26
-96.25
-99.10
-95.30
-84.22
-66.79
-45.41
-23.05
-2.09
16.65
33.94
51.24
69.25
86.86
101.05
107.94
104.50
89.83
65.61
35.59
4.16
-24.88
-49.11
-67.39
-79.36
-84.92
-84.06
-77.16
-65.25
-50.24
-34.50
-20.23
-8.82
-0.54
5.23
9.40
12.63
15.01
16.20
15.79
13.64
9.98
5.23
-0.33
-6.65
-13.72
-21.30
-28.65
-34.58
-37.82
-37.52
-33.57
-26.67
-18.04
-9.01
-0.74
5.90
10.21
11.50
9.16
2.78
-7.54
-20.98
-35.97
-50.50
-62.52
-70.49
-73.71
-72.39
-67.55
-60.63
-53.07
-46.03
-40.14
-35.36
-31.11
-26.37
-20.08
-11.47
-0.48
12.10
24.73
35.53
42.87
45.81
44.46
39.82
33.49
27.13
22.05
18.93
17.78
18.14
19.18
20.09
20.18
19.15
17.10
14.57
12.33
11.14
11.39
13.02
15.63
18.55
21.15
22.96
23.68
23.21
21.67
19.38
16.91
14.97
14.08
14.43
15.77
17.66
19.81
22.41
26.10
31.63
39.30
48.56
58.03
65.86
70.35
70.43
65.92
57.43
46.12
33.40
20.73
9.54
0.96
-4.30
-6.23
-5.55
-3.64
-2.15
-2.47
-5.41
-10.95
-18.40
-26.67
-34.63
-41.48
-46.71
-50.18
-51.99
-52.47
-52.13
-51.71
-51.94
-53.39
-56.24
-60.21
-64.69
-68.94
-72.39
-74.81
-76.37
-77.61
-79.34
-82.41
-87.41
-94.22
-101.84
-108.47
-112.06
-111.09
-105.18
-95.11
-82.40
-68.53
-54.39
-40.23
-25.90
-11.26
3.72
18.96
34.45
50.09
65.48
79.67
91.29
99.02
102.17
101.02
96.62
90.22
82.62
73.95
63.88
52.20
39.35
26.54
15.32
6.98
1.89
-0.73
-2.39
-4.68
-8.33
-12.74
-16.20
-16.67
-12.83
-4.82
5.72
16.39
24.93
30.22
32.48
32.98
33.18
34.23
36.71
40.84
46.90
55.40
66.72
80.72
96.38
111.94
125.33
134.64
138.41
135.59
125.47
107.76
83.00
52.74
19.49
-13.82
-44.71
-71.72
-94.46
-113.19
-128.19
-139.46
-146.85
-150.50
-151.12
-150.01
-148.56
-147.77
-147.95
-148.78
-149.63
-150.04
-150.09
-150.24
-151.13
-153.01
-155.50
-157.55
-157.69
-154.43
-146.51
-133.11
-114.02
-89.60
-60.90
-29.31
3.66
36.74
68.96
99.42
127.04
150.35
167.78
178.16
181.27
178.09
170.41
160.16
148.72
136.85
124.90
113.36
103.05
94.92
89.59
86.90
85.78
84.57
81.55
75.53
66.10
53.75
39.74
25.85
14.05
6.14
3.12
4.74
9.16
13.30
13.84
8.56
-2.44
-16.37
-28.59
-34.43
-31.24
-19.82
-4.69
7.23
8.89
-4.24
-32.07
-69.27
-106.39
-132.54
-138.82
-121.28
-82.17
-29.25
26.54
74.22
105.36
115.55
104.67
76.19
36.00
-8.72
-50.77
-84.13
-104.94
-112.06
-106.83
-92.26
-71.82
-48.55
-24.59
-1.37
20.00
38.39
52.69
62.13
66.66
66.91
63.93
58.66
51.60
42.90
32.70
21.54
10.32
-0.03
-9.24
-18.08
-28.20
-41.51
-59.32
-81.61
-106.82
-132.05
-153.66
-167.99
-172.02
-163.85
-142.97
-110.50
-69.10
-22.73
24.05
66.88
102.54
129.53
148.08
159.66
165.99
168.27
166.85
161.73
153.33
143.29
134.52
130.27
132.84
142.23
155.65
168.06
173.65
167.50
147.01
112.42
66.33
12.94
-43.10
-97.33
-145.83
-185.19
-212.58
-225.95
-224.45
-208.89
-181.79
-147.02
-109.03
-71.88
-38.53
-10.61
11.34
27.23
36.88
39.66
34.72
21.62
1.12
-24.33
-50.68
-73.04
-86.92
-89.48
-80.24
-61.25
-36.44
-10.67
11.37
26.10
31.76
28.59
18.59
4.95
-8.85
-19.79
-26.01
-27.11
-24.02
-18.75
-13.81
-11.78
-14.71
-23.84
-39.22
-59.47
-81.66
-101.45
-113.79
-113.97
-98.91
-68.22
-24.76
25.90
76.62
120.33
151.41
166.37
163.99
144.88
111.26
66.97
17.72
-29.22
-65.79
-84.70
-81.17
-54.31
-7.57
51.88
114.47
169.90
208.69
223.77
212.00
175.30
120.78
59.30
2.80
-39.06
-61.39
-64.92
-54.59
-37.07
-18.08
-0.96
13.36
25.26
35.05
42.45
46.65
47.26
44.74
40.57
36.64
34.41
34.20
35.03
35.20
33.10
28.03
20.56
12.61
6.95
6.62
13.97
29.61
51.72
75.90
96.02
105.75
100.53
78.88
43.06
-1.43
-47.05
-85.78
-110.66
-117.04
-103.57
-72.46
-29.09
19.13
64.22
99.12
118.82
120.99
106.18
77.63
40.67
1.74
-32.93
-58.64
-73.08
-76.42
-70.71
-58.94
-44.14
-28.85
-14.97
-3.75
4.19
9.10
12.08
15.08
20.34
29.82
44.57
64.17
86.55
108.12
124.34
130.56
123.19
100.79
64.84
19.69
-28.38
-72.82
-108.66
-133.59
-147.94
-153.67
-152.97
-147.32
-137.47
-124.12
-108.59
-92.97
-79.47
-69.48
-62.95
-58.36
-53.44
-46.09
-35.00
-19.95
-1.67
18.37
38.26
55.99
69.84
78.82
82.84
82.52
78.78
72.44
64.16
54.80
45.82
39.48
38.16
43.41
54.85
70.02
85.08
96.23
101.11
99.41
92.56
82.76
72.00
61.45
51.54
42.34
34.10
27.40
23.00
21.43
22.55
25.32
27.99
28.53
25.33
17.67
5.95
-8.47
-23.82
-38.34
-50.59
-59.47
-64.16
-64.09
-59.00
-49.16
-35.44
-19.31
-2.61
12.74
25.06
33.21
36.80
36.27
32.60
27.04
20.65
14.08
7.55
1.20
-4.79
-10.01
-13.98
-16.40
-17.39
-17.54
-17.81
-19.33
-23.14
-30.00
-40.18
-53.41
-68.98
-85.83
-102.79
-118.72
-132.57
-143.30
-149.97
-151.81
-148.35
-139.66
-126.26
-109.00
-88.74
-66.27
-42.37
-18.04
5.44
26.65
44.57
59.03
70.85
81.42
92.14
103.66
115.62
126.67
135.04
139.14
138.00
131.49
120.24
105.44
88.62
71.23
54.38
38.61
24.04
10.70
-1.13
-11.01
-18.81
-25.28
-32.33
-42.36
-57.09
-76.39
-98.01
-118.31
-133.78
-142.44
-144.29
-140.82
-133.60
-123.54
-110.57
-94.24
-74.62
-52.86
-31.06
-11.60
3.80
14.52
20.95
23.73
23.08
18.69
10.20
-1.76
-14.99
-25.92
-30.74
-27.24
-15.82
0.42
17.22
31.02
40.56
47.13
53.45
61.94
73.31
86.29
98.29
106.54
109.32
106.24
98.06
86.21
72.24
57.65
43.89
32.39
24.44
20.86
21.94
27.31
36.07
46.88
58.11
68.06
75.20
78.66
78.52
75.80
72.11
69.01
67.41
67.19
67.37
66.55
63.50
57.76
49.85
41.10
33.20
27.60
25.06
25.40
27.71
30.67
33.09
34.08
33.14
30.08
24.93
17.91
9.59
0.75
-7.72
-15.14
-21.15
-25.71
-28.93
-30.86
-31.45
-30.68
-28.72
-26.02
-23.28
-21.20
-20.19
-20.28
-21.25
-22.79
-24.71
-26.88
-29.19
-31.33
-32.77
-32.96
-31.55
-28.67
-24.93
-21.30
-18.81
-18.28
-20.11
-24.22
-30.06
-36.74
-43.22
-48.62
-52.48
-54.95
-56.71
-58.60
-61.28
-64.90
-69.10
-73.27
-76.84
-79.54
-81.37
-82.43
-82.69
-81.89
-79.65
-75.66
-69.83
-62.39
-53.88
-45.00
-36.51
-29.15
-23.65
-20.64
-20.52
-23.24
-28.04
-33.41
-37.30
-37.79
-33.68
-25.05
-13.34
-0.86
9.99
17.42
20.76
20.45
17.61
13.60
9.56
6.15
3.53
1.49
-0.39
-2.56
-5.41
-9.25
-14.17
-19.97
-25.93
-30.87
-33.33
-32.13
-26.92
-18.53
-8.82
-0.10
5.73
7.91
6.88
4.02
0.92
-1.14
-1.40
0.40
4.35
10.36
18.16
27.07
35.84
42.84
46.44
45.60
40.24
31.35
20.58
9.70
-0.08
-8.22
-14.83
-20.39
-25.42
-30.36
-35.54
-41.32
-48.02
-55.79
-64.27
-72.52
-79.04
-82.05
-79.95
-71.77
-57.62
-38.84
-17.83
2.45
19.33
31.20
37.98
40.89
41.79
42.32
43.25
44.38
44.94
44.06
41.32
36.69
30.29
22.17
12.19
0.33
-13.15
-27.27
-40.54
-51.30
-58.12
-60.33
-58.27
-53.20
-46.98
-41.46
-38.03
-37.23
-38.75
-41.67
-44.92
-47.63
-49.21
-49.29
-47.54
-43.55
-36.93
-27.57
-15.89
-2.89
10.02
21.38
30.05
35.56
38.01
37.94
35.99
32.75
28.49
23.43
17.82
12.00
6.46
1.63
-2.24
-5.18
-7.44
-9.33
-11.03
-12.59
-13.94
-14.94
-15.49
-15.58
-15.33
-14.92
-14.66
-14.86
-15.88
-17.92
-20.97
-24.70
-28.49
-31.61
-33.36
-33.30
-31.31
-27.59
-22.53
-16.66
-10.47
-4.38
1.25
6.14
10.08
12.96
14.74
15.56
15.66
15.40
15.14
15.13
15.49
16.21
17.21
18.38
19.60
20.75
21.58
21.84
21.32
19.98
17.98
15.64
13.28
11.04
8.88
6.61
4.03
1.05
-2.30
-5.89
-9.53
-12.96
-15.79
-17.44
-17.27
-14.72
-9.61
-2.29
6.36
15.11
22.74
28.43
31.92
33.52
33.82
33.45
32.76
31.86
30.61
28.91
26.80
24.54
22.44
20.72
19.45
18.53
17.80
17.13
16.49
15.82
15.05
14.02
12.51
10.41
7.69
4.53
1.23
-1.92
-4.71
-7.15
-9.44
-11.85
-14.49
-17.15
-19.23
-19.84
-18.19
-13.83
-7.01
1.43
10.25
18.24
24.68
29.41
32.77
35.30
37.42
39.25
40.61
41.24
40.95
39.77
37.85
35.40
32.55
29.36
25.87
22.19
18.57
15.25
12.43
10.11
8.16
6.30
4.21
1.72
-1.23
-4.57
-8.07
-11.49
-14.65
-17.54
-20.30
-23.16
-26.23
-29.31
-31.83
-32.95
-31.86
-28.11
-21.79
-13.53
-4.33
4.73
12.83
19.50
24.63
28.40
31.07
32.97
34.36
35.46
36.38
37.09
37.39
36.93
35.39
32.57
28.61
23.90
19.07
14.70
11.11
8.25
5.61
2.41
-2.15
-8.62
-17.07
-26.95
-37.15
-46.16
-52.41
-54.62
-52.21
-45.62
-36.31
-26.55
-18.88
-15.41
-17.25
-24.17
-34.72
-46.56
-57.08
-63.92
-65.36
-60.68
-50.23
-35.36
-18.15
-0.85
14.57
26.79
35.30
40.30
42.38
42.29
40.83
38.74
36.66
35.15
34.50
34.77
35.74
37.05
38.30
39.26
39.83
40.07
40.12
40.04
39.78
39.13
37.82
35.64
32.60
28.93
25.02
21.26
17.87
14.88
12.07
9.20
6.08
2.66
-1.03
-4.86
-8.77
-12.77
-16.85
-21.00
-25.23
-29.44
-33.58
-37.59
-41.35
-44.58
-46.82
-47.46
-45.96
-42.04
-35.85
-28.02
-19.44
-11.06
-3.58
2.60
7.37
10.75
12.87
13.92
14.15
13.89
13.49
13.20
13.13
13.24
13.38
13.36
13.04
12.34
11.33
10.13
8.97
8.07
7.54
7.35
7.31
7.12
6.57
5.58
4.24
2.74
1.24
-0.18
-1.62
-3.29
-5.44
-8.23
-11.66
-15.56
-19.64
-23.61
-27.33
-30.86
-34.45
-38.29
-42.37
-46.26
-49.16
-50.10
-48.31
-43.53
-36.12
-26.96
-17.12
-7.66
0.71
7.64
13.08
17.17
20.10
22.09
23.37
24.19
24.80
25.38
26.02
26.62
26.97
26.78
25.83
24.10
21.84
19.47
17.42
15.98
15.19
14.80
14.40
13.63
12.23
10.21
7.73
5.06
2.44
0.06
-2.01
-3.78
-5.30
-6.72
-8.22
-9.98
-12.17
-14.86
-17.99
-21.40
-24.85
-28.17
-31.25
-34.16
-36.98
-39.71
-42.14
-43.77
-43.96
-42.10
-37.91
-31.58
-23.78
-15.49
-7.70
-1.15
3.88
7.54
10.25
12.50
14.70
17.06
19.58
22.15
24.50
26.40
27.61
27.99
27.54
26.41
24.84
23.10
21.43
20.02
19.01
18.46
18.34
18.50
18.64
18.39
17.43
15.60
12.94
9.74
6.41
3.32
0.68
-1.48
-3.31
-5.05
-6.89
-8.96
-11.27
-13.76
-16.30
-18.76
-21.12
-23.45
-25.94
-28.80
-32.16
-35.88
-39.50
-42.27
-43.36
-42.10
-38.27
-32.14
-24.43
-16.06
-7.94
-0.75
5.14
9.67
12.97
15.33
17.04
18.35
19.43
20.35
21.14
21.75
22.14
22.25
22.04
21.51
20.71
19.79
18.97
18.45
18.35
18.58
18.88
18.87
18.20
16.69
14.44
11.74
9.04
6.71
4.93
3.63
2.56
1.35
-0.30
-2.56
-5.42
-8.68
-12.10
-15.41
-18.44
-21.13
-23.59
-25.99
-28.63
-31.66
-35.03
-38.39
-41.06
-42.21
-41.12
-37.41
-31.22
-23.20
-14.31
-5.62
2.01
8.07
12.44
15.33
17.11
18.19
18.88
19.33
19.58
19.64
19.57
19.42
19.28
19.16
19.06
18.96
18.87
18.83
18.86
18.98
19.11
19.09
18.69
17.73
16.14
14.03
11.69
9.45
7.55
6.06
4.80
3.39
1.51
-1.07
-4.30
-7.89
-11.50
-14.77
-17.53
-19.76
-21.60
-23.28
-25.13
-27.46
-30.45
-34.11
-38.05
-41.52
-43.47
-42.86
-38.98
-31.73
-21.72
-10.18
1.40
11.62
19.54
24.80
27.55
28.34
27.79
26.47
24.83
23.27
22.19
22.00
23.01
25.27
28.59
32.49
36.24
39.05
40.11
38.78
34.67
27.85
18.92
8.97
-0.71
-8.94
-14.99
-18.72
-20.59
-21.52
-22.56
-24.65
-28.30
-33.36
-38.97
-43.64
-45.74
-43.96
-37.85
-27.97
-15.81
-3.36
7.42
14.89
18.05
16.65
11.15
2.74
-6.85
-15.65
-21.94
-24.54
-23.23
-18.64
-12.07
-4.99
1.26
5.77
8.05
8.10
6.24
3.07
-0.59
-3.84
-5.86
-6.04
-4.15
-0.37
4.74
10.41
15.79
20.15
23.06
24.43
24.48
23.58
22.09
20.16
17.80
14.94
11.52
7.65
3.43
-0.97
-5.53
-10.23
-15.03
-19.72
-23.99
-27.59
-30.50
-33.01
-35.58
-38.52
-41.73
-44.53
-45.88
-44.78
-40.70
-33.91
-25.35
-16.26
-7.79
-0.66
4.93
9.05
11.88
13.58
14.22
13.91
12.91
11.58
10.35
9.60
9.57
10.38
11.95
14.12
16.58
18.94
20.74
21.58
21.16
19.38
16.34
12.28
7.54
2.50
-2.48
-7.14
-11.34
-15.15
-18.93
-23.22
-28.58
-35.29
-43.08
-51.16
-58.29
-63.21
-64.97
-63.17
-57.89
-49.55
-38.70
-26.04
-12.46
0.93
12.86
22.27
28.64
32.17
33.84
34.91
36.46
38.96
42.14
45.23
47.37
48.07
47.36
45.74
43.79
41.92
40.13
38.17
35.72
32.63
28.96
24.91
20.64
16.13
11.22
5.73
-0.41
-7.14
-14.28
-21.59
-28.73
-35.20
-40.32
-43.32
-43.60
-40.94
-35.67
-28.65
-21.08
-14.22
-9.13
-6.48
-6.43
-8.53
-11.71
-14.33
-14.48
-10.47
-1.38
12.54
29.82
48.01
64.31
76.28
82.44
82.59
77.72
69.72
60.84
53.21
48.35
46.87
48.30
51.18
53.45
53.07
48.75
40.47
29.62
18.41
9.11
3.25
1.27
2.81
7.11
13.47
21.30
29.83
37.88
43.95
46.64
45.18
39.82
31.58
21.76
11.47
1.47
-7.71
-15.50
-21.38
-25.05
-26.75
-27.19
-27.22
-27.27
-27.07
-25.81
-22.77
-17.97
-12.44
-7.95
-6.37
-8.85
-15.55
-25.60
-37.42
-49.09
-58.57
-63.97
-63.80
-57.30
-44.75
-27.59
-8.17
10.77
26.77
38.18
44.40
45.73
43.03
37.29
29.40
20.05
9.89
-0.32
-9.72
-17.38
-22.58
-25.06
-25.08
-23.46
-21.30
-19.72
-19.58
-21.30
-24.83
-29.64
-34.83
-39.29
-41.86
-41.60
-38.11
-31.66
-23.17
-13.98
-5.39
1.78
7.42
11.98
16.18
20.52
24.98
29.06
32.07
33.48
33.16
31.38
28.64
25.41
22.06
18.87
16.07
13.91
12.54
11.90
11.63
11.12
9.71
6.99
2.99
-1.87
-6.92
-11.52
-15.29
-18.26
-20.77
-23.41
-26.79
-31.27
-36.81
-42.83
-48.25
-51.74
-52.13
-48.76
-41.75
-31.98
-20.76
-9.48
0.80
9.45
16.24
21.16
24.24
25.53
25.11
23.24
20.39
17.19
14.25
12.03
10.68
10.06
9.84
9.65
9.23
8.47
7.37
5.97
4.24
2.06
-0.68
-4.06
-8.02
-12.41
-16.99
-21.49
-25.66
-29.33
-32.50
-35.30
-38.07
-41.27
-45.31
-50.31
-55.88
-61.03
-64.43
-64.71
-60.97
-53.14
-42.00
-28.99
-15.66
-3.34
7.20
15.76
22.55
27.90
32.12
35.41
37.92
39.81
41.29
42.55
43.73
44.82
45.69
46.12
46.00
45.32
44.29
43.16
42.15
41.27
40.35
38.99
36.87
33.78
29.81
25.32
20.82
16.77
13.35
10.43
7.59
4.37
0.54
-3.87
-8.50
-12.88
-16.74
-20.09
-23.29
-26.90
-31.43
-37.12
-43.72
-50.48
-56.26
-59.78
-60.01
-56.47
-49.45
-39.95
-29.37
-19.06
-9.86
-2.05
4.58
10.27
14.98
18.22
19.32
17.89
14.17
9.21
4.55
1.51
0.58
1.03
1.11
-1.24
-7.45
-17.65
-30.55
-44.02
-55.97
-65.32
-72.43
-79.15
-88.51
-104.43
-131.04
-171.40
-225.84
-290.53
-357.40
-415.89
-456.39
-473.74
-469.13
-449.36
-423.73
-400.30
-383.26
-372.77
-366.48
-361.83
-357.38
-352.73
-347.70
-341.33
-331.88
-317.50
-297.19
-271.27
-241.19
-208.76
-175.33
-141.55
-107.64
-73.94
-41.19
-10.20
18.76
46.54
75.23
107.60
146.11
192.03
245.03
303.41
364.52
425.28
482.43
532.94
574.37
605.20
625.08
634.56
634.62
626.36
610.66
588.47
560.97
529.66
496.27
462.34
428.96
396.73
365.96
336.86
309.64
284.47
261.32
239.86
219.58
199.86
180.10
159.82
138.68
116.59
93.74
70.74
48.44
28.00
10.62
-2.65
-10.95
-13.88
-11.50
-4.54
5.64
17.21
28.32
37.58
44.57
49.92
54.88
60.72
68.06
76.65
85.54
93.67
100.32
105.32
108.91
111.35
112.82
113.36
113.19
112.70
112.54
113.28
115.19
118.23
122.08
126.34
130.62
134.54
137.59
139.12
138.27
134.17
126.04
113.23
95.28
71.78
42.59
8.06
-30.60
-71.16
-110.79
-146.63
-176.66
-200.02
-217.00
-228.55
-235.67
-239.14
-239.46
-237.12
-232.68
-226.86
-220.21
-212.92
-204.76
-195.22
-183.91
-170.77
-156.19
-140.87
-125.53
-110.78
-96.95
-84.21
-72.68
-62.52
-53.93
-47.05
-41.82
-37.99
-35.15
-32.79
-30.55
-28.28
-26.10
-24.36
-23.51
-23.88
-25.51
-27.99
-30.63
-32.70
-33.72
-33.73
-33.24
-33.05
-34.01
-36.61
-40.63
-44.95
-47.52
-45.68
-36.83
-19.31
6.80
39.41
74.80
108.50
136.49
156.10
166.37
167.88
162.21
151.28
136.83
120.26
102.45
83.77
63.95
42.12
16.99
-12.64
-47.26
-86.27
-127.88
-169.84
-210.10
-247.31
-280.59
-308.96
-330.79
-343.88
-346.36
-337.39
-317.44
-287.95
-250.72
-207.25
-158.61
-105.71
-49.89
6.75
61.92
113.69
160.86
202.85
239.33
270.14
295.57
316.51
333.98
349.21
363.00
374.97
383.08
384.08
374.85
354.21
323.49
284.82
241.65
197.72
155.92
117.28
80.92
45.17
9.37
-26.27
-63.48
-103.23
-145.18
-187.70
-229.32
-270.16
-311.89
-356.05
-404.07
-459.63
-521.75
-582.22
-626.74
-640.74
-616.90
-558.62
-478.59
-396.82
-338.89
-322.46
-350.87
-413.18
-490.89
-567.74
-633.62
-683.73
-678.43
-594.55
-437.40
-241.74
-48.40
117.45
246.70
334.64
393.69
431.34
445.29
432.99
395.13
336.50
263.07
179.03
91.19
11.58
-47.91
-83.12
-95.69
-91.52
-84.68
-77.18
-69.72
-62.28
-53.29
-42.47
-32.95
-26.77
-25.02
-25.74
-23.72
-14.98
2.81
30.17
64.17
98.93
128.83
150.62
164.88
176.03
188.53
206.42
232.96
269.58
315.37
367.43
420.52
467.79
502.50
518.64
513.76
490.15
453.66
411.38
368.81
328.00
287.76
245.36
198.09
145.20
88.56
32.25
-18.75
-59.94
-88.68
-104.95
-111.51
-113.51
-117.15
-128.07
-149.87
-182.94
-223.92
-266.07
-300.74
-319.21
-314.96
-285.31
-232.19
-161.87
-83.56
-7.64
56.34
101.37
124.33
126.16
111.10
85.02
53.53
20.65
-11.36
-41.17
-67.13
-86.33
-94.91
-89.25
-67.55
-31.21
14.98
63.69
106.72
137.08
150.54
146.27
126.54
95.91
59.96
24.31
-6.12
-27.52
-37.58
-35.81
-23.72
-4.79
16.18
34.11
44.85
46.10
37.71
21.30
-0.47
-24.51
-47.84
-67.64
-81.37
-87.11
-84.00
-72.69
-55.56
-36.34
-19.30
-8.30
-5.74
-12.03
-25.21
-41.58
-56.55
-65.98
-67.20
-59.40
-43.35
-20.80
5.87
33.47
57.59
72.99
74.75
60.40
31.73
-4.91
-40.14
-64.76
-72.98
-64.25
-42.89
-15.98
9.42
28.48
39.27
42.40
39.83
33.74
25.97
18.05
11.33
7.16
6.58
9.75
15.58
21.70
25.19
23.57
15.85
2.82
-13.39
-30.29
-45.96
-59.54
-71.00
-80.46
-87.56
-91.17
-89.74
-81.99
-67.70
-48.11
-25.62
-3.31
16.07
30.75
40.33
45.61
48.04
49.12
49.77
50.17
49.91
48.36
45.00
39.73
32.86
24.98
16.94
9.63
3.85
0.25
-0.83
0.57
3.99
8.58
13.19
16.66
17.90
16.32
11.82
4.88
-3.56
-12.50
-21.04
-28.62
-35.08
-40.59
-45.64
-50.83
-56.69
-63.43
-70.57
-76.88
-80.62
-79.97
-73.72
-61.74
-44.96
-25.14
-4.43
15.19
32.17
45.52
54.79
60.00
61.60
60.38
57.45
54.01
51.29
50.22
51.25
54.21
58.40
62.74
66.21
68.07
68.01
66.10
62.48
57.26
50.54
42.40
33.16
23.34
13.65
4.74
-2.93
-9.23
-14.37
-18.74
-22.83
-27.17
-32.15
-37.84
-43.80
-49.03
-52.14
-51.68
-46.64
-36.89
-23.30
-7.50
8.56
23.12
35.03
43.73
49.15
51.51
51.08
48.29
43.75
38.31
32.95
28.61
25.91
24.98
25.49
26.69
27.81
28.18
27.47
25.64
22.84
19.18
14.63
8.99
2.01
-6.30
-15.62
-25.25
-34.33
-42.29
-48.97
-54.71
-60.19
-66.05
-72.62
-79.79
-87.03
-93.38
-97.71
-98.86
-95.90
-88.39
-76.57
-61.26
-43.72
-25.30
-7.17
9.68
24.54
36.84
46.27
52.84
56.94
59.21
60.37
60.94
61.03
60.45
58.85
56.05
52.17
47.57
42.83
38.50
34.98
32.43
30.78
29.73
28.90
27.89
26.48
24.51
22.02
19.07
15.73
11.99
7.80
3.11
-2.10
-7.74
-13.58
-19.41
-25.08
-30.55
-35.98
-41.90
-48.99
-57.97
-69.19
-82.26
-95.87
-107.88
-115.62
-116.61
-109.11
-92.61
-68.01
-37.56
-4.38
28.05
56.50
78.59
93.10
99.98
100.25
95.57
87.81
78.73
69.68
61.48
54.45
48.51
43.39
38.90
35.05
32.11
30.46
30.35
31.63
33.75
35.76
36.65
35.71
32.58
27.37
20.59
13.02
5.49
-1.20
-6.47
-10.12
-12.39
-13.78
-14.92
-16.15
-17.48
-18.63
-19.29
-19.48
-19.64
-20.67
-23.50
-28.80
-36.65
-46.27
-56.18
-64.33
-68.62
-67.28
-59.39
-45.17
-25.88
-3.58
19.29
40.40
57.87
70.40
77.46
79.32
77.06
72.27
66.61
61.29
56.67
52.39
47.69
41.97
35.12
27.57
19.97
12.76
6.19
0.21
-5.08
-9.42
-12.45
-13.96
-14.10
-13.39
-12.60
-12.32
-12.87
-14.07
-15.42
-16.24
-15.97
-14.35
-11.59
-8.34
-5.52
-4.01
-4.39
-6.67
-10.42
-14.87
-19.23
-22.90
-25.60
-27.39
-28.72
-30.30
-32.91
-37.14
-42.92
-49.45
-55.22
-58.41
-57.52
-51.94
-42.20
-29.86
-17.18
-6.46
0.49
2.68
0.18
-5.75
-12.92
-18.42
-19.43
-13.99
-1.91
14.94
32.91
47.73
55.82
55.46
47.17
33.28
17.06
1.65
-10.60
-18.32
-21.23
-19.94
-15.99
-11.57
-9.04
-10.17
-15.54
-24.22
-34.02
-42.34
-47.09
-47.40
-43.77
-37.69
-30.96
-25.03
-20.71
-18.11
-16.98
-16.99
-17.85
-19.42
-21.59
-24.32
-27.66
-31.75
-36.65
-42.11
-47.33
-51.05
-51.86
-48.73
-41.59
-31.41
-19.96
-9.23
-0.80
4.51
6.71
6.38
4.43
1.80
-0.67
-2.43
-3.20
-3.00
-2.15
-1.04
-0.12
0.33
0.21
-0.49
-1.64
-3.10
-4.66
-6.12
-7.36
-8.44
-9.59
-11.18
-13.52
-16.81
-21.08
-26.15
-31.76
-37.56
-43.08
-47.73
-50.82
-51.82
-50.58
-47.50
-43.33
-38.97
-35.08
-31.95
-29.49
-27.46
-25.70
-24.14
-22.75
-21.37
-19.66
-17.03
-12.78
-6.24
3.08
15.29
29.96
46.13
62.44
77.39
89.86
99.34
105.93
110.13
112.45
113.20
112.50
110.40
107.06
102.70
97.54
91.56
84.63
76.68
67.98
59.31
51.70
46.27
43.70
44.05
46.59
50.00
52.60
52.85
49.71
43.07
33.75
23.29
13.35
5.10
-1.08
-5.53
-8.89
-11.75
-14.41
-16.94
-19.35
-21.89
-24.92
-28.81
-33.78
-39.86
-46.90
-54.59
-62.43
-69.64
-75.22
-78.15
-77.80
-74.21
-68.13
-60.76
-53.29
-46.57
-40.92
-36.28
-32.50
-29.42
-26.98
-25.07
-23.39
-21.50
-18.90
-15.37
-11.00
-6.23
-1.65
2.28
5.54
8.61
12.41
17.92
25.66
35.45
46.29
56.69
65.22
71.02
74.03
74.89
74.51
73.67
72.80
71.79
70.07
66.63
60.16
49.43
33.83
13.92
-8.35
-29.88
-47.43
-58.71
-63.28
-62.68
-59.78
-57.52
-57.88
-61.27
-66.66
-72.18
-75.88
-76.18
-72.12
-63.41
-50.35
-33.94
-15.90
1.41
15.26
23.11
23.41
15.98
2.34
-14.65
-31.45
-44.74
-52.14
-52.84
-47.49
-37.96
-26.67
-15.84
-7.10
-1.28
1.57
1.81
0.05
-3.11
-7.06
-11.35
-15.45
-19.02
-21.87
-24.07
-25.98
-28.04
-30.57
-33.64
-37.11
-40.66
-44.08
-47.36
-50.60
-53.93
-57.12
-59.53
-60.22
-58.25
-53.03
-44.61
-33.71
-21.55
-9.58
0.84
8.69
13.46
15.25
14.78
13.27
12.18
12.86
16.09
22.03
30.13
39.32
48.29
55.78
60.82
62.92
62.15
59.00
54.21
48.55
42.53
36.42
30.29
24.34
18.92
14.55
11.64
10.17
9.60
9.02
7.44
4.19
-0.91
-7.56
-15.16
-23.01
-30.51
-37.23
-43.00
-47.96
-52.74
-58.21
-65.19
-73.90
-83.57
-92.27
-97.42
-96.50
-87.89
-71.48
-48.76
-22.36
4.67
29.54
50.17
65.35
74.78
78.89
78.69
75.49
70.52
64.67
58.16
50.73
41.89
31.50
19.97
8.41
-1.83
-9.62
-14.53
-17.02
-18.15
-19.18
-21.04
-24.06
-27.97
-32.15
-35.83
-38.44
-39.65
-39.37
-37.70
-34.94
-31.53
-28.17
-25.65
-24.68
-25.56
-27.86
-30.39
-31.44
-29.37
-23.19
-13.08
-0.28
13.19
25.38
34.93
41.44
45.32
47.39
48.50
49.22
49.78
50.17
50.36
50.23
49.65
48.35
46.02
42.44
37.65
32.00
26.14
20.91
16.96
14.61
13.69
13.56
13.43
12.50
10.27
6.59
1.73
-3.73
-9.04
-13.53
-16.84
-19.06
-20.75
-22.64
-25.28
-28.76
-32.62
-35.92
-37.56
-36.65
-32.64
-25.47
-15.54
-3.67
8.93
20.83
30.68
37.56
41.17
41.88
40.53
38.02
35.16
32.42
30.08
28.26
27.07
26.50
26.42
26.52
26.36
25.55
23.88
21.44
18.59
15.79
13.43
11.66
10.30
8.85
6.74
3.48
-1.05
-6.59
-12.53
-18.10
-22.69
-25.96
-28.00
-29.30
-30.56
-32.49
-35.47
-39.39
-43.55
-46.82
-47.90
-45.82
-40.22
-31.40
-20.37
-8.46
2.92
12.61
19.89
24.61
27.11
28.13
28.57
29.11
30.09
31.44
32.83
33.94
34.67
35.11
35.40
35.66
35.82
35.71
35.20
34.27
33.01
31.56
29.98
28.19
26.06
23.42
20.24
16.64
12.86
9.18
5.83
2.92
0.43
-1.82
-4.10
-6.70
-9.88
-13.88
-18.81
-24.64
-31.01
-37.24
-42.28
-44.98
-44.43
-40.26
-32.84
-23.14
-12.48
-2.16
6.93
14.32
20.03
24.32
27.51
29.88
31.64
32.89
33.65
33.88
33.57
32.80
31.70
30.51
29.48
28.86
28.73
29.12
29.90
30.87
31.82
32.43
32.46
31.65
29.86
27.05
23.38
19.16
14.78
10.70
7.25
4.73
3.28
2.91
3.32
4.00
4.19
2.96
-0.56
-6.92
-16.16
-27.67
-40.00
-51.09
-58.52
-60.16
-54.78
-42.47
-24.79
-4.33
15.93
33.36
46.17
53.52
55.52
52.91
46.95
39.14
31.11
24.28
19.63
17.49
17.56
19.15
21.39
23.49
24.86
25.07
23.94
21.53
18.17
14.39
10.93
8.34
6.97
6.70
7.01
7.14
6.30
3.89
-0.28
-6.00
-12.65
-19.38
-25.24
-29.50
-31.72
-31.91
-30.55
-28.43
-26.55
-25.90
-27.24
-30.99
-37.05
-44.78
-53.01
-60.14
-64.50
-64.74
-60.24
-51.27
-39.06
-25.37
-12.00
-0.36
8.86
15.54
20.00
22.69
23.99
24.28
23.94
23.41
23.19
23.62
24.78
26.45
28.21
29.58
30.21
29.90
28.62
26.49
23.79
20.89
18.30
16.47
15.64
15.78
16.48
17.12
17.13
16.23
14.40
11.90
9.01
5.87
2.53
-1.10
-5.12
-9.65
-14.84
-20.93
-28.08
-36.17
-44.55
-51.93
-56.73
-57.45
-53.26
-44.27
-31.50
-16.53
-1.06
13.49
26.07
36.05
43.13
47.27
48.59
47.52
44.72
40.97
37.06
33.61
30.89
28.87
27.24
25.60
23.59
21.13
18.33
15.49
12.92
10.77
9.00
7.44
5.96
4.51
3.20
2.15
1.45
1.01
0.49
-0.48
-2.26
-4.97
-8.49
-12.40
-16.24
-19.49
-21.96
-23.79
-25.41
-27.41
-30.27
-34.18
-38.91
-43.77
-47.75
-49.74
-48.77
-44.31
-36.44
-25.87
-13.83
-1.68
9.41
18.71
26.10
31.88
36.49
40.30
43.50
46.10
48.09
49.47
50.43
51.14
51.76
52.32
52.69
52.71
52.35
51.74
51.22
51.17
51.85
53.17
54.72
55.84
55.82
54.15
50.66
45.46
38.86
31.32
23.30
15.21
7.34
-0.19
-7.41
-14.45
-21.35
-28.12
-34.64
-40.88
-46.87
-52.80
-58.73
-64.48
-69.51
-72.89
-73.70
-71.29
-65.64
-57.44
-48.07
-39.12
-32.07
-27.89
-26.82
-28.37
-31.50
-34.90
-37.18
-37.24
-34.37
-28.47
-20.04
-10.25
-0.72
6.78
10.70
10.02
4.40
-5.80
-19.55
-35.38
-51.39
-65.49
-75.62
-80.04
-77.83
-69.23
-55.69
-39.63
-23.81
-10.63
-1.64
2.70
2.84
-0.26
-5.57
-12.31
-20.06
-28.69
-38.03
-47.56
-56.25
-62.51
-64.52
-60.81
-50.75
-34.88
-14.94
6.59
27.04
44.13
56.35
63.14
64.75
62.07
56.32
48.79
40.74
33.16
26.82
22.17
19.36
18.19
18.17
18.58
18.72
18.11
16.62
14.46
12.01
9.61
7.36
5.08
2.43
-0.88
-4.84
-9.21
-13.64
-17.87
-21.91
-25.98
-30.35
-35.17
-40.33
-45.53
-50.42
-54.71
-58.22
-60.77
-62.00
-61.41
-58.42
-52.67
-44.32
-34.06
-22.97
-12.17
-2.45
5.91
13.09
19.54
25.58
31.31
36.51
40.81
43.85
45.44
45.63
44.64
42.75
40.26
37.38
34.31
31.22
28.38
26.07
24.59
24.09
24.51
25.47
26.43
26.82
26.28
24.71
22.27
19.24
15.86
12.20
8.19
3.73
-1.26
-6.72
-12.51
-18.41
-24.08
-29.06
-32.66
-34.17
-32.96
-28.76
-21.83
-12.99
-3.38
5.79
13.62
19.60
23.63
25.93
26.79
26.55
25.50
24.00
22.43
21.18
20.55
20.59
21.10
21.71
21.97
21.57
20.46
18.79
16.78
14.59
12.20
9.46
6.18
2.29
-2.04
-6.50
-10.74
-14.58
-18.02
-21.26
-24.61
-28.34
-32.64
-37.47
-42.54
-47.18
-50.50
-51.47
-49.28
-43.63
-34.89
-24.14
-12.76
-2.11
6.91
13.97
19.17
22.81
25.11
26.22
26.22
25.34
24.01
22.70
21.83
21.50
21.48
21.34
20.72
19.44
17.58
15.41
13.14
10.85
8.46
5.81
2.76
-0.65
-4.31
-8.01
-11.57
-14.89
-18.01
-21.09
-24.42
-28.31
-32.91
-38.09
-43.30
-47.60
-49.90
-49.21
-45.08
-37.70
-27.93
-17.06
-6.40
3.05
10.81
16.95
21.82
25.79
29.08
31.65
33.35
34.15
34.24
33.99
33.78
33.80
33.98
33.98
33.49
32.34
30.63
28.70
26.88
25.36
24.07
22.70
20.78
17.91
13.92
8.94
3.46
-1.94
-6.80
-10.93
-14.53
-18.02
-21.83
-26.22
-31.22
-36.61
-41.92
-46.55
-49.67
-50.41
-48.02
-42.18
-33.27
-22.35
-10.92
-0.39
8.30
14.98
20.04
24.16
27.86
31.31
34.36
36.77
38.36
39.19
39.52
39.64
39.75
39.87
39.88
39.67
39.15
38.32
37.23
35.94
34.39
32.52
30.23
27.45
24.26
20.78
17.22
13.79
10.68
7.97
5.65
3.58
1.51
-0.77
-3.46
-6.57
-10.03
-13.66
-17.32
-20.89
-24.36
-27.76
-31.23
-34.98
-39.16
-43.86
-48.92
-53.73
-57.34
-58.60
-56.58
-50.92
-42.10
-31.20
-19.64
-8.73
0.70
8.35
14.38
19.13
22.96
26.06
28.52
30.39
31.71
32.62
33.32
34.00
34.79
35.67
36.45
36.81
36.50
35.41
33.76
31.98
30.45
29.34
28.45
27.25
25.24
22.19
18.25
13.93
9.85
6.44
3.74
1.47
-0.84
-3.56
-6.84
-10.62
-14.61
-18.48
-21.99
-25.01
-27.59
-30.00
-32.65
-36.01
-40.34
-45.44
-50.51
-54.25
-55.21
-52.45
-45.87
-36.41
-25.71
-15.61
-7.43
-1.71
1.80
3.93
5.58
7.38
9.47
11.48
12.72
12.34
9.68
4.53
-2.55
-10.18
-16.30
-18.59
-15.26
-5.73
8.92
26.13
42.47
54.61
60.29
58.75
50.72
37.89
22.51
6.76
-7.36
-18.23
-24.67
-26.17
-23.01
-16.42
-8.32
-1.03
3.26
2.96
-2.62
-13.16
-27.40
-43.36
-58.66
-70.98
-78.39
-79.80
-75.11
-65.25
-52.01
-37.57
-24.10
-13.27
-5.88
-1.76
0.00
0.81
1.97
4.37
8.19
12.94
17.73
21.51
23.52
23.34
21.15
17.57
13.59
10.34
8.84
9.75
13.12
18.42
24.55
30.15
33.95
35.13
33.51
29.49
23.94
17.83
11.94
6.74
2.35
-1.30
-4.40
-7.08
-9.47
-11.64
-13.69
-15.71
-17.82
-20.18
-22.95
-26.29
-30.18
-34.37
-38.24
-40.92
-41.49
-39.32
-34.23
-26.67
-17.59
-8.12
0.73
8.29
14.25
18.66
21.76
23.92
25.52
26.92
28.39
30.10
32.01
34.01
35.87
37.38
38.34
38.64
38.26
37.25
35.82
34.19
32.58
31.09
29.63
27.94
25.72
22.79
19.17
15.09
10.91
6.94
3.34
0.08
-2.99
-6.03
-9.16
-12.46
-15.88
-19.29
-22.48
-25.29
-27.67
-29.72
-31.76
-34.19
-37.33
-41.24
-45.57
-49.53
-52.14
-52.39
-49.53
-43.34
-34.17
-22.90
-10.80
0.85
10.96
18.87
24.42
27.85
29.65
30.30
30.23
29.66
28.75
27.65
26.53
25.63
25.12
25.05
25.29
25.64
25.87
25.89
25.71
25.37
24.89
24.13
22.90
21.02
18.43
15.23
11.64
8.01
4.60
1.62
-0.94
-3.25
-5.60
-8.27
-11.45
-15.07
-18.82
-22.35
-25.37
-27.79
-29.85
-31.92
-34.37
-37.43
-41.00
-44.57
-47.30
-48.23
-46.51
-41.75
-34.18
-24.73
-14.70
-5.41
2.27
8.05
12.21
15.22
17.53
19.32
20.58
21.22
21.30
20.98
20.50
20.05
19.70
19.40
19.13
18.89
18.65
18.41
18.02
17.31
16.16
14.57
12.67
10.60
8.44
6.10
3.40
0.17
-3.64
-7.92
-12.42
-16.88
-21.10
-24.97
-28.49
-31.74
-34.87
-38.15
-41.83
-46.07
-50.74
-55.28
-58.74
-60.02
-58.20
-52.89
-44.45
-33.79
-22.27
-11.20
-1.60
6.00
11.57
15.44
18.11
20.04
21.58
22.94
24.22
25.47
26.66
27.66
28.31
28.48
28.10
27.31
26.35
25.49
24.84
24.32
23.72
22.77
21.32
19.33
16.84
13.95
10.75
7.32
3.69
-0.13
-4.08
-8.18
-12.32
-16.47
-20.54
-24.45
-28.19
-31.83
-35.55
-39.54
-43.90
-48.47
-52.75
-55.87
-56.81
-54.75
-49.32
-40.89
-30.44
-19.32
-8.82
0.14
7.23
12.57
16.60
19.86
22.73
25.42
27.91
30.04
31.65
32.64
33.06
33.02
32.76
32.40
32.02
31.57
31.00
30.24
29.25
27.98
26.39
24.44
22.07
19.28
16.09
12.59
8.90
5.09
1.24
-2.67
-6.63
-10.69
-14.81
-18.94
-23.05
-27.07
-31.05
-35.08
-39.34
-43.92
-48.74
-53.34
-57.02
-58.83
-57.94
-53.84
-46.55
-36.67
-25.21
-13.39
-2.33
7.19
14.77
20.41
24.39
27.12
29.04
30.48
31.69
32.83
33.94
34.97
35.81
36.31
36.47
36.39
36.35
36.62
37.34
38.29
38.96
38.70
37.01
33.72
28.98
23.24
16.97
10.58
4.30
-1.78
-7.64
-13.40
-19.28
-25.57
-32.55
-40.29
-48.48
-56.55
-63.82
-69.85
-74.67
-78.64
-82.06
-84.68
-85.57
-83.15
-75.80
-62.69
-44.13
-21.76
1.99
24.58
43.96
58.93
69.05
74.39
75.26
72.12
65.63
56.74
46.73
36.99
28.79
22.90
19.45
17.86
17.12
16.13
14.06
10.64
6.16
1.36
-2.86
-5.81
-7.21
-7.17
-6.16
-4.81
-3.68
-3.18
-3.53
-4.85
-7.12
-10.30
-14.22
-18.68
-23.42
-28.27
-33.18
-38.13
-43.00
-47.42
-50.66
-51.82
-50.02
-44.84
-36.46
-25.68
-13.66
-1.63
9.43
18.99
26.81
32.97
37.56
40.75
42.74
43.75
44.06
43.94
43.63
43.23
42.78
42.26
41.60
40.71
39.51
37.86
35.71
33.09
30.11
26.96
23.83
20.74
17.60
14.21
10.41
6.17
1.63
-2.98
-7.41
-11.50
-15.21
-18.56
-21.74
-24.95
-28.51
-32.75
-37.81
-43.56
-49.36
-54.17
-56.68
-55.73
-50.68
-41.65
-29.59
-15.98
-2.42
9.80
19.89
27.67
33.37
37.36
40.00
41.58
42.31
42.37
41.99
41.37
40.65
39.92
39.16
38.29
37.23
35.96
34.49
32.90
31.19
29.34
27.30
24.98
22.36
19.39
15.96
11.98
7.43
2.37
-2.94
-8.14
-12.92
-17.10
-20.72
-24.03
-27.34
-31.00
-35.28
-40.37
-46.20
-52.34
-57.89
-61.60
-62.19
-58.74
-51.13
-40.06
-26.99
-13.62
-1.48
8.49
16.01
21.23
24.56
26.41
27.08
26.82
25.91
24.68
23.53
22.80
22.55
22.61
22.58
22.03
20.67
18.48
15.72
12.75
9.95
7.49
5.26
2.97
0.25
-3.18
-7.32
-11.95
-16.66
-21.01
-24.77
-27.99
-30.96
-34.18
-38.10
-43.01
-48.82
-55.02
-60.62
-64.42
-65.25
-62.27
-55.32
-44.90
-32.20
-18.70
-5.85
5.34
14.33
21.12
26.07
29.63
32.17
33.92
35.00
35.51
35.65
35.69
35.87
36.31
36.88
37.30
37.29
36.68
35.51
33.96
32.25
30.43
28.43
26.00
22.91
19.02
14.40
9.24
3.82
-1.60
-6.82
-11.72
-16.25
-20.39
-24.18
-27.79
-31.55
-35.87
-41.12
-47.39
-54.23
-60.63
-65.23
-66.60
-63.80
-56.59
-45.62
-32.19
-17.94
-4.43
7.25
16.56
23.55
28.61
32.30
35.08
37.27
38.97
40.17
40.88
41.14
41.07
40.81
40.50
40.19
39.86
39.40
38.65
37.48
35.78
33.51
30.64
27.16
23.08
18.50
13.62
8.68
3.91
-0.60
-4.89
-9.15
-13.52
-17.98
-22.38
-26.52
-30.28
-33.80
-37.47
-41.80
-47.13
-53.40
-60.00
-65.76
-69.22
-69.02
-64.32
-55.19
-42.52
-27.88
-12.98
0.70
12.26
21.47
28.59
34.08
38.34
41.65
44.11
45.87
47.01
47.69
47.96
47.84
47.28
46.31
45.06
43.74
42.59
41.67
40.87
39.92
38.48
36.38
33.59
30.30
26.67
22.83
18.83
14.61
10.11
5.28
0.22
-4.94
-10.01
-14.77
-19.08
-22.95
-26.56
-30.25
-34.52
-39.68
-45.73
-52.16
-57.93
-61.73
-62.27
-58.80
-51.24
-40.37
-27.51
-14.18
-1.74
8.94
17.48
23.91
28.45
31.41
33.03
33.59
33.27
32.30
30.94
29.40
27.89
26.54
25.42
24.43
23.51
22.53
21.45
20.34
19.21
18.05
16.69
14.88
12.28
8.68
4.08
-1.28
-6.95
-12.48
-17.49
-21.84
-25.62
-29.08
-32.55
-36.41
-40.94
-46.20
-51.96
-57.57
-61.95
-63.88
-62.27
-56.55
-46.94
-34.42
-20.53
-6.94
4.96
14.41
21.31
26.14
29.62
32.46
35.09
37.69
40.12
42.08
43.13
42.78
40.50
35.82
28.58
18.99
7.79
-3.86
-14.56
-23.03
-28.38
-30.33
-29.25
-25.99
-21.65
-17.35
-13.89
-11.76
-11.09
-11.73
-13.43
-15.85
-18.67
-21.59
-24.43
-27.15
-29.97
-33.27
-37.40
-42.40
-47.79
-52.49
-55.12
-54.40
-49.69
-41.33
-30.51
-18.92
-8.11
0.92
8.02
13.65
18.52
23.26
28.05
32.72
36.86
40.09
42.23
43.37
43.80
43.83
43.73
43.60
43.44
43.17
42.62
41.65
40.17
38.13
35.51
32.37
28.76
24.70
20.29
15.60
10.85
6.28
2.11
-1.55
-4.78
-7.79
-10.88
-14.32
-18.28
-22.90
-28.16
-33.93
-39.75
-44.88
-48.26
-48.75
-45.51
-38.29
-27.64
-14.79
-1.31
11.36
22.18
30.65
36.73
40.65
42.72
43.26
42.65
41.29
39.63
38.07
36.86
36.09
35.66
35.40
35.04
34.36
33.20
31.54
29.52
27.35
25.23
23.19
21.05
18.47
15.09
10.68
5.28
-0.84
-7.27
-13.60
-19.51
-24.79
-29.40
-33.37
-36.87
-40.16
-43.62
-47.55
-52.02
-56.66
-60.62
-62.72
-61.76
-56.99
-48.42
-36.90
-23.89
-10.98
0.44
9.66
16.50
21.25
24.29
25.95
26.40
25.86
24.67
23.28
22.20
21.76
21.96
22.44
22.65
22.13
20.73
18.63
16.23
13.87
11.66
9.38
6.65
3.11
-1.37
-6.57
-12.06
-17.30
-21.98
-26.05
-29.77
-33.53
-37.74
-42.69
-48.39
-54.55
-60.45
-65.03
-67.14
-65.76
-60.43
-51.42
-39.70
-26.64
-13.63
-1.77
8.39
16.70
23.31
28.41
32.11
34.50
35.69
35.93
35.56
35.04
34.68
34.59
34.60
34.35
33.48
31.83
29.53
26.86
24.18
21.64
19.16
16.45
13.24
9.36
4.85
-0.13
-5.37
-10.64
-15.82
-20.76
-25.38
-29.76
-34.10
-38.82
-44.30
-50.64
-57.37
-63.43
-67.35
-67.71
-63.72
-55.45
-43.89
-30.59
-17.19
-4.93
5.49
14.00
20.84
26.31
30.63
33.89
36.08
37.27
37.67
37.56
37.27
37.05
36.99
37.06
37.15
37.10
36.73
35.92
34.59
32.71
30.36
27.59
24.47
21.01
17.18
12.97
8.39
3.54
-1.43
-6.33
-11.01
-15.40
-19.51
-23.44
-27.39
-31.61
-36.36
-41.74
-47.56
-53.16
-57.46
-59.17
-57.19
-50.98
-40.86
-27.89
-13.58
0.55
13.25
23.79
31.81
37.33
40.63
42.13
42.43
42.07
41.51
40.97
40.47
39.88
39.07
37.93
36.52
34.92
33.23
31.56
29.97
28.42
26.74
24.63
21.79
18.01
13.25
7.67
1.53
-4.88
-11.40
-17.98
-24.73
-31.74
-39.09
-46.66
-54.30
-61.77
-68.82
-75.19
-80.59
-84.67
-86.96
-86.94
-84.07
-77.92
-68.15
-54.71
-37.93
-18.60
1.95
21.97
39.58
53.13
61.65
65.08
64.18
60.27
54.80
48.99
43.69
39.40
36.41
34.85
34.73
35.80
37.53
39.20
40.03
39.47
37.33
33.88
29.57
24.92
20.18
15.37
10.42
5.20
-0.19
-5.56
-10.62
-15.20
-19.24
-22.91
-26.50
-30.30
-34.63
-39.70
-45.56
-51.92
-58.11
-63.06
-65.52
-64.42
-59.22
-50.12
-38.09
-24.57
-11.05
1.29
11.81
20.37
27.18
32.56
36.75
39.89
41.98
43.02
43.05
42.23
40.91
39.44
38.23
37.48
37.28
37.47
37.75
37.81
37.32
36.12
34.11
31.35
27.99
24.21
20.20
16.05
11.76
7.17
2.18
-3.25
-9.00
-14.77
-20.25
-25.20
-29.56
-33.46
-37.24
-41.25
-45.72
-50.69
-55.86
-60.58
-63.87
-64.59
-61.74
-54.83
-44.10
-30.55
-15.72
-1.27
11.47
21.72
29.35
34.66
38.17
40.33
41.49
41.88
41.72
41.18
40.47
39.75
39.07
38.45
37.85
37.19
36.39
35.42
34.23
32.76
30.96
28.78
26.23
23.31
20.08
16.56
12.77
8.71
4.36
-0.26
-5.09
-9.97
-14.78
-19.39
-23.74
-27.93
-32.12
-36.60
-41.66
-47.45
-53.80
-60.14
-65.45
-68.45
-68.05
-63.55
-55.04
-43.31
-29.73
-15.83
-3.01
7.72
15.94
21.61
25.09
26.80
27.17
26.61
25.46
24.16
23.11
22.69
22.94
23.68
24.38
24.47
23.56
21.66
19.20
16.71
14.62
12.87
10.96
8.06
3.40
-3.42
-12.19
-22.06
-31.77
-39.98
-45.70
-48.64
-49.47
-49.66
-51.10
-55.46
-63.42
-74.30
-85.99
-95.37
-99.21
-95.14
-82.45
-62.43
-38.08
-13.24
8.40
24.32
33.63
36.98
36.13
33.12
29.74
27.10
25.64
25.17
25.20
25.15
24.50
23.09
21.12
19.16
18.07
18.66
21.44
26.42
32.97
39.91
45.86
49.55
50.18
47.65
42.51
35.69
28.24
21.06
14.61
8.95
3.85
-1.09
-6.21
-11.73
-17.76
-24.30
-31.32
-38.67
-46.04
-52.80
-58.03
-60.61
-59.54
-54.29
-45.04
-32.76
-18.91
-5.08
7.42
17.82
25.93
31.89
36.02
38.61
39.83
39.88
39.01
37.61
36.06
34.71
33.74
33.12
32.70
32.21
31.47
30.39
29.03
27.54
26.09
24.76
23.48
21.99
19.94
17.01
13.03
8.13
2.66
-2.86
-7.93
-12.26
-15.79
-18.74
-21.46
-24.37
-27.82
-32.07
-37.21
-43.08
-49.16
-54.53
-58.04
-58.53
-55.23
-48.02
-37.53
-25.02
-11.98
0.20
10.61
18.81
24.82
28.89
31.37
32.63
33.00
32.84
32.43
32.07
31.93
32.11
32.54
33.05
33.38
33.22
32.38
30.75
28.44
25.67
22.73
19.76
16.71
13.37
9.46
4.85
-0.37
-5.84
-11.15
-15.98
-20.20
-23.93
-27.43
-31.08
-35.22
-40.13
-45.89
-52.32
-58.71
-63.92
-66.53
-65.32
-59.71
-50.02
-37.50
-23.88
-10.87
0.32
9.17
15.69
20.20
23.03
24.43
24.63
23.93
22.72
21.49
20.59
20.17
20.11
20.12
19.89
19.26
18.23
17.02
15.78
14.64
13.51
12.23
10.50
8.13
4.97
1.07
-3.39
-8.12
-12.78
-17.11
-21.01
-24.67
-28.45
-32.86
-38.32
-44.91
-52.24
-59.36
-64.91
-67.44
-65.87
-59.82
-49.80
-37.05
-23.20
-9.78
2.08
11.93
19.81
26.05
30.98
34.75
37.39
38.92
39.46
39.28
38.80
38.39
38.30
38.50
38.80
38.82
38.28
37.00
35.02
32.52
29.79
26.99
24.17
21.19
17.79
13.77
9.05
3.74
-1.88
-7.49
-12.83
-17.75
-22.21
-26.34
-30.28
-34.32
-38.71
-43.65
-49.06
-54.42
-58.81
-61.00
-59.91
-54.89
-46.08
-34.41
-21.28
-8.23
3.51
13.26
20.93
26.75
31.20
34.59
37.09
38.71
39.42
39.32
38.68
37.87
37.23
36.98
37.10
37.40
37.61
37.49
36.88
35.74
34.13
32.10
29.72
27.01
23.97
20.60
16.96
13.12
9.23
5.35
1.46
-2.49
-6.58
-10.88
-15.31
-19.85
-24.58
-29.70
-35.50
-42.12
-49.28
-56.16
-61.52
-63.93
-62.36
-56.45
-46.75
-34.52
-21.36
-8.78
2.18
11.02
17.76
22.68
26.15
28.46
29.80
30.33
30.26
29.85
29.36
28.98
28.73
28.49
28.11
27.44
26.48
25.33
24.12
22.93
21.71
20.30
18.52
16.19
13.21
9.56
5.38
0.84
-3.80
-8.25
-12.32
-15.95
-19.31
-22.68
-26.49
-31.09
-36.67
-43.12
-49.95
-56.22
-60.76
-62.37
-60.23
-54.12
-44.61
-32.87
-20.37
-8.46
1.91
10.26
16.55
20.98
23.83
25.38
25.90
25.62
24.79
23.72
22.71
21.99
21.68
21.70
21.84
21.85
21.52
20.79
19.74
18.48
17.04
15.36
13.25
10.48
6.95
2.70
-2.07
-7.11
-12.07
-16.68
-20.79
-24.43
-27.78
-31.23
-35.20
-40.02
-45.75
-52.01
-57.95
-62.39
-64.14
-62.20
-56.18
-46.46
-34.11
-20.63
-7.51
4.14
13.82
21.61
27.89
33.05
37.27
40.49
42.55
43.40
43.17
42.23
41.00
39.83
38.89
38.14
37.47
36.73
35.81
34.64
33.20
31.42
29.23
26.55
23.37
19.75
15.83
11.69
7.39
2.94
-1.62
-6.26
-10.82
-15.20
-19.34
-23.32
-27.33
-31.66
-36.54
-42.10
-48.21
-54.46
-60.08
-64.01
-65.12
-62.50
-55.82
-45.54
-32.83
-19.25
-6.29
5.01
14.20
21.35
26.83
31.01
34.19
36.54
38.21
39.34
40.09
40.60
40.93
41.12
41.20
41.17
41.07
40.93
40.71
40.28
39.48
38.11
36.06
33.30
29.92
26.12
22.11
18.07
14.03
9.94
5.68
1.17
-3.57
-8.39
-13.03
-17.30
-21.10
-24.61
-28.20
-32.36
-37.47
-43.56
-50.16
-56.26
-60.51
-61.57
-58.50
-51.16
-40.27
-27.22
-13.72
-1.30
9.04
16.97
22.67
26.57
29.06
30.39
30.74
30.32
29.44
28.49
27.91
27.91
28.48
29.35
30.12
30.37
29.85
28.52
26.53
24.14
21.53
18.74
15.63
11.96
7.59
2.58
-2.74
-7.79
-12.11
-15.44
-17.94
-20.06
-22.45
-25.67
-30.03
-35.43
-41.39
-47.07
-51.42
-53.44
-52.33
-47.76
-39.99
-29.81
-18.44
-7.20
2.81
10.91
16.89
20.89
23.19
24.03
23.64
22.26
20.20
17.91
15.85
14.36
13.49
13.05
12.70
12.21
11.51
10.74
10.06
9.53
8.98
8.10
6.54
4.06
0.66
-3.43
-7.83
-12.15
-16.14
-19.79
-23.31
-27.08
-31.50
-36.84
-43.07
-49.68
-55.76
-60.11
-61.54
-59.25
-53.09
-43.65
-32.21
-20.25
-9.09
0.43
8.07
13.96
18.40
21.59
23.60
24.48
24.30
23.37
22.13
21.07
20.47
20.32
20.34
20.09
19.31
17.95
16.23
14.40
12.56
10.54
7.92
4.29
-0.55
-6.37
-12.68
-18.87
-24.49
-29.41
-33.80
-38.07
-42.66
-47.95
-54.08
-60.87
-67.70
-73.54
-77.11
-77.16
-72.89
-64.25
-52.02
-37.66
-22.84
-8.99
3.01
12.89
20.87
27.32
32.52
36.63
39.65
41.64
42.74
43.27
43.54
43.84
44.19
44.39
44.09
42.99
41.01
38.38
35.55
32.95
30.73
28.75
26.54
23.63
19.75
14.89
9.32
3.44
-2.38
-7.98
-13.30
-18.38
-23.39
-28.56
-34.15
-40.37
-47.21
-54.23
-60.56
-64.95
-66.13
-63.22
-56.05
-45.31
-32.27
-18.52
-5.42
6.14
15.86
23.87
30.50
36.07
40.75
44.56
47.49
49.54
50.76
51.25
51.17
50.65
49.86
48.88
47.73
46.43
44.90
43.10
40.97
38.45
35.51
32.11
28.27
24.01
19.43
14.64
9.78
4.93
0.10
-4.75
-9.65
-14.57
-19.42
-24.10
-28.55
-32.86
-37.30
-42.26
-48.02
-54.51
-61.13
-66.79
-70.12
-69.86
-65.33
-56.59
-44.53
-30.54
-16.14
-2.59
9.33
19.40
27.71
34.53
40.10
44.50
47.73
49.79
50.79
51.05
50.96
50.89
51.04
51.37
51.63
51.54
50.94
49.84
48.38
46.73
44.88
42.63
39.70
35.86
31.16
25.94
20.79
16.20
12.45
9.41
6.64
3.62
-0.09
-4.56
-9.67
-15.02
-20.29
-25.22
-29.76
-34.02
-38.26
-42.77
-47.83
-53.63
-59.99
-66.31
-71.50
-74.20
-73.17
-67.69
-57.90
-44.80
-29.99
-15.23
-1.94
9.05
17.57
23.87
28.41
31.63
33.82
35.19
35.85
35.98
35.78
35.51
35.37
35.49
35.87
36.37
36.83
37.05
36.83
35.98
34.39
31.97
28.79
24.97
20.72
16.27
11.75
7.24
2.68
-1.95
-6.70
-11.49
-16.27
-20.89
-25.24
-29.30
-33.07
-36.74
-40.58
-44.88
-49.81
-55.25
-60.56
-64.68
-66.31
-64.37
-58.37
-48.67
-36.36
-22.99
-10.03
1.51
11.17
18.96
25.10
29.78
33.06
34.97
35.61
35.25
34.30
33.25
32.46
32.08
32.07
32.20
32.29
32.20
31.95
31.60
31.14
30.47
29.39
27.68
25.17
21.90
18.12
14.14
10.18
6.31
2.35
-2.01
-6.99
-12.58
-18.45
-24.14
-29.24
-33.61
-37.55
-41.70
-46.81
-53.56
-62.21
-72.43
-83.26
-93.13
-100.05
-102.01
-97.53
-86.07
-68.32
-46.14
-22.17
0.73
20.23
34.89
44.35
49.17
50.46
49.54
47.54
45.35
43.55
42.52
42.43
43.25
44.75
46.57
48.26
49.43
49.92
49.81
49.34
48.77
48.20
47.41
45.99
43.46
39.47
34.09
27.69
20.82
13.99
7.44
1.18
-4.96
-11.08
-17.09
-22.63
-27.23
-30.51
-32.36
-33.09
-33.39
-34.18
-36.42
-40.73
-47.15
-54.98
-62.79
-68.71
-70.94
-68.20
-60.19
-47.64
-32.17
-15.71
-0.11
13.36
24.10
32.10
37.75
41.64
44.32
46.31
47.91
49.31
50.53
51.45
51.84
51.46
50.16
47.91
44.92
41.63
38.48
35.87
33.90
32.40
31.02
29.37
27.17
24.34
20.98
17.24
13.28
9.18
4.97
0.63
-3.87
-8.53
-13.23
-17.77
-21.87
-25.28
-27.97
-30.21
-32.61
-35.85
-40.43
-46.34
-52.98
-59.20
-63.63
-65.03
-62.63
-56.32
-46.68
-34.79
-22.05
-9.82
0.85
9.40
15.69
19.93
22.47
23.66
23.79
23.15
22.00
20.72
19.62
18.93
18.70
18.78
18.89
18.74
18.12
16.92
15.19
12.99
10.48
7.77
4.95
2.06
-1.01
-4.47
-8.59
-13.56
-19.30
-25.47
-31.51
-36.90
-41.34
-44.86
-47.78
-50.51
-53.31
-56.15
-58.75
-60.56
-61.04
-59.68
-56.08
-50.06
-41.73
-31.50
-20.04
-8.22
3.10
13.24
21.80
28.70
34.08
38.16
41.16
43.25
44.51
45.01
44.81
44.00
42.74
41.19
39.58
38.08
36.79
35.70
34.75
33.76
32.59
31.08
29.11
26.63
23.62
20.10
16.11
11.76
7.11
2.28
-2.67
-7.63
-12.52
-17.27
-21.87
-26.42
-31.07
-36.04
-41.47
-47.39
-53.59
-59.54
-64.42
-67.22
-66.98
-63.09
-55.58
-45.07
-32.70
-19.85
-7.71
2.90
11.66
18.53
23.67
27.25
29.42
30.36
30.32
29.63
28.61
27.52
26.46
25.41
24.36
23.34
22.41
21.61
20.86
19.91
18.51
16.44
13.74
10.62
7.42
4.37
1.47
-1.48
-4.81
-8.73
-13.26
-18.15
-23.04
-27.59
-31.54
-34.77
-37.31
-39.31
-41.03
-42.88
-45.19
-48.09
-51.17
-53.48
-53.65
-50.36
-42.89
-31.40
-16.98
-1.31
13.89
27.30
38.20
46.37
52.02
55.40
56.81
56.51
54.85
52.26
49.26
46.34
43.78
41.60
39.55
37.16
33.97
29.66
24.23
17.97
11.30
4.66
-1.65
-7.61
-13.36
-19.13
-25.04
-30.98
-36.63
-41.52
-45.26
-47.63
-48.72
-48.92
-48.77
-48.93
-50.02
-52.51
-56.53
-61.72
-67.08
-71.22
-72.57
-69.93
-62.97
-52.39
-39.84
-27.43
-17.15
-10.35
-7.42
-7.91
-10.74
-14.69
-18.62
-21.80
-23.85
-24.85
-25.25
-25.77
-27.23
-30.44
-35.92
-43.77
-53.70
-65.02
-76.98
-88.92
-100.58
-111.97
-123.35
-134.94
-146.64
-157.88
-167.62
-174.47
-176.90
-173.59
-163.72
-147.31
-125.34
-99.61
-72.53
-46.51
-23.44
-4.29
11.06
23.70
35.27
47.64
62.67
81.99
106.73
136.93
171.03
205.74
236.52
258.82
269.52
267.91
255.69
236.21
213.22
189.84
168.18
149.44
134.31
123.07
115.52
110.73
107.26
103.42
97.90
90.16
80.42
69.37
57.82
46.35
35.08
23.84
12.15
-0.41
-13.98
-27.95
-40.38
-48.14
-47.60
-36.31
-14.59
13.67
41.87
63.08
72.60
69.89
58.24
42.91
28.68
18.25
12.18
9.92
11.13
15.92
24.48
35.97
48.20
58.20
63.42
62.84
57.40
49.53
41.90
36.48
33.81
33.23
33.49
33.35
32.09
29.59
26.15
22.13
17.81
13.29
8.63
3.90
-0.73
-5.04
-8.83
-12.00
-14.65
-17.02
-19.43
-22.13
-25.18
-28.43
-31.59
-34.39
-36.75
-38.86
-41.13
-44.09
-48.11
-53.27
-59.25
-65.34
-70.53
-73.75
-74.12
-71.20
-65.05
-56.26
-45.68
-34.26
-22.81
-12.01
-2.34
5.81
12.09
16.30
18.48
18.95
18.22
16.89
15.50
14.33
13.50
12.92
12.45
11.97
11.40
10.72
9.85
8.77
7.44
5.82
3.85
1.43
-1.60
-5.37
-9.81
-14.65
-19.41
-23.58
-26.80
-29.06
-30.72
-32.38
-34.66
-37.92
-42.25
-47.40
-52.91
-58.05
-61.97
-63.77
-62.62
-58.10
-50.31
-39.91
-27.99
-15.74
-4.17
6.08
14.70
21.64
27.00
30.96
33.77
35.72
37.05
37.88
38.20
38.00
37.27
36.13
34.76
33.24
31.48
29.30
26.51
23.12
19.30
15.27
11.03
6.33
0.81
-5.83
-13.58
-22.24
-31.50
-41.22
-51.46
-62.25
-73.16
-83.31
-91.44
-96.39
-97.76
-96.00
-92.27
-87.78
-83.21
-78.39
-72.47
-64.32
-53.00
-38.18
-20.27
-0.36
19.97
38.81
54.36
65.22
70.62
70.68
66.23
58.60
49.12
38.82
28.18
17.22
5.68
-6.68
-19.76
-33.11
-45.96
-57.55
-67.39
-75.29
-81.21
-85.05
-86.65
-85.90
-83.01
-78.59
-73.37
-67.93
-62.37
-56.30
-49.23
-41.00
-32.10
-23.46
-15.99
-10.15
-5.82
-2.52
0.06
1.94
2.82
2.45
0.92
-1.38
-4.05
-7.17
-11.49
-18.08
-27.66
-39.92
-53.26
-65.21
-73.39
-76.26
-73.64
-66.49
-56.29
-44.40
-31.65
-18.31
-4.36
10.13
24.77
38.90
51.68
62.38
70.64
76.52
80.49
83.10
84.63
85.05
84.10
81.65
78.12
74.48
72.04
71.94
74.61
79.64
86.04
92.64
98.53
103.21
106.60
108.72
109.74
109.85
109.23
108.06
106.38
104.00
100.57
95.75
89.31
81.37
72.40
63.12
54.22
46.21
39.28
33.25
27.71
22.20
16.39
10.33
4.37
-0.83
-4.56
-6.21
-5.40
-2.16
3.02
9.06
14.52
17.90
18.20
15.33
10.16
4.24
-0.91
-4.42
-6.27
-7.24
-8.34
-10.29
-13.22
-16.85
-20.80
-24.87
-29.27
-34.32
-40.14
-46.39
-52.29
-57.00
-60.22
-62.42
-64.75
-68.44
-74.04
-81.13
-88.47
-94.73
-99.27
-102.42
-105.22
-108.60
-112.82
-117.24
-120.76
-122.47
-121.92
-119.15
-114.24
-107.05
-97.17
-84.42
-69.16
-52.55
-36.31
-22.12
-11.08
-3.31
1.91
5.81
9.58
14.02
19.35
25.33
31.68
38.38
45.69
53.97
63.39
73.66
84.16
94.15
103.13
111.00
118.03
124.37
129.85
134.06
136.83
138.49
139.86
141.72
144.27
147.33
150.07
151.51
151.19
149.53
147.26
144.61
140.64
133.54
122.06
105.26
82.99
56.30
27.55
-0.14
-23.71
-40.86
-50.33
-50.91
-43.47
-31.01
-17.75
-7.27
-1.28
0.91
2.46
8.22
24.26
52.94
90.80
129.08
157.44
167.95
157.80
130.52
85.04
30.03
-20.27
-53.63
-66.99
-64.87
-53.52
-37.22
-17.47
4.98
30.23
56.52
80.74
99.67
112.48
121.78
129.39
136.51
143.03
148.84
152.51
152.24
146.21
134.70
119.89
104.29
89.87
76.94
64.71
50.08
34.38
16.91
-2.44
-22.87
-43.28
-62.43
-79.46
-93.50
-104.10
-111.05
-114.87
-115.67
-113.18
-107.21
-97.82
-85.67
-71.81
-57.62
-44.49
-34.16
-27.62
-24.93
-25.51
-28.34
-32.62
-37.92
-44.25
-51.85
-61.27
-72.58
-85.14
-97.87
-109.49
-119.39
-127.85
-135.96
-145.24
-157.12
-172.20
-189.92
-209.05
-228.02
-246.32
-264.39
-283.67
-306.27
-334.58
-371.02
-417.39
-473.87
-537.28
-601.60
-657.45
-694.92
-706.88
-691.55
-652.95
-599.16
-538.92
-477.94
-420.07
-365.59
-313.88
-264.88
-219.33
-177.98
-140.71
-106.16
-71.10
-35.20
2.09
40.17
77.56
112.92
145.67
176.08
204.97
234.60
263.08
289.10
310.42
324.42
329.03
323.14
306.96
271.30
231.19
187.00
140.71
93.96
48.06
4.27
-36.08
-71.69
-101.30
-122.29
-136.00
-142.55
-142.60
-137.12
-127.27
-114.17
-98.87
-82.27
-63.92
-45.88
-28.75
-12.98
1.13
13.41
23.82
32.45
39.38
45.50
49.98
52.85
54.13
53.88
52.25
49.50
45.95
42.03
38.56
35.54
33.30
32.05
31.87
32.68
34.40
36.85
39.87
43.40
47.10
50.70
53.98
56.73
58.82
60.30
61.31
62.10
62.96
64.09
65.48
67.02
68.46
69.56
70.27
70.74
71.33
72.52
74.71
78.07
82.53
87.84
93.78
100.45
108.27
117.97
130.30
145.66
163.81
184.00
205.05
225.88
245.86
264.98
283.90
303.65
325.28
349.47
376.06
403.78
430.46
453.40
469.92
477.86
475.89
463.34
440.08
406.45
363.19
311.28
251.85
186.50
117.90
50.74
-8.04
-50.17
-68.31
-58.95
-24.31
27.81
86.57
141.63
186.23
218.26
239.14
251.35
256.68
255.14
245.49
226.37
197.03
157.26
106.82
45.19
-27.88
-110.96
-199.29
-284.57
-356.45
-405.82
-427.79
-423.27
-397.92
-359.22
-313.60
-265.05
-215.89
-168.52
-126.49
-94.01
-74.12
-67.03
-69.72
-77.48
-86.19
-93.68
-99.71
-104.70
-108.14
-107.90
-101.13
-85.85
-62.47
-34.23
-6.35
15.73
28.19
30.00
23.16
11.77
0.50
-7.03
-9.28
-6.88
-1.83
3.79
8.81
13.38
18.51
25.08
33.15
42.07
51.02
59.95
70.07
83.58
102.80
129.03
161.81
199.01
237.46
273.92
305.63
330.47
346.77
353.04
348.15
331.81
305.22
271.15
233.59
196.67
163.82
137.10
117.02
102.98
93.62
87.30
82.24
76.62
68.72
57.15
41.02
20.04
-5.49
-34.96
-67.82
-103.86
-142.98
-184.85
-228.34
-271.35
-311.06
-344.45
-369.00
-383.21
-386.65
-379.85
-364.08
-341.25
-313.82
-284.61
-256.40
-231.26
-210.17
-192.81
-177.93
-163.99
-149.71
-134.46
-118.25
-101.52
-84.81
-68.60
-53.21
-38.87
-25.96
-15.02
-6.82
-2.21
-1.71
-5.30
-12.30
-21.59
-31.91
-42.17
-51.58
-59.57
-65.67
-69.45
-70.63
-69.20
-65.40
-59.49
-51.49
-41.11
-27.88
-11.67
6.98
26.67
45.46
61.42
73.12
80.04
82.72
82.58
81.63
82.02
85.47
92.77
103.45
115.84
127.75
137.26
143.49
146.63
147.53
146.93
144.88
140.67
133.31
122.26
107.89
91.46
74.53
58.47
44.09
31.68
21.35
13.05
6.54
1.16
-4.09
-10.30
-18.15
-27.68
-38.32
-49.26
-59.75
-69.34
-77.86
-85.12
-90.95
-95.19
-97.91
-99.43
-100.14
-100.27
-99.67
-97.91
-94.50
-89.23
-82.36
-74.52
-66.54
-59.20
-53.04
-48.18
-44.41
-41.18
-37.82
-33.78
-28.77
-22.91
-16.69
-10.79
-5.83
-2.27
-0.21
0.48
0.05
-1.20
-3.05
-5.35
-8.03
-10.98
-14.15
-17.54
-21.25
-25.38
-29.91
-34.47
-38.30
-40.24
-39.11
-34.18
-25.51
-14.01
-1.23
11.24
22.13
30.89
37.53
42.42
45.88
48.04
48.86
48.37
46.80
44.56
42.13
39.78
37.54
35.20
32.44
29.14
25.40
21.60
18.14
15.28
12.96
10.80
8.28
4.99
0.74
-4.33
-9.80
-15.21
-20.19
-24.63
-28.65
-32.55
-36.69
-41.37
-46.67
-52.31
-57.64
-61.64
-63.22
-61.56
-56.29
-47.78
-36.93
-25.02
-13.28
-2.66
6.26
13.31
18.46
21.83
23.56
23.89
23.13
21.69
19.98
18.32
16.87
15.62
14.50
13.46
12.47
11.53
10.59
9.60
8.40
6.88
4.95
2.61
-0.19
-3.46
-7.16
-11.20
-15.39
-19.47
-23.28
-26.80
-30.18
-33.61
-37.19
-40.66
-43.42
-44.63
-43.53
-39.70
-33.23
-24.72
-15.04
-5.14
4.21
12.48
19.35
24.68
28.40
30.47
31.00
30.22
28.49
26.25
23.93
21.83
20.03
18.51
17.16
15.85
14.52
13.07
11.39
9.31
6.64
3.27
-0.75
-5.21
-9.84
-14.31
-18.45
-22.25
-25.87
-29.67
-33.99
-39.04
-44.75
-50.63
-55.81
-59.28
-60.08
-57.60
-51.77
-43.07
-32.46
-21.15
-10.28
-0.68
7.20
13.32
17.88
21.11
23.22
24.28
24.35
23.58
22.21
20.57
18.94
17.50
16.23
15.05
13.83
12.54
11.17
9.74
8.15
6.22
3.75
0.58
-3.24
-7.53
-12.00
-16.39
-20.59
-24.63
-28.64
-32.78
-37.23
-42.04
-47.15
-52.15
-56.38
-58.87
-58.69
-55.14
-48.14
-38.22
-26.42
-13.95
-1.91
8.94
18.19
25.69
31.44
35.53
38.06
39.21
39.28
38.58
37.43
36.03
34.47
32.70
30.64
28.27
25.68
23.06
20.63
18.52
16.72
15.00
13.00
10.37
6.91
2.64
-2.22
-7.33
-12.34
-16.97
-21.11
-24.78
-28.17
-31.56
-35.30
-39.64
-44.49
-49.29
-53.00
-54.41
-52.56
-47.10
-38.47
-27.71
-16.13
-4.84
5.43
14.40
22.04
28.39
33.42
37.03
39.20
39.99
39.63
38.42
36.71
34.78
32.86
31.05
29.35
27.71
26.04
24.33
22.58
20.86
19.19
17.49
15.53
12.95
9.49
5.06
-0.14
-5.67
-10.98
-15.62
-19.41
-22.48
-25.21
-28.05
-31.43
-35.57
-40.39
-45.51
-50.23
-53.62
-54.72
-52.78
-47.48
-39.13
-28.54
-16.91
-5.44
4.88
13.53
20.38
25.58
29.40
32.05
33.65
34.33
34.25
33.63
32.78
31.97
31.34
30.87
30.38
29.66
28.59
27.20
25.66
24.15
22.81
21.59
20.32
18.69
16.42
13.37
9.56
5.26
0.78
-3.51
-7.43
-10.94
-14.13
-17.14
-20.08
-23.05
-26.19
-29.67
-33.66
-38.13
-42.64
-46.35
-48.19
-47.24
-43.09
-36.04
-26.92
-16.87
-6.94
2.12
9.85
16.07
20.76
23.98
25.93
26.83
27.01
26.73
26.23
25.66
25.15
24.78
24.60
24.57
24.56
24.40
23.95
23.15
22.05
20.77
19.35
17.71
15.68
13.00
9.56
5.45
0.98
-3.52
-7.75
-11.59
-15.04
-18.16
-20.99
-23.61
-26.19
-29.02
-32.37
-36.24
-40.19
-43.37
-44.64
-43.18
-38.65
-31.39
-22.33
-12.60
-3.32
4.72
11.09
15.66
18.50
19.83
19.86
18.87
17.16
15.14
13.23
11.77
10.98
10.81
11.05
11.44
11.81
12.18
12.65
13.26
13.88
14.17
13.74
12.29
9.77
6.37
2.51
-1.39
-4.99
-8.14
-10.90
-13.50
-16.26
-19.46
-23.26
-27.46
-31.59
-34.86
-36.42
-35.58
-32.03
-25.96
-18.05
-9.25
-0.53
7.24
13.49
17.91
20.44
21.18
20.45
18.64
16.23
13.75
11.58
10.06
9.30
9.23
9.63
10.20
10.66
10.82
10.58
9.89
8.72
6.98
4.58
1.49
-2.25
-6.44
-10.82
-15.13
-19.19
-22.92
-26.40
-29.82
-33.41
-37.37
-41.72
-46.17
-50.11
-52.64
-52.87
-50.15
-44.35
-35.90
-25.72
-14.90
-4.47
4.86
12.70
18.97
23.75
27.14
29.22
30.07
29.91
29.08
28.04
27.21
26.88
27.01
27.34
27.46
27.04
25.93
24.23
22.19
20.09
18.10
16.28
14.46
12.39
9.82
6.54
2.57
-1.94
-6.64
-11.19
-15.28
-18.84
-22.04
-25.25
-28.93
-33.32
-38.33
-43.41
-47.65
-50.00
-49.55
-45.82
-38.85
-29.23
-17.95
-6.25
4.59
13.53
19.97
23.87
25.72
26.26
26.27
26.25
26.36
26.55
26.66
26.65
26.53
26.33
25.98
25.38
24.46
23.24
21.85
20.47
19.25
18.17
17.09
15.81
14.06
11.66
8.57
4.88
0.84
-3.19
-6.95
-10.22
-13.04
-15.57
-18.11
-20.96
-24.34
-28.41
-33.15
-38.33
-43.48
-47.82
-50.45
-50.51
-47.43
-41.17
-32.26
-21.66
-10.57
-0.11
8.92
16.14
21.59
25.55
28.41
30.46
31.85
32.65
32.90
32.70
32.22
31.71
31.30
31.05
30.87
30.64
30.26
29.73
29.05
28.23
27.18
25.75
23.81
21.32
18.33
15.02
11.60
8.24
5.04
1.97
-1.08
-4.21
-7.48
-10.88
-14.29
-17.57
-20.59
-23.30
-25.87
-28.61
-31.87
-35.87
-40.50
-45.18
-49.01
-50.90
-49.96
-45.80
-38.64
-29.28
-18.81
-8.33
1.32
9.64
16.43
21.67
25.49
28.06
29.59
30.35
30.63
30.70
30.73
30.83
30.98
31.14
31.21
31.17
30.99
30.69
30.26
29.65
28.76
27.47
25.66
23.30
20.42
17.19
13.85
10.61
7.59
4.77
2.04
-0.77
-3.78
-7.01
-10.36
-13.69
-16.83
-19.66
-22.15
-24.37
-26.52
-28.89
-31.80
-35.37
-39.40
-43.28
-46.03
-46.60
-44.19
-38.57
-30.17
-20.00
-9.30
0.70
9.21
15.91
20.87
24.36
26.64
27.92
28.29
27.88
26.88
25.60
24.43
23.70
23.53
23.78
24.13
24.19
23.69
22.59
21.08
19.42
17.84
16.33
14.74
12.79
10.25
7.11
3.57
-0.12
-3.68
-7.02
-10.09
-12.89
-15.42
-17.66
-19.66
-21.57
-23.71
-26.39
-29.78
-33.65
-37.39
-40.01
-40.52
-38.12
-32.61
-24.44
-14.61
-4.45
4.85
12.42
17.98
21.70
24.02
25.32
25.89
25.85
25.32
24.54
23.79
23.25
22.91
22.55
21.86
20.68
19.11
17.44
15.99
14.90
14.06
13.19
12.00
10.36
8.32
6.01
3.57
1.06
-1.53
-4.25
-7.09
-9.97
-12.78
-15.39
-17.70
-19.73
-21.54
-23.35
-25.44
-28.13
-31.57
-35.62
-39.76
-43.09
-44.62
-43.53
-39.48
-32.75
-24.15
-14.72
-5.50
2.74
9.56
14.84
18.68
21.30
23.03
24.14
24.84
25.23
25.33
25.14
24.69
24.09
23.46
22.91
22.50
22.18
21.85
21.41
20.74
19.75
18.35
16.49
14.17
11.45
8.48
5.43
2.45
-0.32
-2.87
-5.22
-7.41
-9.49
-11.51
-13.50
-15.47
-17.49
-19.66
-22.13
-25.04
-28.46
-32.24
-35.97
-38.94
-40.30
-39.28
-35.43
-28.86
-20.19
-10.48
-0.87
7.63
14.42
19.33
22.57
24.49
25.46
25.77
25.62
25.23
24.79
24.46
24.36
24.50
24.72
24.87
24.80
24.48
23.99
23.41
22.79
22.05
21.01
19.46
17.27
14.48
11.28
7.99
4.88
2.08
-0.46
-2.92
-5.49
-8.23
-11.01
-13.60
-15.81
-17.63
-19.26
-21.09
-23.50
-26.70
-30.52
-34.43
-37.66
-39.32
-38.70
-35.44
-29.64
-21.77
-12.64
-3.23
5.50
12.80
18.27
21.88
23.90
24.76
24.87
24.55
24.03
23.45
22.94
22.58
22.39
22.26
22.06
21.64
20.97
20.15
19.33
18.58
17.84
16.95
15.70
14.01
11.94
9.63
7.26
4.92
2.56
0.09
-2.60
-5.51
-8.54
-11.50
-14.24
-16.63
-18.69
-20.58
-22.55
-24.88
-27.72
-31.05
-34.48
-37.39
-38.94
-38.36
-35.12
-29.19
-21.11
-11.82
-2.50
5.85
12.62
17.58
20.84
22.65
23.26
22.91
21.84
20.38
18.95
17.94
17.58
17.86
18.54
19.22
19.56
19.36
18.63
17.54
16.34
15.21
14.11
12.87
11.19
8.83
5.75
2.06
-1.95
-5.93
-9.58
-12.73
-15.36
-17.63
-19.75
-22.02
-24.70
-27.96
-31.78
-35.86
-39.56
-42.02
-42.38
-40.00
-34.77
-27.19
-18.23
-9.08
-0.75
6.11
11.35
15.09
17.58
19.02
19.53
19.18
18.15
16.75
15.40
14.53
14.41
15.09
16.31
17.68
18.78
19.31
19.15
18.37
17.14
15.59
13.76
11.57
8.89
5.65
1.85
-2.34
-6.67
-10.85
-14.63
-17.86
-20.56
-22.89
-25.12
-27.66
-30.84
-34.88
-39.62
-44.53
-48.65
-50.90
-50.27
-46.19
-38.76
-28.71
-17.27
-5.85
4.36
12.61
18.68
22.78
25.34
26.79
27.42
27.37
26.76
25.75
24.64
23.79
23.40
23.42
23.59
23.51
22.89
21.64
19.95
18.12
16.44
14.98
13.57
11.87
9.51
6.24
2.14
-2.43
-6.98
-11.02
-14.36
-17.05
-19.37
-21.71
-24.40
-27.64
-31.44
-35.59
-39.63
-42.85
-44.35
-43.33
-39.31
-32.37
-23.18
-12.78
-2.33
7.23
15.27
21.59
26.22
29.37
31.27
32.14
32.25
31.82
31.14
30.46
29.97
29.68
29.47
29.08
28.25
26.84
24.89
22.66
20.45
18.46
16.68
14.83
12.52
9.41
5.43
0.81
-3.96
-8.34
-11.97
-14.76
-16.92
-18.80
-20.76
-23.10
-25.99
-29.53
-33.66
-38.07
-42.09
-44.76
-45.04
-42.19
-36.03
-27.12
-16.59
-5.75
4.25
12.70
19.38
24.31
27.66
29.57
30.15
29.64
28.41
26.90
25.58
24.72
24.32
24.10
23.72
22.89
21.57
19.96
18.38
17.02
15.88
14.70
13.13
10.85
7.76
4.02
-0.06
-4.11
-7.84
-11.14
-14.11
-17.02
-20.22
-23.98
-28.38
-33.09
-37.42
-40.41
-41.12
-38.95
-33.83
-26.27
-17.20
-7.72
1.22
8.93
15.05
19.48
22.27
23.60
23.66
22.73
21.14
19.28
17.53
16.21
15.46
15.24
15.35
15.53
15.52
15.16
14.41
13.26
11.66
9.57
6.96
3.83
0.24
-3.61
-7.53
-11.29
-14.68
-17.57
-19.99
-22.14
-24.35
-27.05
-30.51
-34.75
-39.38
-43.60
-46.38
-46.77
-44.14
-38.44
-30.18
-20.30
-9.87
0.16
9.13
16.70
22.79
27.45
30.81
32.99
34.12
34.32
33.76
32.64
31.25
29.90
28.83
28.10
27.58
26.97
25.97
24.43
22.44
20.23
18.04
15.90
13.65
10.98
7.68
3.75
-0.55
-4.79
-8.59
-11.82
-14.60
-17.27
-20.20
-23.61
-27.53
-31.70
-35.67
-38.85
-40.58
-40.25
-37.45
-32.10
-24.54
-15.54
-6.03
3.06
11.08
17.74
23.08
27.29
30.61
33.15
34.92
35.87
36.03
35.56
34.71
33.77
32.90
32.11
31.23
30.00
28.27
26.07
23.59
21.08
18.74
16.57
14.37
11.90
8.90
5.31
1.28
-2.91
-6.94
-10.51
-13.52
-16.02
-18.24
-20.55
-23.32
-26.85
-31.18
-36.08
-41.01
-45.17
-47.63
-47.58
-44.50
-38.42
-29.90
-19.95
-9.77
-0.44
7.35
13.35
17.74
20.84
22.94
24.23
24.75
24.51
23.63
22.34
20.91
19.61
18.50
17.59
16.78
16.02
15.33
14.79
14.52
14.48
14.46
14.12
13.03
10.89
7.63
3.55
-0.84
-5.02
-8.69
-11.85
-14.84
-18.10
-22.00
-26.64
-31.81
-36.98
-41.39
-44.23
-44.69
-42.30
-36.96
-29.10
-19.60
-9.57
-0.09
8.00
14.34
18.87
21.79
23.35
23.74
23.14
21.77
19.91
17.97
16.30
15.17
14.60
14.40
14.33
14.13
13.73
13.18
12.52
11.72
10.59
8.86
6.30
2.87
-1.22
-5.59
-9.79
-13.52
-16.60
-19.08
-21.14
-23.09
-25.30
-28.09
-31.68
-35.98
-40.51
-44.43
-46.75
-46.60
-43.51
-37.54
-29.31
-19.78
-10.06
-1.08
6.57
12.71
17.52
21.32
24.45
27.04
29.02
30.22
30.53
30.01
28.97
27.76
26.73
25.99
25.48
24.95
24.19
23.08
21.63
19.91
17.99
15.88
13.50
10.76
7.59
4.04
0.26
-3.55
-7.17
-10.46
-13.38
-16.01
-18.49
-21.01
-23.76
-26.89
-30.46
-34.39
-38.32
-41.65
-43.58
-43.27
-40.16
-34.17
-25.79
-15.97
-5.86
3.45
11.28
17.37
21.82
24.96
27.12
28.59
29.53
30.00
30.05
29.75
29.24
28.66
28.11
27.65
27.25
26.81
26.20
25.31
24.06
22.45
20.51
18.26
15.77
13.08
10.23
7.25
4.16
0.98
-2.28
-5.60
-8.95
-12.26
-15.39
-18.26
-20.83
-23.24
-25.82
-28.93
-32.81
-37.36
-42.05
-45.91
-47.83
-46.87
-42.58
-35.22
-25.68
-15.24
-5.20
3.49
10.30
15.21
18.49
20.49
21.54
21.86
21.64
21.10
20.49
20.06
19.98
20.24
20.64
20.91
20.76
20.07
18.88
17.35
15.68
13.98
12.23
10.31
8.06
5.40
2.33
-1.00
-4.43
-7.79
-10.98
-14.01
-17.00
-20.11
-23.54
-27.39
-31.61
-35.93
-39.80
-42.50
-43.29
-41.62
-37.35
-30.81
-22.77
-14.18
-5.94
1.33
7.35
12.10
15.72
18.31
19.88
20.41
19.95
18.71
17.07
15.49
14.33
13.74
13.63
13.75
13.80
13.63
13.20
12.55
11.69
10.54
8.97
6.83
4.08
0.84
-2.73
-6.42
-10.05
-13.51
-16.74
-19.74
-22.61
-25.58
-28.92
-32.92
-37.59
-42.62
-47.30
-50.60
-51.51
-49.32
-43.93
-35.87
-26.17
-16.05
-6.58
1.66
8.50
14.17
18.88
22.76
25.69
27.52
28.19
27.89
27.03
26.07
25.33
24.88
24.58
24.23
23.66
22.89
21.97
21.02
20.00
18.79
17.16
14.94
12.01
8.42
4.30
-0.12
-4.60
-8.88
-12.71
-15.97
-18.66
-21.05
-23.52
-26.50
-30.21
-34.57
-39.07
-42.88
-45.06
-44.78
-41.60
-35.53
-27.10
-17.20
-6.94
2.66
10.88
17.40
22.31
25.90
28.48
30.22
31.22
31.53
31.34
30.94
30.68
30.79
31.26
31.82
32.10
31.74
30.56
28.62
26.14
23.48
20.90
18.50
16.20
13.78
11.00
7.74
4.05
0.16
-3.67
-7.23
-10.46
-13.46
-16.41
-19.44
-22.68
-26.26
-30.25
-34.67
-39.30
-43.64
-46.88
-48.07
-46.39
-41.49
-33.60
-23.60
-12.76
-2.40
6.48
13.37
18.23
21.40
23.31
24.31
24.61
24.34
23.64
22.71
21.78
21.01
20.43
19.93
19.39
18.70
17.86
16.93
15.95
14.92
13.68
12.05
9.87
7.06
3.71
0.05
-3.61
-7.01
-10.02
-12.74
-15.47
-18.61
-22.54
-27.35
-32.77
-38.07
-42.23
-44.17
-43.14
-38.92
-31.98
-23.23
-13.84
-4.83
3.04
9.42
14.25
17.58
19.54
20.28
19.99
18.97
17.53
16.05
14.80
13.97
13.57
13.49
13.54
13.58
13.52
13.34
13.02
12.45
11.42
9.71
7.13
3.63
-0.68
-5.53
-10.55
-15.36
-19.70
-23.43
-26.69
-29.82
-33.27
-37.38
-42.14
-47.04
-51.11
-53.17
-52.25
-47.85
-40.16
-30.05
-18.70
-7.33
3.11
12.05
19.27
24.81
28.80
31.44
32.88
33.31
32.97
32.12
31.05
30.02
29.18
28.51
27.91
27.22
26.35
25.33
24.24
23.14
21.94
20.38
18.17
15.11
11.16
6.53
1.54
-3.44
-8.13
-12.39
-16.22
-19.73
-23.08
-26.55
-30.44
-34.98
-40.16
-45.54
-50.27
-53.20
-53.27
-49.85
-43.02
-33.57
-22.72
-11.75
-1.57
7.32
14.89
21.26
26.55
30.78
33.93
35.96
36.92
37.01
36.48
35.67
34.80
34.05
33.43
32.90
32.35
31.69
30.84
29.76
28.43
26.82
24.93
22.74
20.28
17.54
14.50
11.14
7.43
3.39
-0.92
-5.35
-9.73
-13.91
-17.77
-21.33
-24.79
-28.46
-32.67
-37.61
-43.08
-48.42
-52.59
-54.37
-52.84
-47.62
-39.09
-28.28
-16.58
-5.31
4.53
12.51
18.66
23.28
26.66
29.00
30.37
30.80
30.41
29.46
28.32
27.33
26.68
26.37
26.24
26.06
25.66
24.92
23.84
22.52
21.01
19.37
17.57
15.50
13.00
9.93
6.25
2.10
-2.19
-6.27
-9.90
-13.02
-15.80
-18.50
-21.38
-24.66
-28.47
-32.88
-37.82
-42.95
-47.56
-50.64
-51.11
-48.17
-41.69
-32.30
-21.25
-9.95
0.40
9.07
15.90
21.07
24.91
27.65
29.39
30.18
30.16
29.58
28.80
28.15
27.78
27.72
27.80
27.82
27.58
26.91
25.72
23.97
21.71
19.02
16.07
12.93
9.61
6.04
2.10
-2.24
-6.87
-11.55
-16.01
-20.04
-23.62
-26.83
-29.89
-33.03
-36.51
-40.49
-44.97
-49.65
-53.86
-56.64
-56.98
-54.14
-47.98
-38.99
-28.21
-16.87
-6.04
3.62
11.86
18.73
24.36
28.88
32.31
34.68
36.09
36.74
36.89
36.77
36.51
36.13
35.61
34.89
34.03
33.10
32.16
31.20
30.09
28.60
26.54
23.81
20.44
16.62
12.61
8.62
4.72
0.89
-2.98
-6.96
-11.05
-15.17
-19.15
-22.86
-26.24
-29.32
-32.29
-35.43
-39.01
-43.20
-47.85
-52.38
-55.87
-57.19
-55.38
-49.97
-41.13
-29.72
-17.01
-4.37
7.07
16.57
23.90
29.23
32.96
35.53
37.25
38.30
38.75
38.68
38.23
37.58
36.94
36.36
35.79
35.11
34.21
33.09
31.84
30.52
29.12
27.51
25.45
22.78
19.48
15.74
11.84
8.07
4.61
1.41
-1.69
-4.89
-8.35
-12.08
-15.92
-19.68
-23.12
-26.15
-28.86
-31.55
-34.59
-38.36
-42.94
-47.98
-52.65
-55.78
-56.18
-53.06
-46.29
-36.53
-25.02
-13.22
-2.45
6.49
13.37
18.36
21.82
24.04
25.24
25.56
25.18
24.43
23.68
23.25
23.22
23.46
23.65
23.51
22.91
21.90
20.69
19.42
18.17
16.83
15.16
12.88
9.81
5.90
1.34
-3.50
-8.10
-12.06
-15.18
-17.60
-19.76
-22.20
-25.43
-29.64
-34.67
-39.94
-44.57
-47.54
-47.92
-45.12
-39.12
-30.48
-20.23
-9.59
0.35
8.86
15.57
20.45
23.59
25.18
25.46
24.74
23.44
22.00
20.85
20.18
20.01
20.08
20.07
19.70
18.82
17.46
15.79
13.98
12.12
10.15
7.89
5.16
1.82
-2.10
-6.42
-10.85
-15.07
-18.83
-22.01
-24.69
-27.12
-29.69
-32.83
-36.84
-41.79
-47.37
-52.91
-57.33
-59.41
-58.11
-52.93
-44.13
-32.75
-20.28
-8.21
2.33
10.92
17.67
23.02
27.37
30.93
33.62
35.27
35.77
35.23
33.95
32.43
31.14
30.35
30.10
30.14
30.12
29.69
28.65
26.99
24.88
22.50
19.95
17.21
14.13
10.56
6.40
1.73
-3.23
-8.20
-12.92
-17.22
-21.07
-24.53
-27.80
-31.12
-34.79
-39.07
-44.08
-49.64
-55.12
-59.52
-61.66
-60.47
-55.45
-46.74
-35.18
-22.04
-8.73
3.59
14.14
22.52
28.80
33.23
36.20
38.09
39.17
39.61
39.50
38.90
37.87
36.58
35.22
33.98
33.00
32.33
31.90
31.56
31.04
30.10
28.54
26.23
23.17
19.51
15.47
11.34
7.37
3.66
0.15
-3.35
-7.08
-11.16
-15.48
-19.82
-23.86
-27.42
-30.56
-33.59
-36.97
-41.05
-45.93
-51.19
-56.03
-59.31
-59.88
-56.98
-50.36
-40.47
-28.33
-15.26
-2.53
8.88
18.40
25.93
31.59
35.68
38.49
40.31
41.37
41.89
42.01
41.89
41.58
41.03
40.24
39.21
38.04
36.84
35.72
34.69
33.62
32.30
30.50
28.02
24.79
20.89
16.58
12.18
8.02
4.31
1.02
-2.06
-5.24
-8.82
-12.87
-17.23
-21.62
-25.71
-29.35
-32.58
-35.69
-39.08
-43.12
-47.94
-53.20
-58.13
-61.56
-62.27
-59.37
-52.64
-42.61
-30.45
-17.59
-5.34
5.43
14.30
21.29
26.57
30.35
32.80
33.99
34.10
33.34
32.09
30.78
29.78
29.29
29.28
29.54
29.76
29.70
29.25
28.37
27.09
25.42
23.32
20.76
17.77
14.39
10.69
6.72
2.48
-1.96
-6.49
-10.88
-14.86
-18.28
-21.15
-23.67
-26.25
-29.34
-33.24
-38.02
-43.44
-48.83
-53.30
-55.81
-55.44
-51.65
-44.41
-34.34
-22.51
-10.23
1.27
11.10
18.83
24.50
28.40
30.90
32.32
32.80
32.46
31.43
29.94
28.28
26.75
25.57
24.79
24.38
24.18
24.05
23.85
23.45
22.70
21.45
19.56
16.95
13.69
9.97
6.07
2.26
-1.31
-4.70
-8.14
-11.86
-15.94
-20.23
-24.40
-28.10
-31.13
-33.62
-35.92
-38.54
-41.97
-46.37
-51.48
-56.54
-60.40
-61.80
-59.79
-53.99
-44.74
-33.05
-20.24
-7.64
3.72
13.24
20.77
26.47
30.66
33.67
35.77
37.07
37.72
37.85
37.68
37.47
37.39
37.45
37.47
37.19
36.47
35.36
34.07
32.81
31.63
30.29
28.40
25.61
21.86
17.43
12.87
8.68
5.08
1.98
-1.00
-4.27
-8.09
-12.39
-16.94
-21.42
-25.57
-29.26
-32.54
-35.57
-38.66
-42.20
-46.48
-51.54
-56.94
-61.65
-64.34
-63.74
-59.10
-50.52
-38.97
-25.92
-12.92
-1.08
9.06
17.41
24.13
29.40
33.28
35.80
37.03
37.23
36.79
36.18
35.74
35.64
35.82
36.02
35.95
35.45
34.52
33.35
32.22
31.27
30.42
29.33
27.51
24.64
20.65
15.88
10.94
6.47
2.85
0.10
-2.10
-4.24
-6.70
-9.66
-13.07
-16.71
-20.29
-23.62
-26.57
-29.19
-31.71
-34.44
-37.76
-41.88
-46.64
-51.44
-55.26
-56.92
-55.49
-50.55
-42.37
-31.80
-20.05
-8.33
2.35
11.36
18.49
23.82
27.61
30.13
31.65
32.39
32.53
32.28
31.81
31.32
30.96
30.72
30.55
30.33
29.97
29.42
28.68
27.71
26.47
24.84
22.77
20.20
17.21
13.96
10.70
7.59
4.67
1.88
-1.00
-4.16
-7.67
-11.45
-15.32
-19.03
-22.46
-25.58
-28.52
-31.51
-34.89
-38.91
-43.66
-48.88
-53.82
-57.36
-58.24
-55.50
-48.85
-38.89
-26.89
-14.47
-3.09
6.29
13.35
18.29
21.54
23.58
24.74
25.27
25.33
25.08
24.74
24.47
24.39
24.45
24.55
24.47
24.09
23.33
22.24
20.94
19.51
17.91
16.06
13.81
11.09
7.89
4.32
0.54
-3.30
-7.10
-10.83
-14.42
-17.79
-20.89
-23.74
-26.46
-29.33
-32.68
-36.80
-41.79
-47.44
-53.15
-57.89
-60.41
-59.56
-54.75
-46.15
-34.75
-22.08
-9.71
1.19
10.08
16.99
22.31
26.41
29.55
31.79
33.13
33.62
33.41
32.76
31.92
31.07
30.29
29.55
28.82
28.08
27.32
26.51
25.58
24.37
22.71
20.50
17.76
14.56
11.04
7.30
3.38
-0.74
-5.04
-9.44
-13.78
-17.85
-21.51
-24.73
-27.70
-30.73
-34.25
-38.56
-43.73
-49.37
-54.70
-58.54
-59.73
-57.43
-51.39
-42.09
-30.59
-18.24
-6.32
4.23
12.96
19.86
25.16
29.18
32.15
34.19
35.33
35.69
35.45
34.89
34.33
33.94
33.73
33.57
33.24
32.58
31.55
30.23
28.72
27.13
25.40
23.44
21.10
18.26
14.82
10.81
6.35
1.60
-3.20
-7.84
-12.11
-15.93
-19.32
-22.43
-25.50
-28.85
-32.79
-37.52
-43.00
-48.81
-54.16
-57.94
-59.03
-56.57
-50.34
-40.81
-29.05
-16.40
-4.15
6.75
15.85
23.04
28.49
32.40
34.94
36.27
36.50
35.85
34.69
33.44
32.50
32.14
32.40
33.16
34.17
35.16
35.89
36.16
35.79
34.62
32.56
29.67
26.13
22.24
18.30
14.47
10.75
6.97
2.95
-1.42
-6.09
-10.90
-15.60
-20.03
-24.11
-27.91
-31.58
-35.36
-39.53
-44.23
-49.40
-54.43
-58.30
-59.74
-57.66
-51.57
-41.90
-29.85
-17.00
-4.85
5.57
13.86
20.07
24.53
27.63
29.64
30.72
31.03
30.74
30.14
29.54
29.19
29.17
29.37
29.54
29.40
28.82
27.80
26.46
24.90
23.12
21.03
18.47
15.35
11.68
7.60
3.31
-0.93
-4.93
-8.55
-11.77
-14.66
-17.39
-20.19
-23.32
-27.04
-31.47
-36.54
-41.85
-46.69
-50.14
-51.21
-49.19
-43.80
-35.35
-24.67
-12.94
-1.41
8.92
17.45
23.99
28.68
31.75
33.41
33.81
33.11
31.59
29.69
27.90
26.62
26.02
25.98
26.20
26.35
26.16
25.50
24.36
22.76
20.70
18.23
15.37
12.17
8.70
5.06
1.31
-2.47
-6.20
-9.87
-13.38
-16.71
-19.87
-22.87
-25.77
-28.70
-31.83
-35.42
-39.68
-44.64
-50.01
-55.03
-58.54
-59.25
-56.16
-48.92
-38.06
-24.81
-10.79
2.38
13.53
22.06
27.95
31.59
33.60
34.60
35.04
35.19
35.17
35.00
34.73
34.46
34.30
34.32
34.47
34.60
34.53
34.08
33.15
31.64
29.51
26.75
23.43
19.72
15.80
11.86
7.94
4.02
-0.02
-4.26
-8.64
-13.02
-17.20
-21.05
-24.59
-27.94
-31.32
-34.96
-38.98
-43.45
-48.26
-53.07
-57.26
-59.93
-60.10
-56.96
-50.21
-40.21
-27.98
-14.93
-2.42
8.52
17.45
24.39
29.64
33.54
36.36
38.20
39.13
39.26
38.81
38.07
37.28
36.60
36.00
35.38
34.60
33.58
32.35
30.95
29.43
27.76
25.85
23.61
20.99
18.04
14.83
11.45
7.89
4.11
0.01
-4.42
-9.09
-13.80
-18.32
-22.44
-26.05
-29.20
-32.07
-35.00
-38.34
-42.36
-46.97
-51.66
-55.45
-57.11
-55.59
-50.37
-41.72
-30.63
-18.60
-7.06
2.90
10.82
16.72
20.93
23.80
25.55
26.29
26.08
25.15
23.86
22.69
21.95
21.76
21.89
21.95
21.64
20.81
19.62
18.34
17.18
16.10
14.84
13.01
10.30
6.63
2.20
-2.57
-7.18
-11.21
-14.48
-17.06
-19.29
-21.63
-24.57
-28.42
-33.17
-38.42
-43.39
-47.04
-48.29
-46.39
-41.11
-32.89
-22.74
-11.98
-1.85
6.79
13.53
18.41
21.69
23.63
24.41
24.15
23.01
21.26
19.32
17.64
16.53
16.11
16.15
16.25
15.96
15.03
13.45
11.54
9.61
7.91
6.35
4.60
2.26
-0.97
-5.07
-9.72
-14.44
-18.79
-22.49
-25.55
-28.24
-30.93
-34.06
-37.98
-42.79
-48.23
-53.72
-58.25
-60.68
-60.01
-55.63
-47.64
-36.81
-24.42
-11.82
-0.14
9.97
18.38
25.23
30.80
35.21
38.46
40.50
41.42
41.47
41.02
40.40
39.77
38.99
37.78
35.83
32.95
29.21
24.95
20.76
17.32
15.24
14.80
15.79
17.51
18.88
18.80
16.51
11.87
5.36
-2.15
-9.69
-16.57
-22.47
-27.51
-32.03
-36.45
-40.96
-45.48
-49.52
-52.28
-52.90
-50.72
-45.52
-37.68
-28.07
-17.85
-8.04
0.62
7.88
13.79
18.56
22.38
25.33
27.49
28.96
29.90
30.44
30.62
30.30
29.21
27.16
24.20
20.70
17.30
14.69
13.25
12.96
13.24
13.29
12.30
9.88
6.13
1.49
-3.47
-8.37
-13.08
-17.68
-22.33
-27.09
-31.90
-36.59
-40.88
-44.44
-46.79
-47.38
-45.59
-40.96
-33.34
-23.06
-10.93
1.92
14.31
25.22
34.03
40.45
44.42
45.95
45.05
41.81
36.47
29.59
22.04
14.88
9.03
5.09
3.13
2.77
3.34
4.14
4.62
4.46
3.57
2.02
-0.02
-2.34
-4.70
-6.85
-8.60
-9.83
-10.59
-11.10
-11.74
-12.94
-15.11
-18.50
-23.08
-28.44
-33.78
-37.98
-39.81
-38.33
-33.13
-24.55
-13.66
-1.91
9.23
18.74
26.16
31.62
35.50
38.15
39.75
40.23
39.55
37.73
35.10
32.12
29.27
26.87
24.95
23.34
21.78
20.15
18.45
16.81
15.36
14.08
12.72
10.92
8.36
4.83
0.43
-4.54
-9.63
-14.39
-18.53
-21.93
-24.69
-27.09
-29.56
-32.54
-36.43
-41.36
-47.10
-52.84
-57.37
-59.32
-57.63
-51.90
-42.65
-31.17
-19.10
-7.92
1.46
8.77
14.28
18.40
21.39
23.28
23.96
23.42
21.99
20.27
18.97
18.59
19.30
20.92
23.12
25.49
27.69
29.32
29.98
29.38
27.59
25.28
23.53
23.41
25.40
29.03
32.98
35.61
35.58
32.34
26.19
17.86
8.25
-1.97
-12.34
-22.56
-32.43
-41.71
-50.21
-57.66
-63.70
-67.88
-69.80
-69.32
-66.68
-62.54
-57.68
-52.88
-48.66
-45.43
-43.50
-43.18
-44.78
-48.39
-53.76
-60.37
-67.55
-74.73
-81.42
-87.20
-91.60
-94.31
-95.36
-95.40
-95.64
-97.28
-100.79
-105.40
-109.26
-110.20
-106.77
-98.80
-87.18
-73.21
-57.75
-41.16
-23.68
-6.10
10.02
22.85
31.21
35.31
36.69
37.53
39.56
43.36
48.46
53.93
59.15
64.28
70.01
77.14
86.09
96.63
107.98
119.11
129.05
137.10
142.89
146.24
147.11
145.57
141.72
135.80
128.24
119.60
110.52
101.57
93.03
84.88
76.93
68.95
60.89
52.88
45.23
38.17
31.86
26.27
21.23
16.48
11.80
7.07
2.31
-2.33
-6.66
-10.51
-13.83
-16.71
-19.37
-22.04
-24.90
-27.91
-30.77
-32.97
-33.89
-32.95
-29.77
-24.37
-17.24
-9.19
-1.21
5.85
11.47
15.52
18.19
19.76
20.47
20.43
19.63
18.14
16.18
14.16
12.52
11.52
11.14
11.07
10.89
10.28
9.20
7.85
6.54
5.49
4.69
3.96
3.00
1.65
-0.14
-2.28
-4.55
-6.67
-8.28
-8.86
-7.83
-4.70
0.66
7.89
16.18
24.62
32.60
40.10
47.58
55.65
64.73
74.73
85.23
95.61
105.27
113.73
120.57
125.34
127.72
127.68
125.68
122.63
119.60
117.39
116.13
115.27
113.78
110.56
104.75
95.83
83.66
68.26
49.85
28.88
6.20
-16.96
-39.19
-59.32
-76.85
-91.98
-105.43
-117.82
-129.21
-138.96
-146.09
-149.84
-150.08
-147.52
-143.28
-138.45
-133.54
-128.30
-122.00
-113.73
-102.93
-89.67
-74.64
-59.04
-44.27
-31.57
-21.73
-15.04
-11.26
-9.80
-9.93
-10.88
-11.95
-12.52
-12.17
-10.70
-8.28
-5.41
-2.75
-0.96
-0.37
-0.92
-2.18
-3.60
-4.69
-5.31
-5.57
-5.74
-6.12
-6.80
-7.81
-9.09
-10.61
-12.45
-14.70
-17.44
-20.71
-24.46
-28.51
-32.55
-36.12
-38.65
-39.52
-38.33
-34.93
-29.59
-22.95
-15.84
-9.10
-3.33
1.17
4.42
6.66
8.17
9.14
9.62
9.57
8.92
7.71
6.11
4.44
3.01
2.09
1.74
1.85
2.21
2.52
2.60
2.32
1.71
0.79
-0.44
-2.04
-4.09
-6.62
-9.56
-12.71
-15.86
-18.85
-21.68
-24.45
-27.21
-29.85
-32.01
-33.12
-32.62
-30.20
-25.86
-20.04
-13.44
-6.81
-0.78
4.29
8.26
11.12
12.92
13.70
13.49
12.36
10.49
8.14
5.68
3.46
1.79
0.85
0.71
1.30
2.46
3.91
5.25
6.08
5.97
4.61
1.92
-1.92
-6.46
-11.11
-15.27
-18.57
-20.93
-22.58
-23.90
-25.17
-26.45
-27.47
-27.71
-26.55
-23.57
-18.62
-11.99
-4.27
3.80
11.48
18.17
23.42
26.96
28.54
28.03
25.48
21.26
16.19
11.42
8.20
7.48
9.57
13.94
19.41
24.46
27.67
28.14
25.65
20.73
14.42
8.02
2.79
-0.41
-1.37
-0.63
0.65
0.90
-1.27
-6.65
-15.13
-25.64
-36.33
-44.98
-49.61
-48.89
-42.58
-31.52
-17.56
-3.02
9.82
19.27
24.57
25.79
23.68
19.26
13.49
7.21
1.05
-4.45
-8.81
-11.58
-12.48
-11.43
-8.69
-4.79
-0.42
3.71
7.06
9.32
10.46
10.60
9.95
8.63
6.67
3.97
0.41
-4.14
-9.72
-16.25
-23.46
-30.80
-37.40
-42.13
-43.80
-41.47
-34.89
-24.70
-12.43
-0.12
10.28
17.48
21.18
22.02
21.21
20.04
19.41
19.69
20.82
22.50
24.39
26.20
27.57
28.17
27.65
25.79
22.59
18.37
13.72
9.34
5.78
3.22
1.46
-0.06
-1.99
-4.89
-9.05
-14.45
-20.75
-27.43
-33.78
-39.01
-42.33
-43.01
-40.59
-35.01
-26.77
-16.80
-6.39
3.15
10.84
16.21
19.40
20.97
21.60
21.82
21.89
21.87
21.76
21.61
21.58
21.83
22.35
22.91
23.16
22.73
21.49
19.46
16.88
13.98
10.89
7.61
4.09
0.31
-3.64
-7.57
-11.29
-14.73
-18.01
-21.40
-25.08
-28.97
-32.64
-35.38
-36.35
-34.90
-30.81
-24.31
-16.09
-7.06
1.85
9.80
16.21
20.80
23.57
24.80
24.91
24.37
23.64
23.07
22.95
23.39
24.38
25.70
26.94
27.59
27.16
25.36
22.23
18.20
13.92
10.11
7.26
5.51
4.67
4.25
3.69
2.53
0.44
-2.62
-6.55
-11.04
-15.73
-20.17
-23.98
-26.86
-28.67
-29.49
-29.44
-28.68
-27.27
-25.17
-22.27
-18.54
-14.05
-9.04
-3.85
1.20
5.92
10.21
14.07
17.46
20.25
22.24
23.34
23.62
23.39
23.12
23.25
24.01
25.35
26.93
28.23
28.83
28.44
27.06
24.83
22.00
18.74
15.26
11.72
8.30
5.22
2.65
0.61
-1.03
-2.56
-4.22
-6.11
-8.08
-9.81
-11.08
-11.84
-12.36
-13.08
-14.41
-16.56
-19.40
-22.45
-25.12
-26.80
-27.00
-25.48
-22.31
-17.80
-12.57
-7.35
-2.80
0.66
3.00
4.43
5.25
5.67
5.67
5.13
3.97
2.30
0.43
-1.29
-2.60
-3.48
-4.08
-4.49
-4.69
-4.57
-4.09
-3.43
-2.98
-3.15
-4.13
-5.74
-7.42
-8.52
-8.40
-6.61
-2.94
2.54
9.18
15.63
19.87
19.85
14.18
2.89
-12.36
-28.82
-43.53
-54.19
-59.58
-59.44
-53.99
-43.62
-28.85
-10.55
9.80
30.09
47.94
61.26
68.70
69.97
65.88
58.04
48.34
38.51
29.62
22.01
15.50
9.72
4.58
0.39
-2.16
-2.43
-0.11
4.60
11.00
18.15
25.18
31.44
36.53
40.17
42.08
41.96
39.63
35.08
28.70
21.25
13.79
7.41
3.01
0.96
1.06
2.54
4.29
5.20
4.43
1.69
-2.76
-8.23
-13.78
-18.39
-21.23
-21.72
-19.64
-15.28
-9.25
-2.51
3.98
9.42
13.32
15.56
16.32
15.93
14.77
13.16
11.37
9.60
8.03
6.81
6.11
6.05
6.66
7.85
9.36
10.88
12.12
12.97
13.43
13.65
13.70
13.47
12.72
11.12
8.51
4.98
0.94
-3.14
-6.86
-10.07
-12.95
-15.81
-18.95
-22.52
-26.43
-30.45
-34.31
-37.74
-40.57
-42.67
-43.83
-43.88
-42.62
-39.98
-36.05
-31.20
-25.92
-20.79
-16.28
-12.61
-9.76
-7.54
-5.71
-4.14
-2.84
-1.91
-1.42
-1.38
-1.70
-2.26
-2.95
-3.75
-4.63
-5.60
-6.55
-7.39
-8.06
-8.61
-9.21
-10.06
-11.28
-12.84
-14.55
-16.14
-17.41
-18.34
-19.02
-19.75
-20.80
-22.38
-24.52
-27.03
-29.53
-31.46
-32.28
-31.48
-28.87
-24.54
-18.90
-12.54
-6.10
-0.13
5.02
9.15
12.22
14.30
15.49
15.89
15.66
14.97
14.01
12.97
12.00
11.18
10.46
9.77
9.07
8.40
7.83
7.43
7.15
6.76
5.93
4.36
1.90
-1.30
-4.89
-8.40
-11.40
-13.68
-15.29
-16.52
-17.77
-19.41
-21.65
-24.38
-27.26
-29.68
-30.95
-30.49
-27.96
-23.40
-17.18
-9.95
-2.43
4.67
10.90
16.02
20.02
23.00
25.07
26.33
26.86
26.75
26.19
25.37
24.50
23.69
22.95
22.18
21.30
20.28
19.16
18.03
16.97
15.97
14.94
13.69
12.03
9.81
7.01
3.71
0.14
-3.44
-6.84
-9.95
-12.87
-15.78
-18.98
-22.64
-26.78
-31.09
-35.05
-37.96
-39.15
-38.20
-35.03
-29.98
-23.66
-16.79
-9.98
-3.69
1.93
6.85
11.10
14.63
17.35
19.12
19.88
19.71
18.80
17.40
15.78
14.10
12.50
11.04
9.76
8.67
7.74
6.90
5.98
4.73
2.89
0.35
-2.89
-6.67
-10.67
-14.55
-18.05
-21.02
-23.49
-25.69
-27.91
-30.47
-33.57
-37.13
-40.74
-43.70
-45.18
-44.46
-41.18
-35.46
-27.90
-19.34
-10.68
-2.64
4.36
10.18
14.92
18.72
21.66
23.81
25.21
25.92
26.12
26.01
25.78
25.54
25.27
24.89
24.29
23.43
22.31
21.04
19.75
18.52
17.31
15.96
14.33
12.26
9.72
6.81
3.70
0.56
-2.56
-5.74
-9.13
-12.82
-16.82
-21.00
-25.15
-29.02
-32.32
-34.73
-35.95
-35.63
-33.55
-29.66
-24.18
-17.57
-10.44
-3.36
3.30
9.42
15.05
20.25
25.00
29.06
32.11
33.85
34.15
33.19
31.38
29.27
27.37
25.99
25.19
24.78
24.51
24.07
23.34
22.25
20.86
19.19
17.21
14.91
12.30
9.50
6.70
4.12
1.90
0.01
-1.73
-3.59
-5.79
-8.42
-11.50
-14.95
-18.69
-22.60
-26.52
-30.13
-32.95
-34.34
-33.67
-30.57
-25.12
-17.86
-9.71
-1.64
5.61
11.64
16.42
20.10
22.80
24.57
25.40
25.31
24.45
23.09
21.53
20.05
18.78
17.73
16.82
15.89
14.76
13.32
11.56
9.60
7.61
5.73
3.98
2.25
0.35
-1.82
-4.30
-6.96
-9.63
-12.20
-14.64
-17.02
-19.47
-22.12
-25.07
-28.40
-32.03
-35.73
-39.03
-41.32
-41.92
-40.35
-36.46
-30.51
-23.20
-15.35
-7.81
-1.17
4.28
8.51
11.64
13.83
15.19
15.76
15.56
14.72
13.46
12.14
11.09
10.50
10.36
10.45
10.48
10.20
9.51
8.39
6.94
5.24
3.33
1.29
-0.80
-2.80
-4.52
-5.87
-6.88
-7.55
-7.91
-7.92
-7.57
-6.96
-6.51
-6.86
-8.76
-12.82
-19.14
-27.14
-35.60
-42.90
-47.39
-47.88
-43.94
-36.08
-25.55
-14.01
-3.06
6.12
12.97
17.53
20.16
21.40
21.77
21.76
21.82
22.31
23.46
25.25
27.42
29.50
30.94
31.34
30.51
28.63
26.11
23.50
21.34
19.98
19.52
19.75
20.26
20.59
20.30
19.07
16.71
13.18
8.61
3.32
-2.19
-7.30
-11.43
-14.20
-15.61
-16.05
-16.16
-16.64
-18.01
-20.39
-23.50
-26.66
-28.96
-29.53
-27.79
-23.61
-17.39
-9.90
-2.07
5.27
11.54
16.49
20.11
22.49
23.79
24.13
23.66
22.64
21.33
19.99
18.88
18.15
17.88
18.11
18.83
19.98
21.42
22.85
23.83
23.92
22.76
20.22
16.48
11.94
7.11
2.46
-1.69
-5.20
-8.10
-10.52
-12.63
-14.71
-17.09
-20.11
-24.06
-28.97
-34.56
-40.14
-44.71
-47.26
-46.99
-43.62
-37.46
-29.35
-20.36
-11.49
-3.46
3.32
8.71
12.73
15.45
16.99
17.54
17.39
16.86
16.27
15.85
15.75
15.95
16.34
16.71
16.81
16.47
15.62
14.36
12.93
11.58
10.44
9.41
8.21
6.49
4.00
0.76
-2.96
-6.69
-10.02
-12.74
-14.93
-16.94
-19.24
-22.22
-26.06
-30.62
-35.43
-39.80
-42.86
-43.85
-42.18
-37.73
-30.87
-22.48
-13.68
-5.60
0.94
5.68
8.76
10.58
11.56
11.92
11.73
10.97
9.76
8.38
7.24
6.67
6.77
7.40
8.26
9.09
9.80
10.49
11.32
12.38
13.50
14.40
14.72
14.20
12.78
10.63
8.01
5.21
2.49
-0.03
-2.29
-4.37
-6.43
-8.77
-11.69
-15.42
-20.04
-25.23
-30.37
-34.50
-36.61
-35.89
-32.07
-25.43
-16.85
-7.45
1.71
9.90
16.81
22.44
26.87
30.20
32.42
33.51
33.51
32.68
31.34
29.87
28.52
27.37
26.42
25.55
24.69
23.78
22.78
21.61
20.17
18.34
16.05
13.35
10.32
7.11
3.78
0.41
-3.03
-6.52
-10.04
-13.51
-16.85
-20.00
-22.96
-25.74
-28.41
-31.10
-33.96
-37.08
-40.35
-43.31
-45.19
-45.10
-42.30
-36.58
-28.31
-18.33
-7.74
2.49
11.72
19.59
25.95
30.76
33.95
35.53
35.65
34.70
33.19
31.67
30.51
29.83
29.53
29.39
29.23
28.96
28.62
28.31
28.11
27.98
27.85
27.60
27.00
25.80
23.71
20.44
15.81
9.81
2.73
-4.92
-12.49
-19.33
-24.99
-29.26
-32.24
-34.30
-35.93
-37.66
-39.85
-42.64
-45.81
-48.79
-50.76
-50.86
-48.44
-43.26
-35.67
-26.49
-16.72
-7.32
1.10
8.27
14.19
18.94
22.57
25.02
26.25
26.30
25.44
24.07
22.66
21.58
20.95
20.63
20.30
19.66
18.51
16.91
15.06
13.20
11.48
9.87
8.19
6.17
3.61
0.49
-3.03
-6.59
-9.82
-12.43
-14.33
-15.68
-16.81
-18.18
-20.18
-23.07
-26.85
-31.26
-35.78
-39.67
-42.11
-42.40
-40.09
-35.17
-28.09
-19.65
-10.76
-2.25
5.35
11.80
17.12
21.43
24.89
27.57
29.49
30.67
31.15
31.01
30.43
29.58
28.62
27.74
27.05
26.58
26.26
25.91
25.33
24.35
22.87
20.89
18.49
15.69
12.50
8.91
4.92
0.65
-3.64
-7.59
-10.80
-12.93
-13.80
-13.42
-12.06
-10.30
-8.92
-8.76
-10.51
-14.46
-20.29
-27.14
-33.68
-38.50
-40.50
-39.10
-34.41
-27.19
-18.52
-9.54
-1.19
6.03
11.95
16.59
20.09
22.57
24.11
24.82
24.85
24.42
23.78
23.15
22.66
22.38
22.26
22.22
22.20
22.14
22.00
21.73
21.24
20.30
18.66
16.14
12.71
8.64
4.40
0.50
-2.68
-5.11
-7.06
-9.03
-11.50
-14.73
-18.68
-23.04
-27.47
-31.69
-35.67
-39.56
-43.62
-48.05
-52.85
-57.71
-62.00
-64.88
-65.47
-63.08
-57.41
-48.70
-37.68
-25.35
-12.75
-0.72
10.15
19.57
27.37
33.52
38.02
40.99
42.65
43.34
43.49
43.59
44.05
45.14
46.89
49.11
51.43
53.43
54.82
55.51
55.50
54.80
53.32
50.84
47.19
42.39
36.80
30.97
25.47
20.68
16.54
12.70
8.63
3.97
-1.32
-6.98
-12.61
-17.88
-22.67
-27.09
-31.28
-35.39
-39.39
-43.10
-46.17
-48.23
-48.80
-47.38
-43.62
-37.40
-29.02
-19.19
-8.96
0.59
8.59
14.58
18.55
20.79
21.82
22.04
21.76
21.07
19.91
18.20
16.03
13.67
11.53
10.08
9.65
10.38
12.09
14.43
16.84
18.76
19.70
19.40
17.94
15.61
12.84
10.05
7.51
5.34
3.62
2.37
1.55
0.92
-0.01
-1.99
-5.74
-11.66
-19.63
-29.02
-38.88
-48.25
-56.38
-62.74
-66.99
-68.87
-68.24
-65.13
-59.86
-53.09
-45.67
-38.45
-32.00
-26.51
-21.83
-17.58
-13.35
-8.77
-3.66
1.97
7.96
13.94
19.50
24.12
27.40
29.09
29.25
28.15
26.32
24.39
22.95
22.43
23.05
24.73
27.12
29.73
31.94
33.33
33.63
32.85
31.16
28.75
25.77
22.22
18.07
13.34
8.27
3.21
-1.48
-5.63
-9.34
-12.96
-17.01
-21.92
-27.94
-35.00
-42.59
-49.78
-55.27
-57.74
-56.20
-50.39
-40.93
-29.21
-16.93
-5.56
3.98
11.50
17.29
21.78
25.28
27.88
29.60
30.51
30.81
30.78
30.72
30.72
30.74
30.62
30.27
29.66
28.96
28.30
27.74
27.22
26.50
25.36
23.69
21.53
19.15
16.83
14.83
13.27
12.05
10.91
9.53
7.64
5.10
1.96
-1.61
-5.36
-9.08
-12.71
-16.36
-20.25
-24.61
-29.52
-34.81
-40.00
-44.36
-47.00
-47.15
-44.45
-39.00
-31.48
-22.92
-14.44
-6.93
-0.87
3.69
7.02
9.44
11.26
12.64
13.67
14.38
14.76
14.70
14.08
12.82
10.94
8.68
6.44
4.72
3.99
4.46
6.02
8.21
10.34
11.64
11.53
9.78
6.58
2.45
-1.93
-6.00
-9.46
-12.26
-14.54
-16.42
-17.99
-19.31
-20.41
-21.41
-22.43
-23.56
-24.80
-26.06
-27.15
-27.79
-27.71
-26.58
-24.07
-19.95
-14.20
-7.06
0.97
9.24
17.12
24.19
30.25
35.33
39.53
42.93
45.59
47.53
48.84
49.75
50.51
51.33
52.10
52.40
51.57
48.95
44.19
37.40
29.14
20.16
11.13
2.46
-5.76
-13.59
-21.06
-28.01
-34.04
-38.59
-41.05
-40.97
-38.24
-33.28
-26.96
-20.56
-15.38
-12.39
-11.99
-13.91
-17.42
-21.63
-25.68
-28.85
-30.45
-29.80
-26.30
-19.74
-10.52
0.27
10.98
19.95
25.97
28.63
28.32
25.98
22.64
19.15
16.05
13.67
12.22
11.88
12.70
14.54
16.99
19.52
21.56
22.76
23.00
22.39
21.14
19.41
17.32
14.96
12.49
10.10
8.05
6.41
5.12
3.87
2.34
0.21
-2.58
-5.90
-9.48
-12.99
-16.24
-19.25
-22.21
-25.44
-29.21
-33.66
-38.56
-43.30
-46.93
-48.44
-47.05
-42.51
-35.24
-26.15
-16.42
-7.09
1.08
7.75
12.84
16.50
18.98
20.51
21.29
21.46
21.14
20.47
19.63
18.83
18.32
18.21
18.40
18.66
18.58
17.90
16.56
14.67
12.47
10.12
7.64
4.92
1.79
-1.77
-5.60
-9.37
-12.76
-15.60
-17.93
-19.99
-22.06
-24.34
-26.91
-29.79
-32.91
-36.14
-39.18
-41.53
-42.56
-41.65
-38.44
-33.01
-25.90
-17.95
-10.03
-2.78
3.46
8.65
12.85
16.13
18.48
19.89
20.38
20.11
19.36
18.41
17.48
16.64
15.88
15.11
14.20
13.09
11.74
10.17
8.47
6.70
4.96
3.23
1.48
-0.35
-2.20
-3.88
-5.07
-5.44
-4.91
-3.68
-2.30
-1.44
-1.62
-3.13
-5.90
-9.65
-13.94
-18.24
-21.96
-24.49
-25.26
-23.97
-20.74
-16.09
-10.84
-5.77
-1.39
2.23
5.32
8.20
11.04
13.74
15.99
17.50
18.09
17.86
17.12
16.27
15.64
15.32
15.19
14.96
14.38
13.30
11.77
10.00
8.25
6.71
5.35
3.98
2.28
-0.08
-3.24
-7.17
-11.68
-16.47
-21.27
-25.89
-30.27
-34.38
-38.30
-42.05
-45.73
-49.38
-52.89
-55.85
-57.50
-56.85
-52.97
-45.50
-34.80
-22.12
-9.17
2.42
11.52
17.83
21.67
23.74
24.78
25.38
26.00
27.04
28.81
31.46
34.84
38.48
41.67
43.64
43.80
41.86
37.90
32.27
25.50
18.25
11.14
4.72
-0.62
-4.66
-7.42
-9.07
-9.91
-10.27
-10.51
-10.95
-11.86
-13.42
-15.68
-18.50
-21.61
-24.70
-27.50
-29.91
-31.93
-33.59
-34.79
-35.17
