1565966679.00
64.000000
-0.00
-0.00
-0.00
-0.00
-0.00
-0.00
-0.00
-0.00
-0.00
-0.00
0.00
0.01
0.01
-0.00
-0.03
-0.05
-0.05
0.00
0.13
0.36
0.66
1.01
1.37
1.72
2.06
2.40
2.79
3.24
3.80
4.42
5.06
5.66
6.20
6.68
7.15
7.68
8.31
9.14
10.09
11.04
11.88
12.56
13.14
13.76
14.65
15.96
17.91
20.32
22.90
25.38
27.58
29.57
31.68
34.32
37.81
42.54
48.15
54.10
59.83
64.97
69.58
74.14
79.34
85.71
93.76
103.00
112.62
121.73
129.77
136.75
143.30
150.75
157.77
166.64
177.95
191.79
206.97
220.57
228.25
225.36
208.53
176.87
132.76
80.05
23.07
-34.95
-92.44
-149.15
-205.22
-260.35
-313.71
-363.82
-409.75
-450.79
-486.35
-515.54
-536.98
-548.91
-549.59
-537.94
-513.71
-478.11
-433.24
-381.74
-326.24
-268.98
-211.69
-155.63
-101.83
-51.15
-4.57
37.04
73.02
103.09
127.40
146.47
160.99
171.68
179.16
183.83
185.97
185.82
183.65
179.81
174.70
168.75
162.29
155.57
148.74
141.86
134.97
128.13
121.39
114.82
108.50
102.48
96.79
91.45
86.46
81.83
77.57
73.71
70.26
67.23
64.59
62.34
60.40
58.70
57.12
55.51
53.69
51.49
48.72
45.26
41.00
35.93
30.12
23.65
16.71
9.58
2.51
-4.20
-10.30
-15.58
-19.88
-23.12
-25.29
-26.44
-26.69
-26.16
-25.01
-23.38
-21.42
-19.23
-16.89
-14.45
-11.95
-9.44
-6.92
-4.42
-1.94
0.54
3.03
5.55
8.13
10.81
13.58
16.41
19.32
22.30
25.37
28.53
31.80
35.21
38.84
42.60
46.47
50.44
54.54
58.78
63.20
67.84
72.75
78.02
83.49
89.05
94.66
100.27
105.85
111.39
116.91
122.45
128.05
133.46
138.49
142.91
146.51
149.02
150.09
149.25
145.85
141.12
135.53
129.35
122.81
116.02
109.11
102.16
95.28
88.58
82.22
76.08
70.07
64.21
58.52
53.05
47.85
43.01
38.62
34.77
31.35
28.27
25.50
22.98
20.70
18.65
16.83
15.27
13.99
12.88
11.88
10.95
10.06
9.17
8.26
7.28
6.20
5.00
3.62
2.04
0.33
-1.45
-3.18
-4.80
-6.25
-7.55
-8.70
-9.74
-10.65
-11.39
-11.88
-12.09
-12.02
-11.81
-11.61
-11.64
-12.02
-12.75
-13.71
-14.72
-15.61
-16.36
-17.16
-18.33
-20.22
-23.02
-26.66
-30.76
-34.77
-38.19
-40.90
-43.20
-45.76
-49.36
-54.52
-61.17
-68.65
-75.96
-82.25
-87.26
-91.62
-96.64
-103.76
-113.84
-126.74
-141.23
-155.53
-168.12
-178.41
-187.16
-196.13
-207.48
-223.02
-243.61
-268.75
-296.48
-323.52
-345.85
-359.58
-362.06
-352.69
-333.23
-307.23
-278.81
-251.08
-224.88
-198.51
-168.77
-132.85
-90.30
-43.98
0.65
37.47
62.23
73.99
75.02
69.30
60.19
48.83
34.02
13.62
-13.41
-45.60
-78.96
-108.10
-128.25
-136.83
-134.20
-123.11
-107.30
-89.99
-72.82
-56.13
-39.97
-25.10
-13.53
-7.71
-9.04
-16.68
-27.38
-36.61
-40.58
-37.75
-29.46
-19.19
-10.67
-6.01
-4.83
-4.64
-2.23
4.33
14.52
25.37
32.98
34.65
30.39
22.99
16.51
14.05
16.02
20.40
24.34
26.13
26.43
27.50
31.12
37.01
42.47
43.84
39.06
29.24
18.72
13.04
15.88
27.06
42.32
55.43
61.22
58.19
48.93
38.26
30.51
27.27
26.99
26.56
23.74
18.71
13.96
12.73
16.65
24.59
32.92
37.32
35.17
26.83
15.55
5.94
1.59
3.37
9.16
14.97
17.25
14.74
9.12
3.82
1.90
4.23
9.04
13.33
14.69
12.92
9.99
8.55
10.18
14.36
18.61
20.05
17.14
10.69
3.49
-0.98
-0.40
5.28
13.81
21.72
26.03
25.66
21.68
16.76
13.60
13.44
15.70
18.42
19.50
17.91
14.17
9.97
7.28
7.31
9.88
13.44
15.95
15.75
12.64
8.05
4.33
3.63
6.56
11.75
16.37
17.80
15.11
9.68
4.54
2.42
4.20
8.19
11.20
10.53
5.66
-1.39
-7.17
-9.02
-6.59
-1.96
1.54
1.55
-2.11
-7.18
-10.45
-9.54
-4.29
3.07
9.24
11.58
9.63
5.31
1.77
1.54
4.98
10.02
13.34
12.45
7.48
1.22
-2.48
-1.00
5.38
13.57
19.49
20.39
16.39
10.04
4.98
3.74
6.38
10.57
12.93
10.97
4.57
-3.73
-10.03
-11.19
-6.66
1.05
7.66
9.48
5.62
-1.49
-7.68
-9.58
-6.68
-1.63
1.61
0.38
-4.98
-11.27
-14.45
-12.02
-4.47
5.07
12.54
15.27
13.04
8.08
3.76
2.61
5.20
9.97
14.17
15.34
12.66
7.38
2.14
-0.40
1.08
5.81
11.29
14.71
14.42
10.80
5.86
2.13
1.09
2.35
4.08
4.17
1.57
-2.91
-6.97
-8.17
-5.47
0.03
5.49
7.99
6.21
1.29
-3.69
-5.57
-3.15
2.06
6.60
7.19
2.92
-3.99
-9.51
-10.22
-5.44
2.40
9.21
11.84
9.78
5.33
1.90
2.00
5.71
10.76
14.05
13.47
9.11
3.17
-1.30
-2.07
1.18
6.66
11.40
12.75
9.92
4.43
-0.58
-2.15
0.64
6.08
10.76
11.56
7.64
1.01
-4.70
-6.39
-3.51
1.63
5.30
4.64
-0.60
-7.87
-13.39
-14.17
-9.83
-2.48
4.39
7.76
6.62
2.21
-2.75
-5.68
-5.38
-2.51
0.90
2.73
1.94
-0.98
-4.19
-5.63
-4.21
-0.39
4.04
7.03
7.46
5.76
3.66
3.06
4.89
8.39
11.55
12.34
10.07
5.92
2.41
2.16
6.13
13.05
19.82
23.01
20.84
14.26
6.52
1.41
1.15
5.12
10.17
12.61
10.52
4.79
-1.41
-4.74
-3.82
0.05
3.84
4.85
2.39
-1.90
-5.36
-6.11
-4.21
-1.41
-0.04
-1.51
-5.48
-10.23
-13.60
-14.20
-12.02
-8.45
-5.56
-5.29
-8.30
-13.61
-18.74
-20.85
-18.13
-11.01
-2.21
4.55
6.60
3.97
-0.38
-2.33
0.89
8.79
17.84
23.41
22.75
16.64
8.85
3.91
4.28
9.16
15.11
18.33
16.89
11.60
5.40
1.24
0.64
2.91
6.02
7.87
7.57
5.72
3.81
3.23
4.42
6.57
8.02
7.28
3.81
-1.55
-6.76
-9.62
-8.80
-4.66
0.92
5.24
6.33
3.85
-0.71
-4.87
-6.64
-5.64
-3.53
-2.71
-4.95
-10.06
-15.83
-19.34
-18.58
-13.68
-6.82
-1.06
1.38
0.27
-2.58
-4.49
-3.38
1.08
7.34
12.98
16.16
16.55
15.47
14.94
16.39
19.84
23.99
26.81
26.81
23.85
19.18
14.82
12.55
12.94
15.05
16.89
16.61
13.60
8.98
5.04
3.77
5.56
8.85
10.95
9.80
5.36
-0.25
-4.20
-4.69
-2.07
1.53
3.63
2.74
-1.35
-8.00
-16.57
-26.68
-37.86
-48.98
-58.33
-64.18
-65.60
-62.81
-56.95
-49.48
-41.67
-34.44
-28.41
-23.92
-20.75
-17.89
-13.83
-7.38
1.44
10.98
18.71
22.43
21.55
17.47
12.84
10.23
10.88
14.23
18.46
21.54
22.29
20.83
18.31
16.08
14.94
14.70
14.48
13.36
11.09
8.32
6.16
5.50
6.34
7.71
8.21
6.73
3.19
-1.22
-4.47
-4.70
-1.21
4.97
11.28
14.81
13.76
8.44
1.27
-4.51
-6.39
-3.97
0.92
5.46
7.37
6.11
2.92
-0.09
-1.38
-0.68
1.06
2.54
3.00
2.71
2.58
3.47
5.48
7.73
8.79
7.49
3.81
-0.87
-4.35
-4.59
-1.00
5.23
11.40
14.71
13.59
8.73
2.84
-0.83
-0.08
4.79
11.12
15.23
14.51
8.90
0.87
-5.90
-8.66
-7.05
-3.14
-0.19
-0.41
-3.77
-8.06
-10.41
-9.18
-5.00
-0.32
2.12
0.90
-3.31
-8.20
-11.30
-11.44
-9.25
-6.73
-5.97
-7.86
-11.47
-14.48
-14.48
-10.27
-2.61
5.98
12.43
14.50
11.97
6.70
1.77
-0.13
1.87
6.55
11.24
13.52
12.56
9.68
7.30
7.47
10.41
14.24
16.27
14.70
9.97
4.62
1.76
2.92
6.93
10.44
10.05
4.57
-4.07
-11.68
-14.26
-10.37
-2.10
6.26
10.53
8.91
2.80
-4.18
-8.44
-8.29
-4.73
-0.82
0.20
-3.16
-9.95
-17.06
-20.87
-19.17
-12.34
-3.33
3.88
6.44
3.97
-1.14
-5.29
-5.74
-2.05
3.82
8.82
10.68
9.16
5.94
3.40
3.37
5.96
9.74
12.58
12.89
10.40
6.40
3.09
2.29
4.46
8.09
10.35
8.86
3.19
-4.52
-10.61
-11.98
-8.03
-1.14
4.68
6.23
2.89
-3.13
-8.22
-9.77
-7.61
-3.93
-1.78
-3.11
-7.49
-12.30
-14.43
-11.94
-5.36
2.52
8.07
8.96
5.43
0.22
-2.91
-1.53
4.14
11.26
15.97
15.67
10.45
3.07
-2.63
-3.65
0.51
7.77
14.57
17.78
16.33
11.58
6.45
3.77
4.63
7.83
10.80
11.12
8.00
2.83
-1.84
-3.84
-2.61
0.42
2.77
2.50
-0.66
-5.27
-8.90
-9.71
-7.37
-3.29
0.10
0.65
-2.43
-8.07
-13.88
-17.28
-16.79
-12.69
-6.83
-1.71
0.80
0.42
-1.53
-2.83
-1.67
2.14
7.04
10.43
10.29
6.55
1.35
-2.15
-1.64
2.84
8.77
12.53
11.70
6.42
-0.50
-5.27
-5.34
-1.03
4.94
9.00
8.92
5.27
0.80
-1.30
0.54
5.19
9.62
10.66
7.08
0.35
-6.22
-9.41
-7.88
-3.02
1.95
3.94
1.59
-4.00
-10.06
-13.95
-14.54
-12.79
-10.97
-11.16
-13.95
-18.08
-21.07
-20.76
-16.56
-9.86
-3.29
0.65
0.96
-1.46
-4.34
-5.21
-2.74
2.47
8.35
12.25
12.52
9.36
4.87
1.88
2.49
6.76
12.75
17.51
18.70
16.08
11.57
7.97
7.35
9.72
13.02
14.52
12.59
7.70
2.31
-0.74
0.02
3.79
7.82
8.92
5.48
-1.63
-9.37
-14.04
-13.44
-8.10
-1.03
3.82
3.62
-1.68
-9.44
-15.88
-18.04
-15.46
-10.05
-4.81
-1.99
-1.85
-2.66
-2.04
1.37
7.06
12.72
15.61
14.17
9.02
2.73
-1.47
-1.49
2.51
8.26
12.64
13.47
10.60
5.92
2.08
1.01
2.79
5.78
7.68
6.85
3.29
-1.31
-4.61
-4.95
-2.22
1.82
4.51
3.71
-0.99
-7.85
-13.74
-15.96
-13.70
-8.54
-3.66
-2.02
-4.56
-9.85
-14.98
-17.16
-15.35
-10.69
-5.54
-2.08
-1.07
-1.47
-1.31
0.84
4.93
9.25
11.38
9.81
4.98
-0.57
-3.44
-1.38
5.24
13.40
18.87
18.56
12.42
3.43
-4.05
-6.58
-3.71
2.07
6.98
8.22
5.54
1.25
-1.73
-1.77
0.51
2.56
1.76
-2.64
-9.03
-14.22
-15.21
-11.10
-3.58
3.97
8.08
6.80
0.59
-8.18
-16.37
-21.23
-21.68
-18.48
-13.60
-9.16
-6.30
-4.64
-2.92
0.05
4.33
8.61
10.96
10.06
6.15
1.05
-2.68
-3.26
-0.48
4.27
8.59
10.49
9.33
6.02
2.62
1.14
2.27
4.96
6.95
6.07
1.71
-4.54
-9.78
-11.41
-8.75
-3.55
0.97
2.20
-0.51
-5.31
-9.04
-9.14
-5.15
1.09
6.43
8.28
6.04
1.41
-2.70
-3.85
-1.44
3.07
7.12
8.73
7.54
4.99
3.28
4.03
7.41
12.16
16.35
18.44
17.80
14.94
11.22
8.17
7.02
8.02
10.32
12.32
12.56
10.60
7.28
4.25
2.80
2.89
3.25
2.27
-0.72
-4.69
-7.49
-7.07
-2.81
4.06
10.87
15.06
15.20
11.57
6.07
1.07
-1.81
-2.43
-2.24
-3.37
-7.05
-12.63
-17.72
-19.45
-16.31
-9.43
-1.94
2.64
2.50
-1.38
-5.95
-8.09
-6.52
-2.38
1.51
2.58
0.19
-3.87
-6.49
-5.02
1.07
9.84
17.63
21.14
19.18
13.32
7.16
4.29
6.33
12.05
17.97
20.27
16.97
8.97
-0.50
-7.64
-10.21
-8.70
-5.72
-4.36
-6.29
-10.73
-15.04
-16.43
-13.75
-8.28
-3.05
-0.99
-2.99
-7.29
-10.60
-10.05
-5.22
1.58
6.74
7.63
4.30
-0.36
-2.33
1.01
9.11
18.40
24.03
22.48
13.58
0.77
-10.44
-14.72
-9.27
4.85
23.05
38.46
44.50
37.21
16.58
-13.48
-46.45
-75.38
-94.70
-101.37
-94.72
-76.11
-48.51
-16.35
14.60
38.19
49.52
46.54
31.20
8.84
-13.48
-29.65
-36.55
-34.81
-27.96
-20.37
-15.15
-12.54
-10.44
-5.75
3.40
16.20
29.38
38.62
40.75
35.38
24.88
12.95
2.66
-4.70
-9.51
-12.71
-14.49
-13.89
-9.41
-0.16
12.77
26.23
36.05
38.66
33.06
21.39
8.08
-2.09
-6.25
-4.54
0.23
4.61
6.39
5.64
4.19
3.92
5.36
7.14
6.88
2.77
-5.12
-14.68
-22.74
-26.53
-25.27
-20.12
-13.46
-7.55
-3.37
-0.32
3.03
8.11
15.19
23.07
29.56
32.33
30.03
23.02
13.34
3.79
-3.20
-6.61
-7.22
-6.74
-6.66
-7.10
-6.64
-3.44
3.13
11.49
18.26
20.09
15.73
6.88
-2.57
-8.59
-9.20
-5.24
0.40
4.49
5.06
2.31
-1.91
-5.26
-6.15
-4.48
-1.82
-0.37
-1.99
-7.02
-13.66
-18.67
-19.09
-13.92
-5.02
3.64
8.15
7.05
2.14
-2.51
-3.17
1.26
8.64
15.08
17.44
15.26
10.96
8.22
9.53
14.55
20.26
22.81
19.67
11.37
1.42
-5.65
-6.52
-0.83
8.61
17.31
21.41
19.36
12.49
4.00
-3.01
-7.01
-8.59
-9.68
-12.02
-15.91
-19.94
-21.73
-19.45
-12.99
-4.39
2.98
6.17
4.25
-1.11
-6.44
-8.41
-5.86
-0.65
3.50
3.14
-2.64
-11.48
-18.79
-20.42
-14.91
-4.28
6.92
14.14
15.12
10.73
4.29
-0.31
-0.70
3.05
8.83
13.93
16.51
16.46
14.99
13.55
12.82
12.15
10.23
6.16
0.44
-4.94
-7.40
-5.20
1.29
9.49
15.58
16.42
11.18
1.91
-7.30
-12.41
-11.43
-5.55
1.43
5.16
3.23
-3.58
-11.80
-17.42
-18.55
-16.46
-14.70
-16.59
-22.92
-31.01
-36.26
-34.85
-25.89
-12.01
2.06
11.88
15.07
11.85
4.39
-4.48
-12.62
-18.85
-22.88
-24.96
-25.49
-24.78
-23.01
-20.41
-17.40
-14.70
-13.44
-14.62
-18.53
-24.26
-29.83
-32.93
-32.29
-28.50
-23.86
-21.04
-21.34
-23.67
-24.62
-20.50
-9.61
6.10
21.60
31.17
31.49
23.54
12.08
3.20
1.12
6.33
15.77
24.97
30.51
31.60
29.97
28.31
28.42
30.12
31.50
30.23
25.25
17.63
10.24
6.21
7.33
12.94
20.06
24.91
24.81
19.41
10.89
2.64
-2.45
-3.49
-1.77
0.22
0.26
-1.98
-4.80
-5.34
-1.38
7.14
17.67
26.25
29.88
28.20
23.76
20.26
20.13
22.46
23.40
18.67
6.47
-10.70
-26.65
-34.52
-30.22
-14.48
7.62
29.17
44.61
51.38
49.77
41.69
29.35
14.54
-1.13
-15.97
-28.36
-36.93
-41.27
-41.97
-40.15
-36.92
-32.97
-28.60
-23.77
-18.23
-11.55
-3.17
7.25
18.96
29.67
36.31
36.05
27.97
13.72
-3.04
-17.98
-27.58
-30.28
-26.53
-18.04
-6.93
4.92
15.97
24.59
28.63
26.11
16.00
-0.61
-19.91
-36.62
-46.27
-47.45
-42.67
-36.86
-34.35
-35.96
-38.28
-35.87
-24.67
-4.76
19.22
40.53
53.86
57.59
53.87
46.55
38.31
29.29
17.79
2.16
-16.97
-36.10
-50.11
-54.70
-48.49
-33.66
-15.08
2.18
14.65
21.33
23.51
23.35
22.79
22.75
23.05
22.68
20.58
16.30
10.64
5.60
3.57
6.11
12.65
20.33
25.00
23.11
13.64
-1.01
-16.16
-26.86
-30.17
-26.37
-18.35
-9.82
-3.30
1.03
5.02
11.02
19.62
28.82
34.48
32.41
21.25
3.74
-14.20
-26.26
-29.01
-23.66
-15.01
-8.30
-6.08
-7.06
-7.33
-3.60
4.30
13.10
18.17
16.55
9.01
-0.35
-6.47
-6.16
0.27
9.52
17.29
20.68
19.52
16.02
13.30
13.60
16.98
21.46
24.13
22.78
17.31
9.94
4.05
2.25
4.86
9.64
13.02
12.29
7.10
-0.41
-6.89
-9.89
-9.08
-6.15
-3.65
-3.17
-4.59
-6.45
-7.09
-5.84
-3.43
-1.48
-1.39
-3.55
-7.04
-9.91
-10.24
-7.17
-1.42
4.77
8.68
8.48
4.22
-2.06
-7.27
-8.95
-6.50
-1.52
3.13
4.89
2.97
-1.41
-5.76
-7.80
-6.73
-3.70
-1.03
-0.79
-3.52
-7.99
-11.73
-12.58
-10.00
-5.48
-1.85
-1.65
-5.63
-12.00
-17.37
-18.51
-14.37
-6.75
0.66
4.40
3.30
-0.87
-4.63
-4.92
-0.99
5.14
9.93
10.42
6.01
-1.24
-7.63
-9.86
-6.72
0.21
7.31
10.91
9.12
2.84
-4.58
-9.23
-8.80
-3.72
3.09
7.96
8.67
5.63
1.21
-1.75
-2.09
-1.14
-1.55
-5.50
-12.74
-20.14
-23.26
-18.92
-7.28
7.87
20.89
27.40
26.39
20.51
14.31
11.32
12.08
14.31
14.46
10.23
2.13
-6.97
-13.51
-15.11
-11.76
-5.69
-0.04
2.75
1.86
-1.40
-4.52
-5.00
-1.77
3.97
9.23
10.81
7.16
-0.59
-8.98
-14.22
-14.31
-10.23
-5.41
-3.64
-6.73
-13.34
-19.69
-21.75
-17.70
-8.91
0.75
6.93
7.46
3.41
-1.72
-4.03
-1.50
4.61
10.73
13.14
10.08
2.80
-5.24
-10.35
-10.61
-6.70
-1.43
1.91
1.43
-2.44
-7.37
-10.44
-9.95
-6.33
-1.90
0.63
-0.24
-3.80
-7.43
-8.34
-5.45
-0.22
4.14
4.31
-1.00
-10.29
-20.02
-26.26
-26.52
-20.87
-11.82
-2.78
3.72
7.15
8.98
11.45
15.81
21.08
24.66
23.67
16.92
6.11
-4.98
-12.15
-13.08
-8.35
-1.19
4.32
5.13
0.65
-7.09
-14.54
-18.28
-16.91
-11.59
-5.50
-2.06
-2.95
-7.13
-11.53
-12.98
-10.00
-3.87
2.37
5.90
5.74
3.11
0.45
-0.34
0.85
2.69
3.35
1.82
-1.31
-4.09
-4.25
-0.47
6.93
15.85
23.31
26.58
24.62
18.59
11.30
6.06
4.94
7.73
12.28
15.91
16.59
14.34
10.68
7.58
6.15
5.96
5.37
2.87
-1.60
-6.43
-9.10
-7.70
-2.42
4.34
9.17
9.44
4.90
-2.18
-8.26
-10.77
-9.42
-6.34
-4.44
-5.54
-9.05
-12.42
-12.75
-8.62
-1.01
7.13
12.58
13.64
10.72
6.25
3.12
3.16
6.34
10.90
14.47
15.26
13.16
9.55
6.40
5.04
5.34
5.76
4.43
0.44
-5.44
-10.96
-13.54
-11.73
-5.96
1.41
7.38
9.66
7.74
2.86
-2.73
-6.87
-8.58
-8.45
-8.17
-9.40
-12.65
-16.60
-18.65
-16.43
-9.50
0.13
8.66
12.42
10.01
3.08
-4.42
-8.68
-7.95
-3.65
0.73
1.94
-0.94
-5.86
-9.26
-8.22
-2.31
6.03
13.00
15.70
13.73
9.27
5.65
5.31
8.18
11.82
12.93
9.27
1.01
-9.08
-17.09
-19.86
-16.74
-9.92
-3.36
-0.78
-3.57
-10.01
-16.19
-18.24
-14.42
-6.20
2.42
7.29
6.29
0.52
-6.40
-10.40
-9.32
-3.98
2.43
6.28
5.62
1.17
-4.26
-7.36
-6.42
-2.18
2.58
4.84
2.92
-2.30
-7.72
-9.92
-7.00
0.14
8.23
13.25
12.85
7.62
0.91
-3.22
-2.35
2.73
8.48
10.76
7.40
-0.41
-8.77
-13.37
-12.07
-6.07
1.04
5.50
5.60
2.45
-1.07
-2.18
0.01
4.33
8.42
10.43
10.00
8.21
6.76
6.83
8.23
9.66
9.36
6.27
0.76
-5.38
-9.54
-9.75
-5.75
0.69
6.43
8.47
5.56
-1.02
-8.04
-11.98
-10.88
-5.38
1.60
6.58
7.35
4.17
-0.52
-3.65
-3.32
-0.07
3.42
3.98
-0.09
-7.72
-15.53
-19.70
-18.15
-11.85
-4.35
0.30
-0.19
-5.01
-10.79
-13.60
-11.31
-4.67
3.21
8.72
10.04
7.83
4.75
3.61
5.60
9.55
12.83
13.13
9.77
4.36
-0.24
-1.46
1.35
6.71
11.81
14.12
12.84
9.35
6.50
6.85
11.19
17.83
23.41
24.53
19.67
10.10
-0.67
-8.68
-11.42
-9.13
-4.53
-1.23
-1.66
-5.91
-11.82
-16.44
-17.84
-16.23
-13.57
-11.99
-12.30
-13.50
-13.60
-11.03
-5.96
-0.65
1.47
-2.54
-13.36
-28.65
-43.40
-51.84
-49.76
-36.48
-15.29
7.64
25.72
34.66
33.98
26.64
17.14
9.21
4.27
1.61
-0.17
-1.52
-1.56
0.94
6.36
13.19
18.62
20.10
16.97
10.96
4.78
0.42
-2.14
-4.70
-9.06
-15.19
-20.86
-22.89
-19.39
-11.05
-1.02
7.04
10.93
10.70
8.14
5.53
4.78
7.25
13.58
22.93
32.35
36.70
30.36
10.57
-19.63
-50.71
-69.59
-65.37
-35.00
14.57
69.04
113.04
136.38
136.90
119.50
91.92
60.31
27.55
-5.90
-39.64
-71.70
-98.18
-115.19
-121.05
-117.77
-110.79
-106.58
-109.58
-119.56
-131.22
-136.13
-126.43
-98.65
-55.71
-6.07
39.45
71.84
87.07
86.76
76.41
62.28
48.45
35.77
22.65
7.35
-10.11
-26.98
-38.50
-40.30
-30.94
-13.17
6.98
22.85
30.42
29.85
24.86
20.16
18.84
20.90
23.74
24.78
23.11
20.55
20.63
26.37
38.10
53.00
65.81
71.01
65.34
48.99
25.62
0.91
-19.79
-33.59
-40.83
-44.26
-46.87
-49.83
-51.99
-50.90
-45.06
-35.32
-24.57
-15.93
-10.24
-5.68
0.86
10.94
22.38
29.72
27.43
13.94
-6.44
-25.09
-33.60
-28.56
-13.91
1.51
9.17
5.84
-4.54
-13.82
-15.09
-7.12
4.74
12.03
8.58
-5.55
-23.97
-37.61
-39.95
-30.41
-14.23
0.99
9.77
11.43
10.02
11.16
18.36
30.95
44.26
52.15
50.39
39.06
22.61
7.57
-0.79
-0.93
4.78
11.81
16.24
16.55
13.86
10.28
7.09
4.07
0.17
-4.97
-10.07
-12.77
-11.18
-5.31
2.41
8.57
10.49
7.71
2.23
-2.98
-5.42
-4.21
-0.09
5.19
9.88
12.84
13.87
13.50
12.49
11.24
9.52
6.70
2.52
-2.15
-5.38
-5.20
-0.73
7.10
15.81
22.53
25.00
22.28
14.86
4.21
-7.43
-17.18
-22.37
-21.52
-15.15
-6.09
2.00
6.69
8.25
9.21
12.13
17.17
21.31
20.42
12.42
-0.44
-12.35
-17.29
-12.81
-1.76
9.46
14.76
11.97
3.88
-4.00
-6.78
-2.98
5.35
14.28
20.50
22.80
22.06
19.98
18.01
16.63
15.23
12.76
8.45
2.45
-3.84
-8.22
-8.79
-5.00
1.65
8.12
11.45
10.32
5.86
0.94
-1.68
-0.89
2.22
5.12
5.29
1.62
-5.23
-13.36
-20.38
-24.38
-24.71
-22.20
-18.86
-16.91
-17.41
-19.55
-20.80
-18.20
-10.32
1.53
13.63
21.69
23.00
17.96
9.53
1.63
-3.06
-4.24
-3.62
-3.60
-5.63
-9.18
-12.15
-11.88
-6.71
2.68
13.38
21.51
24.51
22.53
18.29
15.29
15.25
16.89
16.75
11.75
1.61
-10.42
-19.38
-21.58
-16.87
-8.68
-1.87
0.25
-2.40
-7.14
-10.74
-11.37
-9.24
-5.93
-2.94
-0.83
0.78
2.68
5.25
8.47
11.89
14.76
16.25
15.48
12.22
7.41
3.30
2.59
6.69
14.55
22.73
27.29
26.13
20.42
13.88
10.20
10.54
12.86
13.55
10.13
3.21
-3.71
-6.54
-3.23
5.10
14.66
21.00
21.14
14.71
3.86
-7.89
-17.23
-22.33
-23.30
-21.72
-19.55
-17.96
-16.72
-14.59
-10.36
-4.13
2.47
6.95
7.43
4.06
-1.04
-4.91
-5.47
-2.80
0.90
2.64
0.58
-4.85
-10.91
-13.94
-11.52
-3.85
6.05
13.82
15.82
10.96
1.11
-9.80
-17.73
-20.21
-17.24
-10.99
-4.50
-0.32
0.52
-1.35
-4.25
-6.60
-7.61
-7.60
-7.40
-7.61
-8.04
-7.62
-5.21
-0.52
5.34
10.18
11.88
9.64
4.64
-0.43
-2.91
-1.63
2.42
6.62
8.25
6.11
1.21
-3.79
-6.06
-4.17
1.14
7.26
11.09
10.62
5.81
-1.27
-7.52
-10.53
-9.73
-6.67
-4.03
-3.90
-6.59
-10.32
-12.64
-12.13
-9.38
-6.76
-6.76
-10.06
-14.78
-17.55
-15.59
-8.74
0.35
7.66
10.16
7.58
2.39
-1.63
-1.61
2.80
9.29
14.10
14.34
9.61
2.32
-3.47
-4.26
0.90
9.71
17.67
20.54
16.62
7.57
-2.44
-9.04
-9.97
-6.15
-0.84
2.36
1.43
-3.19
-9.09
-13.50
-14.97
-14.17
-13.31
-14.65
-18.75
-23.96
-27.17
-25.66
-18.97
-9.16
0.06
5.37
5.59
2.14
-2.23
-5.20
-6.21
-6.52
-7.91
-11.04
-14.47
-15.36
-11.07
-1.12
12.27
24.73
31.87
31.35
24.14
13.73
4.43
-0.96
-2.32
-1.87
-2.75
-7.16
-15.20
-24.95
-33.32
-37.37
-35.43
-27.72
-16.19
-3.95
5.79
10.96
11.38
8.66
5.49
4.16
5.46
8.42
10.97
11.39
9.35
5.80
2.21
-0.98
-4.89
-11.58
-21.89
-34.08
-43.52
-44.49
-33.19
-10.14
19.01
45.74
62.51
66.20
58.83
45.68
31.52
17.80
2.51
-17.67
-44.24
-74.72
-102.94
-121.64
-126.05
-116.36
-97.56
-76.37
-57.80
-42.59
-27.65
-8.62
16.86
47.19
77.11
100.20
112.56
114.48
110.24
105.69
105.13
109.18
114.74
117.07
112.91
102.46
88.99
76.35
66.22
57.84
49.62
41.89
38.31
44.34
63.41
92.94
123.27
141.72
140.09
119.91
92.38
72.51
71.10
89.50
119.81
148.96
162.20
150.55
114.21
61.56
3.85
-50.57
-98.67
-140.24
-175.37
-202.39
-217.89
-218.78
-204.42
-177.61
-143.98
-111.99
-84.82
-62.80
-44.17
-25.83
-5.20
18.41
43.35
65.99
82.43
90.41
88.94
79.41
63.94
44.88
24.04
2.41
-20.15
-43.87
-68.09
-91.78
-113.77
-132.68
-147.46
-157.52
-162.83
-164.13
-162.24
-157.42
-149.78
-139.32
-125.89
-109.60
-92.83
-76.07
-60.33
-47.12
-38.00
-33.00
-33.53
-40.65
-54.61
-74.39
-98.38
-124.85
-151.64
-176.26
-196.03
-208.39
-210.70
-202.36
-181.08
-145.20
-94.45
-29.85
46.27
130.34
217.60
302.92
381.23
448.31
500.12
533.18
545.21
535.31
504.05
453.17
385.58
303.16
210.95
114.49
18.87
-71.46
-153.23
-224.22
-283.11
-329.45
-363.17
-384.70
-395.56
-397.82
-393.55
-384.59
-372.29
-357.14
-340.28
-320.50
-295.42
-262.73
-220.37
-166.65
-100.95
-23.91
62.47
154.90
249.19
340.19
422.18
489.59
537.98
564.14
566.50
545.75
504.24
445.87
374.94
295.78
210.96
124.20
39.64
-40.22
-113.93
-181.12
-241.93
-297.73
-350.81
-403.85
-458.75
-516.11
-574.72
-631.19
-680.80
-718.50
-741.83
-748.50
-736.65
-704.70
-651.35
-575.65
-477.28
-356.98
-216.75
-59.59
109.39
282.99
451.61
603.27
725.00
806.05
841.26
833.09
790.99
728.29
657.84
588.42
523.81
464.21
408.81
357.43
310.78
269.38
232.63
199.02
166.76
135.01
104.36
76.44
53.16
35.43
22.65
12.98
4.39
-4.60
-14.27
-23.61
-31.00
-35.09
-35.55
-33.40
-30.52
-28.58
-28.53
-30.53
-33.67
-36.82
-39.37
-41.78
-45.29
-53.35
-69.60
-96.44
-133.50
-176.36
-217.07
-246.62
-257.39
-246.81
-218.70
-179.32
-135.82
-94.36
-59.18
-32.64
-15.53
-6.98
-4.43
-3.32
1.87
15.39
38.49
68.72
101.35
131.17
154.20
167.79
171.18
163.39
143.74
112.67
72.78
29.31
-10.54
-39.47
-52.24
-48.87
-34.57
-17.43
-4.95
-1.01
-4.80
-12.24
-18.88
-22.27
-22.78
-22.39
-22.72
-23.91
-24.66
-23.34
-19.15
-12.79
-5.90
-0.59
1.90
1.68
-0.10
-1.79
-2.51
-1.76
-0.07
1.36
1.25
-1.10
-5.59
-11.48
-17.85
-24.01
-29.77
-35.59
-42.21
-50.40
-60.51
-72.49
-86.02
-100.69
-116.28
-132.74
-150.32
-169.32
-189.96
-211.99
-234.90
-257.91
-279.99
-299.94
-316.44
-328.17
-333.82
-332.74
-324.14
-307.59
-283.20
-251.73
-214.49
-173.18
-129.82
-86.48
-45.00
-6.84
26.91
55.66
79.26
97.95
112.26
122.89
130.52
135.74
139.04
140.77
141.11
140.13
137.81
134.11
129.03
122.65
115.16
106.79
97.86
88.66
79.50
70.65
62.30
54.53
47.32
40.55
34.05
27.66
21.22
14.65
7.87
0.89
-6.32
-13.74
-21.32
-29.07
-36.87
-44.56
-51.93
-58.81
-65.03
-70.53
-75.38
-79.74
-83.77
-87.45
-90.65
-93.06
-94.30
-94.08
-92.34
-89.28
-85.26
-80.96
-76.72
-72.43
-67.65
-61.74
-54.23
-45.10
-34.88
-24.45
-14.68
-5.89
2.30
10.86
20.99
33.50
48.33
64.55
80.82
95.89
109.32
121.71
134.27
148.36
165.04
184.89
208.04
234.18
262.10
289.17
311.47
324.55
325.01
312.10
288.34
258.70
228.47
201.29
178.05
157.42
137.55
117.74
98.98
83.17
71.76
64.46
59.03
52.35
42.07
27.81
11.48
-3.72
-14.93
-21.00
-22.98
-23.22
-23.69
-24.51
-23.50
-17.43
-4.02
16.21
39.69
61.31
76.95
85.70
89.90
94.64
105.08
124.25
151.95
185.20
219.85
252.05
279.11
299.28
311.29
313.86
305.74
286.16
255.49
215.49
169.02
119.49
70.04
23.07
-20.17
-59.30
-94.45
-125.75
-153.08
-176.07
-194.32
-207.66
-216.31
-220.95
-222.47
-221.76
-219.51
-216.05
-211.48
-205.76
-198.92
-191.12
-182.63
-173.81
-164.98
-156.30
-147.84
-139.58
-131.43
-123.39
-115.45
-107.71
-100.23
-93.09
-86.30
-79.88
-73.79
-68.03
-62.59
-57.47
-52.72
-48.32
-44.25
-40.44
-36.85
-33.45
-30.27
-27.35
-24.69
-22.36
-20.34
-18.53
-16.83
-15.13
-13.45
-11.85
-10.46
-9.41
-8.75
-8.41
-8.24
-8.01
-7.56
-6.83
-5.96
-5.19
-4.83
-5.06
-5.81
-6.76
-7.41
-7.37
-6.55
-5.29
-4.24
-4.12
-5.29
-7.53
-9.99
-11.59
-11.53
-9.76
-7.14
-5.07
-4.96
-7.36
-11.62
-16.08
-18.74
-18.28
-14.87
-10.26
-6.93
-6.74
-10.09
-15.38
-20.18
-22.57
-22.34
-20.66
-18.41
-14.88
-8.36
2.20
15.42
27.58
35.08
37.62
39.46
47.25
65.08
90.46
113.99
123.93
112.76
81.87
41.03
3.15
-22.24
-33.04
-33.74
-31.19
-30.08
-31.10
-31.84
-29.51
-23.47
-15.62
-9.41
-7.46
-10.18
-15.71
-21.01
-23.20
-21.22
-15.96
-9.77
-5.24
-3.93
-5.81
-9.44
-12.75
-14.00
-12.61
-9.24
-5.34
-2.45
-1.42
-2.19
-3.93
-5.51
-6.05
-5.30
-3.63
-1.74
-0.36
0.18
-0.06
-0.68
-1.24
-1.39
-1.08
-0.46
0.22
0.73
1.02
1.10
1.08
1.05
1.10
1.23
1.41
1.65
1.90
2.19
2.53
2.91
3.36
3.89
4.50
5.19
5.93
6.69
7.44
8.20
9.00
9.89
10.90
12.09
13.46
15.00
16.75
18.80
21.41
24.94
29.75
36.06
43.96
53.19
63.11
72.82
81.23
87.14
89.67
88.24
82.66
73.13
60.07
44.13
26.15
7.23
-11.41
-28.41
-42.47
-52.60
-58.45
-60.47
-60.02
-58.34
-56.76
-56.04
-56.05
-55.99
-54.84
-52.00
-47.62
-42.67
-38.48
-36.33
-36.69
-38.86
-41.38
-42.60
-41.33
-37.46
-31.87
-26.07
-21.63
-20.03
-22.26
-28.36
-36.68
-43.50
-43.34
-30.88
-3.80
34.52
75.06
106.02
117.30
105.40
74.64
34.83
-3.24
-31.87
-47.72
-50.79
-42.61
-25.66
-3.57
18.06
32.60
34.80
23.53
2.48
-21.15
-40.31
-51.27
-54.69
-53.92
-52.73
-53.14
-55.05
-57.25
-59.01
-60.24
-61.67
-63.76
-66.69
-70.22
-74.20
-79.20
-85.95
-94.25
-102.08
-105.80
-101.23
-85.90
-60.83
-30.78
-2.65
17.50
26.92
26.41
19.51
10.21
1.34
-5.29
-8.55
-7.49
-0.64
13.21
33.89
59.53
86.82
111.92
131.47
143.59
147.36
142.86
130.61
110.25
83.17
50.71
14.66
-22.42
-57.11
-86.39
-108.15
-121.18
-125.55
-121.81
-111.08
-94.23
-71.43
-42.69
-9.00
27.52
63.63
95.57
120.71
137.53
146.26
148.71
148.39
146.18
143.02
139.61
136.16
132.20
126.32
116.42
99.50
76.14
48.77
22.35
2.38
-7.51
-8.25
-4.09
-0.84
-2.89
-10.82
-21.60
-29.83
-31.20
-24.95
-14.41
-5.19
-2.12
-6.80
-17.13
-28.93
-38.18
-43.19
-44.90
-45.83
-47.81
-51.03
-53.96
-54.51
-51.76
-46.39
-40.42
-36.03
-34.75
-36.53
-40.07
-43.59
-45.35
-44.83
-42.60
-40.01
-38.53
-39.05
-41.52
-45.23
-49.18
-52.62
-55.56
-58.62
-62.58
-68.23
-75.76
-84.47
-93.04
-100.01
-103.44
-101.79
-94.02
-79.64
-58.82
-32.13
-0.49
34.79
71.72
108.20
142.21
172.70
198.06
216.78
227.89
230.95
225.85
212.99
193.28
167.92
137.24
104.05
70.48
38.42
9.39
-15.76
-36.57
-52.90
-64.98
-73.29
-78.10
-80.22
-80.43
-79.47
-78.25
-77.74
-78.43
-80.67
-84.64
-89.75
-95.74
-102.21
-108.58
-114.29
-118.73
-120.32
-117.12
-107.41
-89.76
-63.89
-30.78
7.66
48.50
88.29
123.43
150.13
164.78
164.84
149.84
120.86
83.29
43.07
4.88
-28.69
-57.23
-81.50
-102.22
-118.68
-129.01
-130.89
-123.29
-106.70
-82.30
-51.41
-14.96
25.88
69.07
111.01
146.68
171.30
179.85
170.57
145.80
111.11
73.46
38.70
9.92
-12.52
-30.03
-44.16
-55.01
-61.29
-61.26
-54.19
-40.93
-24.47
-8.90
1.54
3.75
-2.80
-15.83
-31.07
-43.14
-46.81
-38.71
-17.94
13.60
51.29
88.75
119.33
138.59
144.05
137.13
122.25
104.61
87.62
71.09
51.51
24.67
-11.32
-54.50
-98.42
-134.43
-154.53
-154.42
-134.21
-100.22
-61.95
-28.02
-3.30
13.11
26.17
42.42
66.00
95.73
124.54
141.27
137.33
110.06
64.35
10.38
-40.69
-80.81
-106.84
-119.59
-121.17
-113.23
-96.87
-73.71
-47.20
-22.45
-4.74
2.44
-0.93
-11.35
-23.39
-32.69
-37.44
-38.81
-39.72
-43.39
-51.19
-62.29
-73.68
-81.18
-81.06
-70.85
-50.27
-21.78
9.55
36.98
53.91
56.74
46.40
27.84
7.89
-7.65
-16.46
-19.44
-19.19
-17.67
-15.48
-12.02
-7.03
-1.30
3.50
5.41
3.70
-1.08
-7.31
-13.09
-16.30
-15.13
-8.31
4.35
21.20
39.22
54.96
65.73
70.64
70.96
69.54
69.23
72.82
79.60
86.22
88.85
85.29
77.17
70.10
68.38
73.64
82.68
87.87
82.21
64.53
41.02
22.51
17.76
27.57
43.69
53.32
46.39
21.31
-12.59
-41.45
-54.21
-47.86
-27.75
-3.36
17.08
30.24
37.27
41.59
45.25
48.00
47.49
40.75
26.56
5.92
-18.18
-41.82
-61.67
-76.46
-86.51
-93.12
-98.02
-102.35
-106.41
-109.89
-113.01
-114.06
-112.25
-107.39
-99.79
-90.20
-79.86
-70.00
-61.63
-55.66
-52.88
-53.51
-58.94
-68.65
-79.81
-87.51
-86.45
-73.39
-49.08
-18.27
11.80
34.66
47.24
50.24
46.75
40.09
31.99
22.57
11.55
-0.86
-13.04
-22.65
-28.11
-29.34
-26.98
-22.14
-15.36
-5.82
7.65
25.89
48.43
72.80
94.93
110.68
116.67
111.74
97.22
76.22
52.91
31.53
15.66
7.77
8.23
14.61
22.11
25.14
19.32
4.40
-15.46
-33.80
-44.53
-44.91
-36.61
-24.10
-11.98
-3.18
1.94
4.46
5.35
5.12
3.84
1.63
-0.75
-2.29
-2.62
-2.00
-1.49
-2.31
-4.87
-8.37
-11.42
-12.19
-9.58
-3.69
4.18
12.05
17.84
20.10
18.76
15.52
13.66
17.11
28.49
47.31
69.12
86.83
92.91
83.95
61.08
29.84
-2.26
-28.77
-46.18
-55.27
-59.78
-64.69
-73.64
-87.08
-100.90
-107.51
-98.52
-69.20
-21.96
33.98
85.95
123.34
141.45
142.81
133.37
119.05
103.08
85.62
65.94
45.06
25.86
12.23
6.09
5.68
6.05
2.56
-6.74
-19.68
-31.92
-40.64
-46.57
-53.34
-63.87
-77.24
-88.26
-90.92
-82.68
-66.57
-49.88
-39.00
-35.33
-34.66
-30.69
-20.05
-4.77
9.20
16.63
16.47
12.44
10.27
13.69
22.50
33.39
42.52
46.54
43.83
33.69
15.90
-8.51
-36.13
-61.39
-77.71
-80.64
-70.88
-54.66
-41.33
-38.85
-49.90
-71.24
-95.98
-116.51
-124.40
-116.05
-92.15
-57.18
-18.56
15.70
41.23
56.30
62.44
64.86
70.02
83.24
106.39
137.56
173.33
209.30
240.75
262.24
269.62
261.53
240.93
214.36
184.83
157.14
133.42
111.51
84.20
43.86
-13.61
-86.28
-166.66
-243.77
-304.81
-339.12
-330.34
-275.21
-188.98
-99.67
-32.66
0.71
3.88
-10.65
-30.02
-46.09
-58.40
-69.45
-80.83
-91.33
-98.23
-99.39
-93.78
-81.86
-64.99
-46.22
-28.16
-11.96
2.39
15.32
26.80
36.65
44.36
49.30
50.03
45.80
37.48
27.66
19.52
15.25
15.32
18.41
22.15
23.86
21.91
16.46
9.14
2.21
-2.77
-5.27
-5.87
-5.80
-6.51
-8.95
-13.28
-19.11
-25.63
-32.38
-39.32
-46.73
-54.91
-63.90
-73.11
-81.29
-87.38
-89.46
-85.99
-76.13
-60.08
-38.82
-14.12
11.87
37.04
59.48
77.88
91.43
99.91
103.48
102.67
98.04
90.03
78.82
64.52
47.17
26.83
3.95
-20.39
-44.43
-66.06
-83.03
-93.54
-96.71
-92.80
-83.47
-71.49
-59.88
-51.60
-49.34
-54.66
-67.75
-87.62
-112.02
-137.87
-161.55
-179.42
-187.74
-183.96
-166.77
-136.37
-94.72
-44.93
9.18
63.90
115.85
163.31
205.38
242.28
274.85
303.97
330.50
355.37
379.92
400.91
417.16
422.22
411.81
383.74
338.16
277.38
205.43
127.36
48.39
-26.02
-89.19
-138.57
-173.13
-192.95
-198.96
-192.83
-177.23
-155.89
-132.77
-111.90
-95.83
-84.45
-75.78
-67.26
-57.35
-46.55
-36.71
-28.95
-22.41
-14.40
-2.25
14.07
30.79
41.94
42.51
31.63
12.10
-9.58
-27.31
-38.82
-46.86
-56.70
-71.75
-90.97
-109.28
-121.01
-122.96
-116.42
-105.82
-95.99
-89.80
-87.63
-88.44
-91.03
-94.33
-96.35
-93.48
-81.08
-55.41
-16.07
32.62
82.59
125.01
153.58
166.89
167.69
160.82
150.75
140.22
130.53
122.69
118.22
118.57
123.46
129.51
130.52
119.89
93.72
53.68
6.93
-36.54
-68.10
-83.92
-85.77
-79.32
-70.61
-63.47
-58.52
-54.43
-49.61
-43.52
-36.85
-30.30
-24.16
-17.74
-10.00
0.06
12.30
25.56
37.85
46.79
50.69
48.69
40.84
27.82
10.72
-9.58
-32.41
-57.03
-82.69
-107.71
-130.06
-147.52
-158.21
-160.98
-155.67
-143.17
-123.84
-100.86
-76.59
-52.89
-31.06
-11.99
3.81
16.23
25.31
31.37
34.58
35.73
35.57
34.76
33.72
32.77
31.99
31.44
31.09
30.65
30.22
29.82
29.50
29.22
29.01
28.82
28.70
28.70
28.76
29.02
29.63
30.74
32.52
35.26
39.06
44.15
50.50
57.79
65.51
72.92
79.05
82.82
83.41
80.29
73.36
62.93
49.55
34.07
17.50
0.79
-15.31
-29.98
-42.49
-52.18
-58.70
-62.07
-62.75
-62.00
-60.64
-59.84
-60.08
-61.25
-62.76
-63.82
-63.89
-62.97
-61.87
-61.50
-63.08
-66.81
-72.07
-77.48
-81.58
-83.18
-82.43
-79.81
-76.23
-72.88
-70.34
-69.08
-69.28
-70.33
-70.55
-67.10
-56.85
-37.33
-10.58
18.86
44.67
61.35
66.87
62.97
54.41
46.21
41.77
41.82
45.68
52.33
61.08
71.94
84.46
96.96
106.18
109.22
103.86
90.15
70.67
49.49
30.72
17.04
8.72
3.75
-1.04
-8.21
-18.67
-31.24
-43.32
-52.20
-56.13
-54.58
-48.02
-37.45
-24.40
-11.13
-0.62
3.98
1.06
-8.39
-20.39
-29.41
-31.18
-25.09
-14.33
-4.02
2.47
5.27
8.13
15.85
30.78
50.88
69.68
80.13
77.80
63.17
40.76
17.21
-2.48
-16.65
-26.62
-35.23
-44.30
-53.79
-62.23
-68.26
-71.53
-73.41
-75.99
-81.19
-89.52
-99.59
-108.69
-113.67
-112.15
-103.14
-87.29
-66.42
-42.79
-18.47
4.94
26.46
45.75
62.59
76.70
87.64
94.99
98.53
98.36
95.56
90.81
85.22
79.86
75.63
72.91
71.60
71.12
70.51
69.00
66.17
62.33
58.34
55.33
54.17
55.08
57.45
60.04
61.59
61.30
59.25
56.29
53.64
52.39
53.25
56.53
62.17
69.20
75.29
76.86
70.09
52.85
26.24
-5.04
-34.38
-55.67
-65.90
-66.11
-60.32
-53.23
-48.06
-45.74
-45.71
-47.14
-49.82
-54.20
-60.41
-67.17
-72.34
-73.25
-67.69
-55.10
-36.76
-15.49
5.43
23.31
36.81
46.15
52.33
56.38
58.52
57.98
53.22
42.51
25.34
3.02
-21.54
-44.72
-63.44
-76.11
-83.25
-85.73
-85.40
-83.46
-80.61
-77.22
-73.78
-70.76
-67.78
-63.10
-54.40
-40.81
-23.80
-7.95
1.31
0.64
-8.68
-20.86
-28.22
-24.46
-9.41
12.60
34.23
50.73
59.98
62.69
60.86
55.87
48.18
37.91
26.48
16.04
9.76
10.45
19.38
35.80
56.96
78.67
96.73
108.14
111.52
107.14
96.29
80.64
62.00
41.91
21.35
1.07
-17.94
-34.56
-47.81
-56.99
-62.14
-63.64
-62.48
-59.96
-57.24
-54.98
-53.25
-52.16
-51.62
-51.67
-52.37
-53.87
-56.45
-60.03
-65.27
-70.13
-73.13
-72.70
-67.66
-57.40
-42.14
-23.19
-2.49
17.72
35.73
49.61
58.19
60.83
57.34
48.06
33.27
13.74
-8.88
-31.97
-52.91
-69.13
-79.03
-82.37
-80.38
-76.06
-72.99
-73.39
-77.65
-84.88
-92.95
-99.65
-103.23
-102.89
-99.70
-96.06
-93.79
-94.05
-97.76
-104.05
-110.81
-113.67
-107.70
-89.94
-61.34
-24.71
16.57
55.50
84.11
93.91
82.26
52.99
16.09
-24.95
-67.12
-106.09
-136.46
-150.48
-143.56
-113.57
-61.96
4.06
71.95
131.10
174.77
199.17
215.81
230.51
247.40
268.82
295.00
323.75
345.74
356.57
341.33
294.89
220.39
129.73
36.40
-42.82
-109.57
-165.80
-209.71
-238.27
-246.53
-232.34
-196.16
-141.81
-77.04
-13.18
41.00
81.28
107.11
122.45
130.77
134.38
133.63
127.74
115.29
97.69
78.38
60.68
47.91
41.16
39.59
40.62
41.23
38.63
32.56
24.80
17.68
13.68
13.88
17.78
23.44
28.35
30.47
29.39
26.32
23.14
21.62
22.79
26.86
33.50
41.93
50.46
56.37
56.03
46.06
25.17
-4.45
-37.34
-66.72
-87.29
-97.07
-97.60
-92.34
-84.52
-75.86
-66.58
-56.49
-46.05
-36.48
-28.89
-23.33
-18.57
-12.88
-5.26
3.63
11.57
15.81
14.20
6.25
-6.93
-23.78
-42.69
-62.31
-80.47
-93.93
-99.43
-95.76
-85.80
-75.63
-71.26
-74.55
-81.94
-86.71
-83.81
-73.78
-61.91
-54.81
-55.02
-59.02
-59.30
-49.84
-30.44
-6.93
12.70
23.28
24.70
21.41
18.97
21.00
27.85
37.56
47.98
57.23
63.79
65.99
62.96
55.27
45.38
37.27
34.41
37.92
45.23
51.72
52.41
44.44
28.35
7.59
-13.44
-31.16
-43.53
-49.73
-49.67
-44.07
-35.09
-26.75
-23.85
-29.87
-45.15
-65.35
-82.63
-88.55
-77.48
-49.45
-10.29
30.79
64.84
86.11
93.52
89.78
79.28
66.11
53.04
41.58
32.86
28.12
28.43
33.83
42.83
52.61
60.13
63.46
62.17
57.51
51.65
46.36
42.46
40.16
39.30
39.62
40.04
38.58
33.37
23.89
11.62
-0.33
-8.95
-13.36
-15.68
-19.47
-28.00
-41.36
-55.51
-64.42
-63.52
-52.26
-34.00
-13.67
5.19
21.62
36.58
51.12
65.07
77.09
85.27
88.04
84.87
76.26
63.02
45.87
25.65
3.56
-19.35
-41.94
-62.64
-79.82
-92.30
-100.00
-104.02
-106.09
-107.85
-110.26
-113.24
-115.56
-115.81
-115.17
-112.64
-108.44
-103.31
-98.15
-93.80
-91.22
-91.34
-94.38
-96.37
-94.86
-86.34
-67.98
-39.90
-5.94
27.29
53.04
67.14
69.09
61.46
48.11
32.68
17.52
4.84
-2.96
-3.21
6.37
26.46
54.78
85.91
111.88
124.72
120.59
101.51
74.58
49.12
32.55
27.10
30.04
35.92
40.18
41.45
41.40
41.88
43.17
43.23
38.41
25.52
3.01
-28.36
-65.60
-103.81
-137.76
-162.17
-172.88
-168.84
-152.67
-130.23
-108.25
-92.23
-82.51
-76.84
-71.51
-63.41
-51.51
-36.64
-20.21
-2.75
16.08
37.27
60.76
84.83
106.29
121.57
128.23
126.36
118.48
108.69
101.16
98.12
99.38
102.58
104.54
102.58
95.97
85.98
75.37
67.39
64.45
67.37
75.12
84.50
90.72
88.85
75.44
50.16
16.42
-19.49
-49.99
-68.54
-71.32
-58.40
-32.98
-0.74
31.70
58.44
75.81
83.34
83.04
77.68
68.86
55.96
37.20
11.93
-17.29
-45.09
-65.31
-74.15
-72.00
-62.99
-52.51
-44.60
-39.87
-36.18
-30.64
-21.64
-9.91
2.20
12.18
18.46
20.83
19.90
16.46
10.66
2.60
-8.44
-22.48
-38.50
-54.67
-68.94
-79.79
-86.83
-90.70
-92.58
-93.94
-95.54
-97.28
-98.57
-98.80
-97.87
-96.24
-94.88
-94.64
-96.94
-102.69
-112.03
-123.25
-132.82
-135.85
-128.05
-108.85
-79.28
-44.36
-10.11
18.78
40.78
57.42
71.64
85.53
99.17
111.03
119.09
122.60
122.17
119.38
115.72
111.75
107.07
100.79
92.40
81.04
68.25
55.41
43.59
33.15
23.71
14.41
4.21
-7.19
-19.56
-31.77
-42.70
-51.43
-57.60
-61.61
-64.33
-66.74
-69.35
-71.86
-73.05
-71.38
-65.39
-54.52
-39.34
-21.41
-2.95
14.01
28.23
39.56
48.88
57.41
66.07
74.96
83.18
89.30
91.96
90.46
85.10
77.33
69.15
62.86
60.68
63.81
71.27
79.49
82.55
73.83
48.96
7.50
-45.43
-99.55
-142.25
-162.89
-156.60
-126.03
-80.16
-30.12
13.45
43.87
59.97
64.99
64.49
64.13
68.73
80.35
100.70
128.02
156.48
177.24
180.94
161.00
116.37
52.22
-23.00
-93.95
-146.38
-173.31
-176.62
-163.33
-140.72
-113.82
-85.54
-58.06
-32.78
-11.96
2.49
10.12
12.25
11.61
10.81
11.68
14.87
20.39
26.96
32.98
37.30
40.13
42.58
45.37
48.46
50.69
50.20
44.35
30.83
9.31
-18.46
-48.86
-78.06
-102.92
-121.62
-133.94
-141.33
-145.90
-149.49
-153.82
-159.84
-168.33
-178.73
-188.43
-192.96
-187.67
-169.99
-141.10
-107.86
-75.85
-50.50
-34.11
-24.89
-18.29
-9.58
4.03
22.54
43.58
64.72
84.06
101.11
116.16
129.23
139.73
146.72
149.19
146.68
140.16
131.08
121.33
112.89
106.93
103.75
102.68
102.35
101.08
98.16
93.63
88.22
83.28
79.63
77.34
75.68
74.77
73.47
71.96
70.36
66.66
58.91
43.95
19.69
-12.84
-49.13
-82.72
-107.30
-119.43
-119.22
-109.62
-94.53
-77.29
-60.05
-44.30
-31.73
-24.07
-22.84
-28.10
-37.53
-47.06
-52.04
-49.05
-37.81
-21.75
-6.46
2.97
4.53
0.25
-5.30
-8.10
-6.31
-0.90
5.82
12.22
18.56
26.97
39.50
56.28
75.19
92.89
106.03
111.49
107.17
91.88
66.93
36.78
9.09
-7.55
-7.70
7.51
29.35
44.91
42.75
19.21
-20.24
-63.87
-99.51
-119.88
-124.75
-118.77
-105.55
-89.83
-72.39
-51.96
-27.96
-2.19
21.76
39.95
50.22
53.79
53.27
52.18
53.14
56.53
60.54
62.14
58.53
48.27
31.90
11.86
-8.98
-27.67
-42.23
-52.22
-58.45
-62.61
-66.35
-70.70
-76.39
-83.31
-90.39
-96.25
-100.17
-101.95
-102.12
-102.61
-102.79
-102.69
-102.29
-101.44
-100.09
-97.78
-92.75
-82.08
-62.71
-33.20
5.22
45.32
79.03
100.19
106.78
101.27
88.83
74.56
61.65
50.51
40.17
30.31
21.73
15.89
13.70
14.72
16.93
17.99
15.80
9.76
1.04
-8.26
-16.04
-21.32
-24.61
-27.56
-31.86
-38.38
-46.52
-54.21
-58.69
-57.68
-50.38
-37.34
-20.07
-0.28
20.32
39.68
55.59
66.22
70.89
70.84
68.95
68.35
70.81
75.81
80.83
82.95
80.53
73.82
64.67
55.19
46.68
39.15
31.91
24.62
17.79
12.72
11.00
13.83
21.56
32.15
41.28
43.59
35.17
16.29
-7.77
-28.70
-38.57
-33.26
-14.18
13.19
42.27
67.62
85.57
93.21
87.37
65.75
29.20
-16.37
-60.12
-89.50
-95.31
-74.76
-30.60
28.62
91.81
148.49
190.38
211.87
210.23
185.14
139.83
80.99
17.13
-44.04
-97.71
-142.86
-181.15
-211.07
-230.17
-235.41
-225.01
-200.12
-164.80
-124.06
-82.29
-42.18
-5.00
27.99
55.61
77.11
92.91
105.64
118.95
135.80
156.35
176.32
187.82
183.14
158.22
114.64
57.44
-6.73
-72.96
-136.37
-194.36
-246.01
-290.36
-325.88
-342.15
-332.89
-297.83
-243.26
-178.87
-114.06
-54.55
-1.79
45.09
87.30
123.80
152.58
171.66
181.04
181.39
174.35
162.14
146.49
127.98
104.87
75.71
40.83
2.35
-36.65
-72.71
-102.80
-125.22
-140.02
-149.22
-155.11
-159.80
-164.87
-171.63
-184.50
-201.80
-218.88
-228.98
-224.79
-200.25
-153.52
-87.96
-10.98
70.83
147.34
211.65
260.33
290.79
299.97
285.33
247.90
194.42
136.55
86.72
53.78
39.66
39.73
46.41
52.86
55.61
54.49
51.38
47.21
41.96
34.70
23.90
8.29
-12.72
-38.75
-68.63
-101.00
-135.36
-170.05
-201.52
-224.53
-233.60
-225.45
-201.10
-167.84
-131.79
-99.46
-74.33
-56.01
-41.10
-25.63
-7.16
14.49
37.09
58.83
78.19
94.86
108.76
119.73
127.03
129.80
127.51
120.80
111.79
102.61
95.12
90.10
87.44
86.01
84.40
81.40
76.85
72.02
68.22
67.83
69.84
72.81
74.68
73.44
67.89
58.15
46.05
33.76
23.27
15.47
10.47
7.38
5.20
3.18
1.34
0.66
1.75
5.02
10.57
18.87
30.19
44.02
58.02
65.67
62.39
45.21
15.33
-21.42
-56.07
-80.55
-90.64
-87.07
-74.32
-57.42
-40.65
-25.70
-13.89
-6.94
-7.20
-15.77
-30.91
-47.47
-57.74
-56.07
-41.26
-17.54
8.02
27.99
37.84
35.88
22.16
-1.88
-34.08
-70.55
-105.70
-130.59
-139.34
-129.82
-104.58
-69.69
-32.29
0.34
24.17
36.29
35.56
23.24
4.28
-13.91
-23.16
-17.23
4.61
37.05
70.08
92.62
95.60
75.48
35.32
-15.93
-66.02
-103.27
-119.88
-114.30
-90.84
-57.82
-23.81
4.90
25.51
37.97
42.94
41.38
34.23
23.50
12.29
4.39
2.67
8.05
18.61
30.68
40.56
45.75
46.40
44.35
42.53
43.70
49.61
60.00
72.40
82.43
84.70
74.78
51.26
17.17
-20.64
-52.67
-71.84
-75.98
-68.08
-54.07
-39.61
-27.63
-17.99
-8.82
1.25
11.75
20.99
27.29
29.95
29.85
28.65
28.23
29.67
32.80
36.33
38.61
38.21
34.55
28.25
20.49
12.88
6.60
1.94
-1.82
-6.09
-12.39
-21.69
-33.13
-46.05
-58.87
-69.82
-77.91
-83.08
-86.22
-88.74
-91.75
-95.66
-100.73
-106.96
-114.21
-121.68
-127.21
-127.07
-117.49
-96.43
-65.33
-29.51
4.11
29.37
43.04
45.66
40.44
31.06
20.29
9.68
0.11
-7.30
-10.92
-9.49
-2.76
8.35
22.08
36.84
51.64
66.13
80.82
96.55
113.92
132.60
150.64
164.05
167.65
157.10
131.27
93.75
52.03
15.01
-11.11
-24.28
-26.99
-24.14
-20.24
-17.56
-15.78
-13.55
-10.06
-5.90
-2.46
-0.92
-1.38
-2.83
-3.73
-2.68
0.63
5.54
10.74
15.12
18.26
20.63
23.21
27.19
33.26
41.19
49.96
57.94
63.62
65.92
64.43
59.32
51.15
40.58
28.18
14.61
0.32
-14.10
-27.81
-39.99
-49.87
-56.94
-61.05
-62.75
-62.31
-60.45
-57.85
-55.00
-52.21
-49.69
-47.66
-46.22
-45.45
-45.30
-45.80
-46.91
-48.48
-50.30
-52.28
-54.51
-57.08
-60.04
-63.43
-67.24
-71.21
-75.12
-77.97
-78.78
-76.96
-72.03
-63.88
-52.78
-39.21
-23.78
-6.82
11.46
31.16
50.81
69.42
85.90
99.25
108.77
114.16
116.00
115.29
112.74
108.42
102.14
93.16
80.52
63.87
43.65
21.40
-0.77
-20.84
-38.21
-52.85
-65.29
-76.36
-86.44
-95.66
-104.74
-112.64
-118.30
-119.83
-114.18
-98.45
-71.65
-34.99
4.76
40.03
64.76
76.14
75.37
66.36
53.45
39.75
26.87
15.39
6.21
0.46
-1.48
-0.43
1.63
2.38
-0.04
-6.16
-15.08
-24.42
-31.13
-32.69
-27.97
-18.25
-6.87
0.96
0.59
-9.77
-27.29
-45.29
-55.57
-52.77
-36.72
-11.84
14.73
36.84
51.46
58.68
59.41
53.85
41.18
21.21
-4.28
-31.59
-56.20
-75.21
-88.11
-96.65
-103.10
-108.29
-111.11
-109.10
-101.82
-90.31
-76.15
-59.77
-39.35
-11.96
23.98
66.30
108.93
144.00
165.90
173.79
170.97
163.82
156.85
151.79
148.12
143.18
134.72
122.50
107.59
91.45
74.68
56.92
37.52
15.33
-8.51
-32.55
-54.79
-73.36
-87.28
-96.62
-102.31
-105.62
-107.34
-107.31
-104.74
-98.29
-86.84
-70.12
-48.79
-24.37
1.28
26.10
49.16
69.91
88.97
105.73
119.00
127.32
129.29
124.07
111.78
94.04
73.03
50.01
27.32
5.68
-15.09
-35.52
-55.64
-74.47
-89.98
-100.20
-103.75
-100.13
-89.89
-73.82
-52.65
-27.71
-1.60
21.05
35.12
37.09
27.29
9.94
-8.55
-22.61
-30.16
-32.82
-33.54
-33.40
-30.55
-21.17
-2.87
22.59
48.91
67.75
72.01
60.31
36.89
8.67
-17.59
-38.16
-52.52
-62.04
-68.00
-70.22
-67.44
-58.47
-43.69
-24.97
-5.40
11.55
23.29
28.36
26.72
18.75
6.23
-9.21
-25.89
-41.90
-55.83
-65.91
-70.57
-68.83
-60.59
-46.52
-28.13
-6.94
15.23
37.13
57.94
76.81
92.69
104.47
111.69
114.31
113.17
109.77
105.73
102.51
101.19
102.47
106.42
111.86
115.74
113.61
101.30
77.17
43.60
6.59
-26.36
-49.32
-60.30
-61.40
-56.86
-50.66
-44.91
-39.56
-33.77
-27.18
-20.46
-14.89
-11.24
-9.09
-6.96
-3.31
3.09
12.17
22.73
33.03
41.20
46.13
47.53
45.80
41.55
35.29
27.13
16.93
4.93
-8.56
-22.62
-35.98
-47.43
-56.21
-62.09
-65.55
-67.60
-68.58
-68.89
-68.53
-67.39
-65.49
-63.18
-61.04
-59.69
-59.57
-60.40
-61.93
-63.63
-64.95
-65.60
-65.56
-65.02
-64.58
-65.41
-68.62
-75.32
-84.82
-94.13
-98.46
-92.88
-74.19
-42.64
-2.99
38.14
72.41
92.93
96.29
83.36
58.64
28.77
0.32
-21.47
-33.09
-33.21
-21.97
-1.44
24.68
50.08
68.44
75.13
69.38
54.98
38.39
25.53
18.43
14.14
7.24
-6.72
-27.92
-51.59
-69.66
-75.56
-67.17
-47.21
-22.02
2.24
21.87
36.10
45.67
50.95
51.26
46.34
37.39
28.23
24.05
28.55
41.78
59.20
73.29
77.45
68.81
49.16
23.64
-1.91
-23.47
-39.69
-51.33
-59.82
-66.10
-70.60
-73.76
-76.23
-78.89
-82.54
-87.63
-93.69
-99.55
-103.46
-103.70
-99.25
-89.86
-76.05
-58.91
-39.60
-19.14
1.33
21.20
39.89
56.63
70.61
81.05
87.47
89.85
89.19
86.09
81.66
76.88
72.33
68.25
64.57
61.04
57.47
53.81
49.99
46.30
42.94
39.97
37.40
35.16
33.07
31.00
28.90
26.72
24.63
22.79
21.29
20.28
19.87
20.00
20.58
21.48
22.46
23.36
24.35
24.92
24.69
23.45
20.99
17.23
12.33
6.70
0.98
-4.19
-8.29
-11.02
-12.39
-12.90
-13.13
-13.53
-14.16
-14.62
-14.47
-13.15
-10.39
-6.32
-1.73
2.61
6.27
9.42
12.84
17.25
23.35
31.26
40.31
48.85
55.47
59.39
60.80
60.63
59.74
59.29
58.76
59.17
60.23
60.28
56.32
44.72
23.26
-9.31
-49.85
-91.88
-127.21
-149.46
-155.84
-147.75
-129.46
-104.29
-77.38
-51.00
-26.45
-3.32
17.21
33.20
43.03
46.41
44.40
38.54
31.05
23.24
15.83
8.79
2.31
-2.93
-5.95
-6.02
-3.18
2.19
8.91
15.76
21.57
25.81
28.59
30.17
30.64
29.62
27.84
25.39
22.37
18.56
13.20
5.04
-7.14
-23.64
-43.01
-62.02
-76.98
-85.15
-86.09
-81.53
-74.12
-65.91
-57.57
-48.62
-38.34
-26.99
-15.92
-7.21
-2.55
-2.29
-5.30
-9.70
-13.74
-16.41
-17.61
-17.74
-17.40
-16.82
-15.69
-13.65
-11.10
-9.33
-10.11
-14.92
-24.09
-37.12
-51.98
-65.35
-73.61
-74.25
-66.79
-52.69
-34.78
-16.37
-1.67
7.04
10.96
14.95
25.08
45.94
78.55
119.52
161.82
194.68
209.58
203.65
180.35
145.84
105.42
62.07
16.88
-29.93
-80.88
-136.92
-196.19
-253.70
-304.30
-344.07
-369.82
-378.55
-350.06
-275.95
-167.60
-51.67
48.68
122.87
170.46
196.06
205.87
205.81
197.93
186.27
171.17
154.77
138.79
123.98
111.18
101.81
96.86
93.61
88.25
77.88
62.99
46.39
32.13
23.96
23.10
26.39
25.69
14.49
-8.98
-38.06
-62.10
-71.77
-63.45
-39.85
-8.16
23.00
47.25
60.73
65.39
63.04
55.44
45.15
35.94
31.74
34.83
44.34
55.44
62.89
57.99
33.50
-12.70
-75.91
-145.59
-208.33
-251.80
-268.08
-254.90
-216.18
-159.24
-92.38
-22.83
44.29
105.73
159.09
201.44
230.00
243.43
244.54
240.53
240.34
250.30
270.56
294.39
311.38
313.12
297.38
269.40
238.66
213.41
196.69
185.69
174.38
157.48
133.30
103.64
71.79
39.94
7.66
-27.63
-69.03
-118.74
-177.76
-246.41
-324.89
-412.90
-508.10
-604.61
-692.46
-759.34
-794.12
-790.53
-749.16
-676.67
-583.01
-477.90
-368.23
-257.50
-146.98
-37.40
70.06
173.77
271.95
362.70
443.47
510.66
559.83
586.69
588.42
564.91
519.25
457.10
385.16
308.92
231.76
155.33
80.96
11.11
-49.99
-97.15
-126.35
-137.12
-134.28
-125.69
-118.70
-117.19
-121.06
-127.37
-132.35
-133.51
-130.78
-128.27
-130.40
-138.90
-151.83
-165.23
-175.00
-178.06
-173.12
-161.09
-147.37
-137.04
-132.02
-130.84
-131.78
-134.61
-139.65
-145.86
-150.20
-152.18
-151.28
-147.26
-141.52
-139.12
-146.70
-168.15
-202.31
-216.45
-186.40
-111.66
-16.12
74.06
145.62
198.30
238.47
271.89
299.40
315.07
313.56
296.38
270.45
242.70
218.16
199.17
183.76
165.48
135.29
88.04
24.23
-45.02
-110.46
-165.32
-205.58
-215.66
-190.78
-141.49
-85.48
-35.45
5.90
39.53
64.86
87.05
105.32
113.82
106.66
81.74
40.66
-10.33
-66.39
-120.68
-154.64
-152.86
-114.04
-52.51
11.87
60.06
92.76
113.59
128.73
145.85
166.99
190.74
214.34
235.35
251.96
263.33
267.15
262.34
249.43
228.22
198.17
159.82
115.37
67.90
20.67
-25.61
-71.06
-115.59
-159.29
-200.52
-234.81
-255.69
-257.26
-237.03
-198.44
-149.00
-96.90
-47.92
-3.08
40.10
84.29
128.29
165.65
186.72
183.72
154.92
105.48
44.99
-16.85
-73.74
-124.11
-169.09
-209.64
-244.13
-267.86
-274.80
-260.19
-222.58
-165.30
-96.42
-27.58
28.59
61.39
64.62
38.00
-12.65
-76.75
-141.44
-194.43
-226.57
-233.34
-215.16
-175.94
-121.62
-58.97
5.50
66.33
119.97
165.34
203.08
233.83
256.66
268.28
264.12
240.73
198.23
141.52
79.36
21.95
-21.27
-43.24
-40.29
-13.14
32.42
85.44
131.91
158.40
156.03
122.99
64.43
-9.62
-87.27
-157.24
-210.72
-242.34
-251.02
-239.80
-214.57
-181.98
-147.18
-112.54
-77.80
-41.39
-1.64
42.75
92.90
149.34
210.97
273.74
330.10
370.44
386.27
373.60
334.22
274.85
204.37
130.96
61.08
-0.10
-47.82
-77.60
-86.60
-75.37
-48.38
-12.50
25.92
63.73
101.59
142.11
186.84
233.95
277.90
311.45
328.48
326.30
306.18
272.24
229.57
182.60
134.25
86.27
40.00
-3.19
-42.11
-76.27
-106.33
-133.91
-160.59
-187.03
-212.39
-234.55
-251.11
-260.47
-262.52
-258.66
-251.32
-243.19
-236.58
-233.03
-232.99
-235.91
-240.44
-244.78
-247.13
-246.12
-241.14
-232.33
-220.45
-206.55
-191.76
-176.96
-162.84
-149.79
-138.01
-127.56
-118.43
-110.53
-103.77
-98.15
-93.77
-90.79
-89.19
-88.43
-87.31
-84.04
-76.76
-64.21
-46.26
-24.15
-0.08
23.40
44.15
60.71
72.42
79.10
80.91
78.30
72.13
63.75
54.85
47.11
41.60
38.68
37.85
38.12
38.48
38.23
37.18
35.50
33.52
31.36
28.82
25.35
20.25
12.93
3.35
-7.80
-19.01
-28.20
-33.26
-32.64
-25.88
-13.72
2.09
19.30
35.75
49.70
60.07
66.25
68.10
65.82
60.06
51.96
42.99
34.75
28.48
24.70
23.15
22.95
23.03
22.64
21.48
19.77
17.89
16.10
14.38
12.36
9.53
5.34
-0.54
-8.05
-16.55
-24.69
-30.60
-32.32
-28.43
-18.63
-3.97
13.46
31.07
46.52
58.14
65.17
67.49
65.47
59.84
51.65
42.19
32.89
25.04
19.44
16.31
15.22
15.31
15.66
15.52
14.58
12.92
10.84
8.60
6.28
3.59
0.02
-4.99
-11.78
-20.08
-28.89
-36.55
-41.06
-40.66
-34.47
-22.77
-7.09
10.31
27.04
41.15
51.41
57.32
58.87
56.45
50.75
42.83
34.05
25.89
19.55
15.70
14.26
14.53
15.49
16.18
15.96
14.67
12.51
9.90
7.18
4.43
1.36
-2.58
-7.97
-15.12
-23.74
-32.69
-40.19
-44.18
-42.97
-35.85
-23.39
-7.29
10.12
26.52
40.11
49.75
55.00
55.85
52.69
46.29
37.89
29.03
21.31
16.01
13.63
13.83
15.59
17.61
18.80
18.68
17.35
15.35
13.33
11.58
10.01
8.12
5.28
0.95
-4.98
-12.13
-19.48
-25.52
-28.52
-27.03
-20.31
-8.77
6.09
22.05
36.79
48.46
56.04
59.30
58.54
54.35
47.46
38.77
29.39
20.57
13.47
8.80
6.66
6.48
7.23
7.83
7.51
6.01
3.53
0.51
-2.64
-5.78
-9.02
-12.74
-17.36
-23.17
-30.06
-37.39
-43.88
-47.86
-47.69
-42.29
-31.63
-16.80
0.21
17.10
31.86
43.13
50.27
53.16
52.04
47.42
40.14
31.33
22.39
14.69
9.22
6.31
5.63
6.27
7.15
7.32
6.30
4.12
1.22
-1.83
-4.62
-7.11
-9.62
-12.73
-17.01
-22.78
-29.86
-37.45
-44.23
-48.54
-48.83
-44.10
-34.36
-20.68
-4.93
10.76
24.58
35.36
42.54
46.05
46.00
42.62
36.38
28.16
19.28
11.26
5.45
2.56
2.46
4.27
6.68
8.45
8.82
7.60
5.11
1.94
-1.43
-4.73
-7.99
-11.45
-15.42
-20.20
-25.93
-32.51
-39.38
-45.44
-49.20
-49.05
-43.89
-33.54
-19.01
-2.21
14.54
29.22
40.50
47.88
51.44
51.58
48.77
43.54
36.62
29.00
21.87
16.29
12.92
11.73
12.03
12.77
12.91
11.77
9.21
5.53
1.30
-2.99
-7.01
-10.72
-14.25
-17.81
-21.62
-25.91
-30.81
-36.33
-42.13
-47.42
-50.97
-51.33
-47.30
-38.40
-25.25
-9.43
6.84
21.36
32.57
39.75
42.97
42.74
39.67
34.34
27.33
19.38
11.44
4.58
-0.30
-2.77
-3.00
-1.71
0.13
1.64
2.23
1.78
0.45
-1.48
-3.78
-6.35
-9.25
-12.55
-16.25
-20.31
-24.69
-29.40
-34.39
-39.41
-43.79
-46.47
-46.14
-41.72
-32.84
-20.10
-5.08
10.19
23.77
34.35
41.48
45.35
46.46
45.24
41.97
36.93
30.60
23.87
17.88
13.69
11.91
12.42
14.40
16.63
17.92
17.56
15.44
12.13
8.50
5.39
3.22
1.92
0.99
-0.20
-2.17
-5.19
-9.29
-14.18
-19.19
-23.08
-24.07
-20.42
-11.33
2.17
16.97
28.75
33.80
30.89
22.18
12.46
6.90
8.72
17.94
31.74
45.98
57.03
62.45
60.90
51.63
34.48
10.75
-15.89
-39.43
-53.07
-51.88
-35.24
-7.59
23.17
48.76
63.56
66.00
58.11
43.53
25.70
6.74
-12.36
-30.85
-47.67
-61.43
-71.06
-76.27
-77.69
-76.32
-72.94
-67.72
-60.31
-50.41
-38.23
-24.76
-11.50
-0.06
8.25
12.72
13.44
11.13
6.93
2.14
-2.10
-5.02
-6.28
-6.01
-4.69
-3.02
-1.85
-1.88
-3.52
-6.61
-10.56
-14.52
-17.82
-20.34
-22.53
-25.14
-28.80
-33.57
-38.95
-44.19
-48.77
-52.82
-57.01
-62.16
-68.63
-75.98
-83.01
-88.24
-90.48
-89.22
-84.63
-77.40
-68.44
-58.89
-50.15
-43.85
-41.56
-44.32
-52.10
-63.56
-76.29
-87.50
-94.78
-96.64
-92.69
-83.44
-69.91
-53.37
-35.12
-16.46
1.40
17.42
30.90
41.58
49.65
55.63
60.11
63.59
66.37
68.45
69.69
69.82
68.61
66.02
62.37
58.40
55.09
53.36
53.73
56.08
59.69
63.62
67.08
69.62
71.15
71.89
72.69
75.05
81.05
92.47
110.02
132.78
158.32
183.46
205.12
220.95
229.50
230.06
222.68
208.22
188.46
165.59
141.11
114.85
84.77
48.05
3.24
-47.99
-100.42
-146.82
-180.71
-199.04
-203.35
-199.04
-193.23
-191.95
-198.11
-211.17
-228.01
-244.26
-255.47
-257.97
-249.66
-230.98
-205.52
-179.58
-160.07
-151.57
-153.64
-160.26
-161.99
-149.76
-118.37
-68.03
-3.50
68.45
141.46
211.16
275.56
334.63
389.60
442.15
493.30
542.17
585.66
619.07
637.64
638.45
621.40
589.06
545.33
494.12
438.30
379.53
318.57
255.67
190.82
123.86
54.98
-14.92
-83.88
-149.18
-208.03
-258.50
-299.88
-332.31
-356.02
-370.55
-374.68
-367.21
-348.20
-319.66
-285.46
-250.54
-219.98
-198.09
-187.81
-190.31
-204.38
-226.28
-250.19
-269.62
-279.55
-278.16
-267.61
-252.92
-239.95
-233.00
-233.18
-238.28
-244.04
-246.02
-241.31
-229.31
-211.40
-189.85
-166.60
-142.42
-117.16
-90.60
-63.31
-36.65
-12.17
9.47
29.01
48.17
68.48
90.04
111.29
129.72
143.39
151.97
156.49
158.06
156.19
148.31
130.85
101.60
61.69
16.33
-26.84
-60.59
-80.74
-87.40
-84.25
-76.26
-67.62
-60.44
-54.86
-49.71
-43.33
-34.08
-20.86
-3.47
17.08
38.67
58.63
74.58
85.16
90.35
91.30
89.87
87.98
86.94
86.65
85.31
79.57
65.49
40.37
4.64
-37.63
-79.74
-114.93
-139.04
-151.56
-155.01
-153.09
-148.93
-144.36
-140.27
-137.28
-135.88
-135.75
-134.93
-129.74
-115.80
-89.39
-48.95
4.42
67.31
134.85
201.41
261.19
308.96
341.08
356.77
358.50
351.29
340.71
330.64
321.62
310.89
293.89
266.64
227.51
177.73
120.53
59.81
-0.67
-57.55
-107.51
-147.18
-173.74
-186.22
-186.57
-179.80
-172.76
-171.90
-180.95
-199.44
-222.73
-243.54
-254.27
-249.46
-227.43
-190.80
-145.91
-100.78
-62.75
-36.30
-21.87
-16.08
-13.23
-7.54
4.71
24.08
47.95
71.95
91.50
103.09
104.83
96.38
78.82
54.44
26.80
0.04
-22.09
-37.61
-47.11
-53.18
-58.67
-64.91
-70.96
-74.14
-71.77
-62.54
-46.81
-26.02
-1.79
24.42
50.97
75.79
96.48
111.17
119.48
122.59
122.49
120.68
117.19
110.67
99.49
83.03
62.22
39.34
16.98
-2.97
-19.74
-33.42
-44.45
-53.02
-59.27
-63.76
-67.90
-73.82
-83.75
-98.87
-118.57
-140.42
-160.83
-176.44
-185.30
-187.39
-184.50
-179.32
-174.46
-171.58
-171.18
-172.69
-175.12
-177.60
-179.64
-180.89
-180.73
-178.06
-171.70
-161.14
-147.14
-131.76
-117.35
-105.08
-94.18
-82.10
-65.96
-44.37
-18.49
8.45
32.85
52.72
68.79
84.09
102.49
126.96
158.35
195.19
234.06
270.60
300.62
321.04
330.45
329.27
319.35
303.02
282.09
257.28
228.42
195.40
159.21
122.29
87.96
58.87
35.72
17.04
-0.07
-18.31
-38.92
-61.26
-83.26
-102.05
-114.46
-117.39
-108.14
-85.25
-49.24
-2.98
49.00
102.27
154.34
205.35
257.16
311.22
366.59
419.27
463.29
492.85
504.26
496.95
473.08
436.54
391.72
342.53
292.11
242.67
195.63
151.73
110.91
72.25
34.06
-5.57
-47.93
-92.61
-137.00
-176.68
-206.93
-224.66
-229.77
-225.18
-215.48
-205.02
-196.19
-189.13
-182.63
-175.39
-166.96
-157.44
-146.49
-132.51
-112.91
-85.70
-51.64
-15.53
14.34
28.78
21.12
-9.90
-59.55
-118.78
-177.60
-228.29
-267.09
-293.87
-310.37
-318.29
-318.25
-310.19
-294.37
-272.28
-246.74
-221.03
-197.68
-177.54
-159.84
-143.07
-126.28
-110.00
-96.30
-87.83
-86.41
-91.75
-101.18
-110.31
-114.48
-110.34
-96.92
-75.59
-49.07
-20.01
10.03
40.36
69.86
95.54
112.37
115.00
100.59
70.95
32.48
-6.04
-36.85
-55.58
-61.56
-56.57
-43.06
-23.40
0.09
24.65
47.68
68.05
87.27
109.24
137.97
174.83
216.51
255.54
283.07
292.67
283.22
259.60
230.69
205.77
191.20
188.75
196.23
209.57
224.80
238.84
248.91
251.75
243.28
220.09
181.13
128.88
68.73
6.63
-53.78
-112.56
-172.32
-235.24
-300.00
-360.42
-406.98
-430.39
-425.31
-392.52
-338.51
-272.54
-203.06
-135.04
-69.55
-5.04
60.24
126.18
190.25
248.30
296.46
332.59
356.82
370.47
374.86
370.17
355.39
329.81
294.17
251.27
205.15
159.94
118.94
84.64
59.03
43.47
37.80
39.49
43.86
46.00
43.34
37.19
31.79
31.38
37.35
47.25
56.50
61.58
62.32
61.76
63.99
71.26
82.35
93.24
99.15
96.59
84.87
65.73
42.16
16.85
-8.69
-34.19
-59.86
-85.43
-109.84
-131.45
-148.93
-162.08
-172.03
-180.81
-190.68
-203.42
-220.27
-242.32
-270.40
-304.64
-343.32
-382.02
-413.60
-429.79
-424.10
-394.78
-346.14
-287.55
-230.26
-183.60
-152.23
-135.70
-129.97
-129.83
-130.87
-130.12
-125.65
-115.97
-99.96
-77.46
-49.94
-20.67
5.83
24.86
32.78
27.93
10.92
-15.48
-46.83
-78.28
-105.75
-126.97
-142.01
-152.76
-161.77
-171.03
-181.51
-193.53
-207.51
-224.27
-244.35
-266.79
-288.11
-302.83
-305.36
-292.32
-263.99
-223.97
-177.07
-127.12
-75.95
-24.07
27.59
76.97
121.44
159.30
190.86
218.02
242.64
264.84
282.97
295.08
301.18
304.09
308.24
316.73
329.02
341.07
347.89
347.04
340.37
332.95
329.61
331.33
334.10
330.77
314.74
283.13
237.94
184.50
128.91
75.87
28.00
-13.86
-49.78
-79.82
-103.47
-119.26
-124.99
-118.89
-101.12
-75.27
-48.11
-27.26
-17.80
-19.82
-28.34
-35.98
-36.87
-29.07
-14.44
3.82
23.48
44.02
64.96
83.82
95.83
95.78
81.13
53.83
19.96
-13.13
-40.04
-59.04
-71.36
-78.92
-82.35
-80.78
-73.48
-61.87
-50.32
-44.59
-49.07
-64.24
-86.17
-108.32
-124.45
-131.23
-129.09
-121.11
-110.84
-100.25
-88.94
-75.04
-56.99
-35.06
-11.95
7.89
19.93
21.49
13.33
-0.16
-12.18
-15.82
-6.64
15.66
47.02
80.60
109.08
126.98
132.31
127.04
116.55
108.31
109.61
125.00
154.27
191.92
228.94
256.04
266.85
259.83
237.91
206.62
171.80
137.78
106.68
78.37
50.97
21.65
-12.20
-51.64
-95.20
-139.01
-178.12
-208.28
-227.40
-235.70
-234.77
-226.15
-210.71
-188.90
-161.64
-131.01
-100.20
-72.83
-52.11
-39.69
-35.14
-36.14
-38.90
-39.18
-33.34
-18.56
7.01
44.10
91.68
146.16
201.20
248.84
281.74
295.47
289.84
268.28
235.84
196.72
153.09
105.32
53.13
-3.43
-63.71
-126.86
-192.12
-258.36
-323.24
-382.68
-431.39
-464.40
-478.67
-473.76
-451.53
-415.01
-366.87
-308.74
-241.23
-164.43
-78.54
15.34
114.26
212.56
302.03
373.77
421.07
442.04
440.08
421.84
393.73
358.76
316.10
263.12
198.96
126.64
52.84
-14.66
-69.94
-110.68
-137.75
-153.53
-160.32
-159.62
-152.35
-139.14
-120.72
-97.96
-72.13
-45.08
-19.23
2.90
19.61
30.84
38.34
44.65
51.72
59.82
67.53
72.81
74.54
73.49
72.05
72.87
77.34
84.81
93.11
99.93
104.04
105.58
105.45
104.07
101.02
95.21
85.98
73.83
60.53
48.28
38.85
32.94
30.37
30.76
34.10
41.09
52.67
69.23
89.93
112.18
131.90
144.24
144.88
131.44
104.31
66.60
23.19
-20.89
-61.44
-95.56
-121.54
-138.67
-147.61
-150.71
-151.95
-155.53
-163.80
-175.57
-185.98
-188.26
-176.90
-150.31
-111.74
-68.30
-28.28
1.51
17.76
21.55
17.82
13.76
16.31
29.76
54.29
86.21
119.57
148.48
168.69
177.90
174.94
159.08
130.28
90.49
44.58
-0.25
-36.64
-60.04
-70.53
-72.26
-71.19
-72.11
-76.94
-84.70
-92.79
-98.60
-100.56
-98.40
-92.84
-85.16
-76.84
-69.26
-63.23
-58.81
-55.35
-52.13
-48.76
-45.55
-43.21
-42.24
-42.67
-44.16
-46.27
-48.52
-50.24
-50.10
-46.27
-37.09
-22.04
-2.46
18.67
37.74
51.79
59.25
59.90
54.25
43.16
27.86
10.32
-6.55
-19.59
-26.56
-27.16
-23.24
-17.92
-14.17
-13.52
-15.71
-19.06
-21.28
-20.33
-14.93
-4.83
9.03
24.67
39.27
49.92
54.37
51.70
42.53
28.80
13.08
-1.94
-13.84
-20.81
-21.90
-17.18
-7.70
4.92
18.75
31.86
42.35
48.33
48.38
42.01
30.20
15.36
0.56
-11.46
-18.99
-21.23
-17.69
-7.68
9.27
32.46
59.09
84.55
103.80
113.34
112.27
102.04
85.05
63.39
38.61
12.34
-12.93
-33.99
-48.23
-55.18
-57.21
-58.54
-63.03
-72.21
-84.46
-96.07
-103.22
-103.85
-98.44
-89.24
-79.03
-69.76
-62.06
-55.64
-49.97
-44.80
-40.36
-37.13
-35.43
-35.34
-36.72
-39.39
-43.32
-48.42
-54.39
-60.55
-66.02
-69.99
-71.91
-71.57
-68.91
-64.07
-57.63
-50.78
-45.28
-42.75
-43.68
-46.88
-49.71
-49.30
-43.91
-33.81
-21.05
-8.39
1.97
9.21
13.66
16.06
16.80
15.67
12.14
5.92
-2.63
-12.36
-21.57
-28.47
-31.55
-30.10
-24.38
-15.76
-6.27
1.91
7.07
8.30
5.49
-0.82
-9.74
-20.28
-31.51
-42.62
-53.10
-62.85
-72.18
-81.40
-90.27
-97.44
-100.42
-96.16
-82.02
-56.88
-21.78
20.19
64.59
106.81
143.16
171.48
191.20
202.86
207.43
206.02
199.93
191.04
181.85
175.06
172.54
174.33
178.31
181.00
179.14
171.27
158.25
142.72
127.58
114.59
103.72
93.56
82.34
68.93
53.29
36.40
19.73
4.79
-7.18
-15.55
-20.45
-22.87
-24.55
-27.60
-33.96
-44.63
-59.33
-76.50
-93.83
-109.16
-120.97
-128.62
-132.22
-132.35
-129.86
-125.95
-122.14
-120.15
-121.40
-126.38
-134.12
-142.36
-148.25
-149.39
-144.61
-134.08
-118.97
-100.78
-80.95
-60.82
-41.67
-24.76
-11.19
-1.61
3.88
5.73
4.66
1.58
-2.45
-6.04
-7.33
-4.33
4.31
18.55
36.62
55.48
71.64
82.19
85.53
81.65
72.03
59.18
46.10
35.42
28.67
25.86
25.69
26.38
26.58
26.09
25.75
26.85
30.46
37.06
46.62
58.89
73.51
89.60
105.33
118.07
125.24
125.52
119.59
110.02
100.05
92.14
86.96
83.36
79.33
73.15
64.10
52.51
39.17
24.71
9.41
-6.57
-22.80
-38.31
-51.88
-62.39
-69.36
-73.19
-74.99
-76.27
-78.33
-81.91
-87.02
-93.10
-99.32
-105.06
-110.10
-114.60
-118.99
-123.54
-128.29
-132.97
-137.15
-140.20
-141.33
-139.44
-133.12
-120.97
-102.21
-77.11
-47.15
-14.67
17.81
48.26
75.43
98.71
117.81
132.59
143.18
150.21
154.64
157.35
158.48
157.17
151.84
140.92
123.58
100.01
71.34
39.33
6.08
-25.96
-53.92
-74.80
-86.27
-87.47
-79.56
-65.33
-48.24
-31.16
-15.63
-1.87
10.75
23.11
36.10
50.43
66.68
84.92
104.36
123.10
138.29
147.05
147.27
138.30
121.07
97.80
71.41
45.27
22.84
7.26
0.77
3.95
15.04
30.22
44.59
53.85
55.93
51.72
44.43
38.19
36.23
39.34
45.95
53.05
57.57
57.55
52.53
43.03
30.24
15.62
0.53
-13.46
-24.68
-31.90
-34.72
-34.23
-32.81
-32.86
-35.59
-41.02
-47.63
-53.34
-56.85
-58.33
-59.87
-64.59
-74.69
-90.05
-108.63
-126.44
-138.95
-142.57
-136.53
-122.16
-104.46
-89.82
-79.46
-72.69
-67.72
-62.38
-56.90
-50.25
-41.31
-29.58
-14.86
2.76
22.33
42.63
62.35
79.97
94.01
102.87
105.27
101.36
93.16
83.67
76.46
74.44
78.82
88.80
101.47
112.69
118.50
116.54
106.36
89.80
70.20
50.98
34.56
21.80
12.56
6.87
5.60
10.00
20.74
36.80
55.16
71.80
83.12
87.41
85.42
79.70
73.15
67.82
64.38
62.36
60.96
59.34
56.88
53.03
47.27
39.07
27.97
13.57
-4.96
-28.81
-59.42
-97.85
-143.94
-195.54
-248.25
-295.84
-331.59
-350.01
-348.31
-327.14
-290.23
-243.16
-191.85
-141.34
-95.25
-55.83
-24.31
-0.99
14.67
24.17
29.72
33.60
37.35
41.28
44.71
46.68
46.81
45.47
43.41
41.38
39.79
38.78
38.58
39.62
42.31
46.55
51.50
55.92
58.86
60.27
60.90
61.64
62.58
62.59
59.81
52.66
40.78
25.36
8.58
-7.30
-20.84
-31.68
-40.31
-47.48
-53.76
-59.47
-64.88
-70.32
-76.17
-82.68
-89.78
-97.03
-103.77
-109.35
-113.50
-116.34
-118.13
-118.87
-117.91
-114.25
-107.07
-96.27
-82.66
-67.77
-53.39
-40.85
-30.53
-21.77
-13.38
-4.33
5.67
16.05
25.84
34.44
42.02
49.54
58.11
68.12
78.61
87.26
91.15
87.95
76.83
58.76
36.10
11.96
-10.66
-29.44
-43.13
-51.67
-55.97
-57.68
-58.80
-61.34
-66.94
-76.60
-90.41
-107.49
-126.13
-144.23
-159.72
-170.80
-176.19
-175.27
-168.23
-155.91
-139.41
-119.45
-95.95
-68.15
-35.35
2.03
41.88
80.82
115.47
143.80
165.65
182.24
195.01
204.69
211.24
214.68
215.89
216.67
218.67
222.14
225.19
224.49
217.03
202.02
181.78
160.99
144.59
135.59
133.99
137.31
142.37
147.19
151.68
157.11
164.50
173.13
180.14
181.51
173.93
156.36
130.66
100.76
71.03
44.37
21.26
-0.26
-23.38
-50.82
-83.22
-118.22
-151.03
-175.95
-188.45
-186.70
-172.21
-149.35
-123.86
-101.56
-87.09
-83.15
-89.88
-104.98
-124.05
-141.99
-154.73
-160.80
-161.71
-160.60
-159.86
-158.84
-153.30
-137.15
-105.89
-59.84
-5.05
48.54
91.26
117.67
128.30
128.05
122.76
115.85
107.14
94.08
74.49
48.91
20.87
-4.76
-24.04
-35.69
-41.26
-44.03
-47.31
-53.27
-62.46
-74.04
-86.36
-97.47
-105.69
-109.78
-108.86
-102.08
-88.60
-68.07
-41.40
-11.54
16.75
38.21
49.14
49.17
41.61
31.92
25.10
23.29
25.15
27.22
26.30
21.27
13.56
5.82
0.03
-3.80
-7.36
-12.95
-21.94
-34.02
-47.31
-59.25
-67.59
-70.97
-69.01
-62.17
-51.39
-37.74
-22.14
-5.39
11.64
27.65
40.74
48.87
50.78
46.75
38.71
29.47
21.40
15.41
10.76
6.15
1.14
-2.98
-3.47
2.43
15.88
35.51
57.94
79.10
95.79
106.55
111.65
112.46
110.68
107.73
104.39
100.67
95.80
88.70
78.64
65.98
52.25
39.45
28.76
19.53
9.24
-5.01
-24.49
-47.48
-69.68
-86.36
-95.03
-97.12
-97.40
-101.56
-113.27
-132.33
-154.92
-175.61
-189.72
-194.92
-191.17
-179.38
-160.00
-132.74
-97.57
-56.33
-13.60
24.15
50.98
63.98
64.49
56.99
46.53
36.18
26.05
14.44
0.14
-15.84
-30.13
-38.83
-39.65
-33.19
-22.39
-10.62
0.11
9.86
19.84
30.83
41.82
50.10
52.52
47.21
34.55
17.05
-1.81
-19.06
-33.09
-43.84
-52.09
-58.69
-63.90
-67.34
-68.36
-66.68
-62.86
-58.29
-54.76
-53.58
-54.77
-56.86
-57.40
-53.91
-44.97
-30.84
-13.24
5.30
22.44
36.60
47.35
55.36
62.09
69.11
77.52
87.11
96.09
101.54
100.40
90.73
72.60
48.14
20.92
-5.19
-27.01
-42.67
-51.77
-55.38
-55.43
-54.20
-53.67
-55.09
-58.67
-63.55
-67.72
-68.02
-60.71
-42.60
-12.80
26.07
68.00
105.39
131.84
144.37
144.03
134.57
120.16
103.55
85.76
67.12
48.46
31.34
17.29
6.50
-2.65
-13.07
-27.40
-46.62
-69.43
-92.90
-113.71
-129.45
-139.33
-144.14
-145.35
-144.20
-141.15
-135.96
-128.35
-118.80
-108.90
-100.95
-96.87
-96.76
-97.98
-95.49
-83.43
-57.52
-17.00
34.78
91.48
146.07
193.29
231.06
260.19
282.83
300.85
315.03
325.36
331.93
335.48
337.00
336.70
333.31
324.37
307.68
283.03
253.02
222.23
195.24
174.39
158.90
145.60
130.92
112.88
91.89
70.06
49.81
32.61
18.63
7.15
-2.55
-10.71
-17.40
-23.05
-28.85
-36.55
-47.67
-62.74
-80.86
-100.07
-118.25
-134.08
-147.55
-159.85
-172.58
-186.94
-203.16
-220.34
-236.70
-250.04
-258.34
-260.39
-255.93
-245.75
-231.25
-214.03
-195.41
-176.26
-157.26
-139.09
-122.70
-109.08
-98.90
-92.14
-88.07
-85.74
-84.48
-84.14
-84.93
-86.94
-89.76
-92.43
-93.62
-91.98
-86.47
-76.63
-62.70
-45.62
-26.91
-8.43
7.98
21.11
30.73
37.79
44.03
51.33
60.97
73.19
87.29
101.95
115.66
127.00
134.80
138.26
137.20
132.17
124.55
116.16
108.72
103.20
99.46
96.24
91.75
84.36
73.27
58.90
42.74
26.79
12.50
0.09
-11.77
-25.35
-42.65
-64.14
-88.27
-111.87
-131.35
-143.95
-148.29
-144.33
-132.83
-114.96
-92.22
-66.70
-41.09
-18.14
0.27
13.89
24.01
32.65
41.32
50.15
58.08
63.99
68.06
72.55
81.10
97.05
121.52
152.34
184.39
211.39
228.11
232.10
224.06
207.36
186.40
164.95
144.72
124.86
102.46
74.04
37.47
-6.76
-55.30
-103.27
-146.16
-181.28
-207.99
-226.97
-239.16
-245.09
-245.01
-239.37
-229.19
-216.08
-201.75
-187.39
-173.37
-159.08
-143.19
-124.40
-102.21
-77.67
-53.30
-32.13
-16.10
-4.77
4.67
15.85
30.90
48.82
65.66
76.50
77.92
69.65
54.32
36.01
18.07
2.08
-12.03
-24.97
-36.85
-46.69
-52.88
-54.02
-49.76
-41.05
-29.78
-17.92
-6.69
3.87
14.79
27.42
42.43
59.37
76.72
92.94
107.47
121.35
136.81
155.93
179.09
204.17
227.17
243.65
250.48
246.93
234.53
216.23
195.22
174.11
154.57
137.36
122.49
109.41
97.01
83.80
68.24
49.26
26.75
1.76
-23.69
-47.48
-68.09
-85.10
-99.23
-111.60
-122.91
-132.77
-139.90
-142.93
-141.45
-136.51
-130.32
-125.36
-123.07
-123.00
-122.62
-118.28
-106.75
-86.76
-59.69
-29.06
0.91
27.14
48.75
66.98
83.98
101.24
118.49
133.74
144.35
148.37
145.42
136.73
124.43
110.77
97.78
87.17
80.22
77.66
79.11
82.95
86.46
86.73
81.84
71.50
57.05
40.52
23.64
7.14
-9.21
-26.01
-43.57
-61.69
-79.93
-97.99
-115.96
-134.09
-152.34
-169.91
-185.30
-196.73
-203.02
-204.32
-202.17
-198.84
-196.24
-195.12
-194.80
-193.80
-190.67
-184.74
-176.22
-165.89
-154.46
-142.24
-129.06
-114.71
-99.16
-82.72
-65.97
-49.37
-33.10
-17.11
-1.26
14.31
29.18
42.78
54.75
65.31
75.33
85.94
97.92
111.19
124.73
136.90
146.01
150.81
150.79
146.15
137.61
126.25
113.33
100.17
88.08
78.02
70.44
65.04
60.84
56.35
50.03
40.90
28.98
15.48
2.49
-7.75
-13.61
-14.69
-11.89
-6.91
-1.63
2.51
4.85
5.56
5.52
6.13
9.01
15.45
25.92
39.64
54.69
68.60
79.30
85.72
87.94
86.75
83.14
77.86
71.43
64.28
56.99
50.15
44.13
38.79
33.57
27.68
20.41
11.35
0.37
-12.32
-26.15
-40.18
-53.30
-64.61
-73.88
-81.68
-89.03
-96.66
-104.42
-111.31
-116.04
-118.02
-117.87
-117.36
-118.48
-122.61
-129.89
-139.44
-149.84
-159.58
-167.06
-170.27
-166.83
-154.63
-132.90
-102.78
-67.17
-29.58
7.24
41.85
73.80
102.70
127.51
146.52
158.01
161.14
156.54
146.37
133.78
122.14
114.00
110.24
109.47
108.08
101.51
86.34
62.53
34.02
7.33
-11.36
-18.81
-15.75
-6.03
5.68
15.93
23.46
28.65
32.18
33.77
32.57
28.05
20.84
12.72
5.88
2.16
2.31
5.85
10.63
14.43
15.97
15.00
12.06
7.79
3.27
-0.36
-2.22
-3.51
-5.06
-6.36
-5.83
-2.13
3.86
9.86
12.74
9.64
-3.40
-27.20
-58.88
-93.71
-127.99
-161.72
-196.11
-232.14
-269.11
-307.86
-346.68
-381.01
-405.08
-414.24
-407.62
-385.45
-348.44
-280.62
-181.98
-69.70
31.65
104.62
155.05
190.90
219.34
241.91
260.17
272.22
277.18
276.43
272.82
268.65
263.02
254.73
243.14
228.75
210.23
187.89
164.33
143.23
127.19
115.36
105.77
96.48
86.89
76.16
65.16
56.31
52.03
53.18
57.79
63.12
66.94
68.39
67.11
63.88
60.26
58.07
58.36
60.73
63.91
66.16
65.57
60.15
48.80
31.89
11.39
-10.01
-29.95
-47.12
-61.35
-73.16
-82.98
-90.61
-95.46
-97.26
-96.76
-95.62
-95.64
-97.93
-102.63
-109.12
-116.91
-125.88
-135.97
-146.45
-155.41
-160.19
-158.60
-150.00
-135.74
-118.50
-101.00
-84.88
-70.46
-57.07
-43.77
-29.87
-15.19
-0.25
13.87
25.90
34.95
41.11
45.52
49.94
55.82
63.50
71.96
79.42
84.33
86.20
85.73
84.25
82.91
82.10
81.30
79.43
75.29
68.08
57.76
45.12
31.60
18.82
7.98
-0.55
-7.20
-12.66
-17.22
-20.39
-21.06
-18.25
-11.84
-3.04
5.81
11.95
13.18
8.59
-0.98
-13.12
-24.61
-32.59
-35.70
-34.69
-31.91
-30.16
-31.31
-35.43
-41.18
-46.79
-51.04
-53.70
-55.12
-55.47
-54.44
-51.62
-47.33
-43.08
-41.19
-43.58
-50.56
-60.36
-69.85
-75.94
-76.89
-72.78
-65.08
-55.67
-46.00
-36.80
-28.18
-20.20
-13.08
-7.31
-3.34
-1.24
-0.48
-0.03
1.33
4.58
10.07
17.35
25.39
33.02
39.41
44.29
47.86
50.58
52.80
54.81
56.91
59.63
63.56
69.07
75.95
83.27
89.69
93.97
95.49
94.52
91.93
88.75
85.68
82.86
79.89
76.06
70.68
63.30
53.83
42.37
29.06
14.03
-2.62
-20.67
-39.62
-58.70
-76.95
-93.44
-107.51
-118.82
-127.32
-133.08
-136.22
-136.64
-133.75
-126.21
-111.97
-89.06
-56.72
-16.53
27.12
68.08
100.34
120.21
127.50
125.11
117.25
107.45
97.35
86.80
75.06
62.05
48.71
36.54
26.43
18.00
9.67
-0.45
-13.30
-28.12
-42.68
-54.46
-61.74
-64.35
-63.53
-61.10
-58.63
-56.99
-56.33
-56.50
-57.35
-58.82
-60.85
-63.10
-64.89
-65.32
-63.65
-59.76
-54.52
-49.65
-46.98
-47.40
-50.24
-53.33
-53.90
-49.89
-40.73
-27.16
-10.53
8.04
27.93
48.60
68.89
86.96
100.70
108.77
111.17
108.98
103.62
95.95
86.06
73.80
59.37
43.53
27.19
10.83
-5.94
-24.00
-43.98
-65.41
-86.25
-103.29
-113.20
-113.67
-104.25
-86.56
-63.64
-38.91
-15.04
6.77
26.61
45.31
63.54
81.26
97.56
111.03
120.36
124.96
125.21
122.32
117.83
112.84
107.41
100.44
90.41
76.47
59.35
41.44
25.65
13.80
5.60
-1.26
-9.67
-21.31
-35.66
-50.36
-62.74
-71.34
-76.57
-80.14
-83.48
-86.57
-87.94
-85.81
-79.76
-71.31
-63.06
-56.83
-51.87
-44.85
-31.65
-9.93
19.18
51.50
81.89
106.83
125.55
139.31
149.42
155.67
156.39
150.12
137.43
121.43
106.39
95.07
86.74
77.50
62.81
40.94
15.15
-6.94
-16.66
-8.75
15.51
48.26
78.10
94.75
92.81
72.79
39.40
-1.52
-45.48
-89.90
-133.01
-172.17
-203.38
-222.30
-226.22
-215.81
-195.34
-171.04
-148.70
-131.59
-119.78
-111.48
-104.69
-98.69
-94.14
-92.19
-93.26
-96.62
-100.97
-105.44
-110.27
-116.55
-125.08
-135.24
-144.50
-148.78
-143.80
-126.59
-96.63
-56.38
-10.77
34.07
72.50
100.73
117.55
123.91
122.09
114.67
103.94
91.94
80.63
71.67
65.82
62.30
58.81
52.40
41.07
24.97
6.60
-10.41
-22.82
-29.06
-29.31
-24.85
-17.02
-6.68
5.76
19.99
35.52
51.58
67.16
81.20
92.52
100.05
102.96
101.04
94.83
85.48
74.36
62.52
50.54
38.75
27.62
18.13
11.48
8.62
9.74
14.00
19.94
25.96
30.81
33.68
34.15
31.89
26.76
19.07
9.88
0.90
-6.10
-10.08
-11.44
-11.97
-14.25
-20.45
-31.45
-46.56
-64.11
-82.45
-100.64
-118.38
-135.64
-152.18
-167.38
-180.48
-191.03
-199.11
-205.29
-210.42
-215.35
-220.80
-227.09
-233.75
-239.10
-240.22
-233.62
-216.57
-188.51
-151.80
-111.10
-71.77
-37.89
-10.84
10.77
30.01
49.87
71.63
94.48
116.19
134.55
148.55
158.81
166.96
174.50
181.74
187.48
189.68
186.57
177.56
163.55
146.51
128.72
111.85
96.71
83.26
71.20
60.03
49.17
38.04
26.36
14.83
5.34
0.75
4.01
17.13
39.89
69.56
101.69
131.35
154.67
168.97
172.62
164.97
147.29
122.24
93.60
65.68
42.24
26.63
20.31
22.61
31.36
45.23
62.42
80.15
95.10
104.03
107.27
107.08
106.28
106.98
112.03
121.95
134.49
145.82
151.54
151.53
147.04
139.14
128.61
119.44
115.69
119.83
131.88
148.69
169.39
192.27
214.39
212.69
173.94
101.83
14.53
-59.07
-119.68
-172.04
-220.17
-266.58
-310.31
-346.40
-370.58
-381.33
-380.15
-371.59
-357.01
-337.50
-314.61
-290.01
-262.88
-232.64
-200.24
-168.37
-141.28
-119.80
-103.49
-91.50
-82.93
-75.63
-68.06
-59.97
-52.21
-46.29
-41.26
-35.48
-27.63
-17.20
-4.09
10.97
26.45
40.59
51.64
59.34
63.98
65.92
65.52
63.42
60.38
57.16
54.26
51.82
49.95
48.56
47.36
46.08
44.53
42.62
40.29
37.43
33.86
29.39
23.98
17.81
11.23
4.71
-1.38
-6.85
-11.80
-16.50
-21.33
-26.59
-32.38
-38.35
-43.66
-47.12
-47.48
-43.86
-36.16
-25.16
-12.32
0.63
12.20
21.44
27.97
31.85
33.33
32.78
30.70
27.73
24.70
22.42
21.49
22.04
23.72
25.86
27.72
28.77
28.83
27.97
26.42
24.33
21.77
18.76
15.37
11.73
8.05
4.52
1.20
-1.95
-5.03
-8.15
-11.51
-15.26
-19.61
-24.59
-29.89
-34.72
-37.87
-38.06
-34.39
-26.80
-16.19
-4.18
7.39
17.05
23.98
28.07
29.71
29.45
27.87
25.45
22.70
20.16
18.31
17.48
17.69
18.64
19.86
20.80
21.12
20.69
19.58
17.98
16.01
13.73
11.07
8.01
4.59
1.01
-2.47
-5.63
-8.43
-11.06
-13.91
-17.41
-21.85
-27.21
-32.94
-38.09
-41.43
-41.80
-38.48
-31.53
-21.77
-10.66
0.24
9.59
16.62
21.11
23.29
23.56
22.45
20.46
18.14
16.00
14.46
13.77
13.92
14.72
15.84
16.94
17.73
18.03
17.72
16.74
15.08
12.76
9.89
6.65
3.31
0.12
-2.78
-5.46
-8.18
-11.34
-15.28
-20.11
-25.52
-30.73
-34.54
-35.72
-33.34
-27.20
-17.99
-7.09
3.86
13.46
20.95
26.18
29.43
31.03
31.19
29.93
27.40
23.95
20.23
17.01
14.93
14.19
14.57
15.51
16.34
16.54
15.88
14.43
12.42
10.13
7.75
5.35
2.94
0.45
-2.16
-4.99
-8.21
-11.98
-16.41
-21.38
-26.36
-30.48
-32.64
-31.86
-27.67
-20.35
-10.88
-0.67
8.92
16.89
22.73
26.36
27.91
27.60
25.71
22.67
19.07
15.60
12.92
11.40
11.08
11.70
12.79
13.86
14.50
14.42
13.50
11.80
9.52
6.95
4.39
1.99
-0.22
-2.37
-4.69
-7.47
-10.92
-15.14
-19.93
-24.68
-28.47
-30.18
-28.95
-24.44
-17.12
-8.01
1.58
10.47
17.83
23.22
26.49
27.63
26.79
24.34
20.89
17.16
13.87
11.50
10.26
10.04
10.55
11.40
12.22
12.69
12.61
11.94
10.77
9.28
7.60
5.82
3.91
1.83
-0.50
-3.18
-6.31
-9.98
-14.13
-18.37
-22.02
-24.12
-23.82
-20.69
-14.91
-7.28
1.05
9.00
15.76
20.92
24.39
26.21
26.50
25.38
23.07
19.93
16.47
13.27
10.84
9.49
9.23
9.74
10.51
10.98
10.74
9.71
8.09
6.20
4.38
2.79
1.41
0.06
-1.43
-3.25
-5.49
-8.22
-11.41
-14.82
-17.96
-20.03
-20.27
-18.17
-13.79
-7.84
-1.43
4.32
8.72
11.58
13.10
13.64
13.38
12.32
10.44
7.87
5.00
2.42
0.65
-0.08
0.10
0.76
1.31
1.30
0.55
-0.80
-2.43
-3.97
-5.22
-6.23
-7.19
-8.36
-9.92
-11.93
-14.31
-16.98
-19.78
-22.53
-24.85
-26.19
-25.92
-23.52
-18.82
-12.13
-4.27
3.72
10.83
16.33
19.87
21.50
21.46
20.10
17.80
14.99
12.11
9.61
7.80
6.80
6.46
6.46
6.43
6.07
5.27
4.06
2.50
0.73
-1.21
-3.31
-5.59
-8.15
-11.09
-14.49
-18.35
-22.38
-26.05
-28.57
-29.13
-27.18
-22.64
-16.01
-8.26
-0.47
6.42
11.83
15.56
17.65
18.17
17.22
14.95
11.71
8.14
5.06
3.21
2.90
3.91
5.54
6.95
7.49
6.92
5.43
3.46
1.43
-0.40
-2.02
-3.53
-5.05
-6.75
-8.76
-11.23
-14.24
-17.65
-20.97
-23.37
-23.89
-21.79
-16.86
-9.62
-1.13
7.30
14.58
20.00
23.37
24.76
24.40
22.60
19.76
16.43
13.26
10.90
9.70
9.66
10.42
11.42
12.12
12.16
11.44
10.07
8.28
6.30
4.29
2.33
0.40
-1.57
-3.70
-6.14
-9.00
-12.28
-15.74
-18.86
-20.87
-20.96
-18.49
-13.35
-6.01
2.58
11.27
19.03
25.26
29.75
32.60
33.99
34.01
32.71
30.20
26.81
23.18
20.02
18.00
17.37
17.99
19.28
20.54
21.15
20.83
19.63
17.86
15.87
13.85
11.80
9.46
6.55
2.88
-1.60
-6.74
-12.25
-17.76
-22.81
-26.79
-29.05
-29.01
-26.45
-21.62
-15.24
-8.34
-1.85
3.49
7.37
9.69
10.50
9.86
7.92
4.96
1.48
-1.90
-4.62
-6.31
-6.94
-6.76
-6.22
-5.75
-5.67
-6.10
-6.97
-8.13
-9.41
-10.73
-12.06
-13.46
-15.05
-16.97
-19.35
-22.25
-25.59
-29.05
-32.12
-34.08
-34.25
-32.16
-27.70
-21.23
-13.48
-5.33
2.32
8.71
13.33
15.93
16.52
15.35
12.85
9.54
5.98
2.64
-0.10
-2.01
-3.04
-3.28
-3.02
-2.62
-2.43
-2.69
-3.45
-4.62
-5.99
-7.42
-8.86
-10.41
-12.20
-14.37
-16.97
-19.91
-22.92
-25.52
-27.09
-26.98
-24.72
-20.24
-13.93
-6.51
1.15
8.31
14.47
19.36
22.86
24.85
25.26
24.12
21.67
18.40
14.94
11.89
9.64
8.31
7.71
7.47
7.18
6.49
5.28
3.57
1.52
-0.71
-3.00
-5.32
-7.66
-10.03
-12.45
-14.97
-17.62
-20.37
-23.02
-25.07
-25.82
-24.55
-20.82
-14.65
-6.64
2.30
11.18
19.25
26.13
31.70
36.01
39.13
41.08
41.93
41.86
41.27
40.67
40.56
41.28
42.87
45.10
47.54
49.82
51.71
53.25
54.64
56.13
57.82
59.61
61.28
62.60
63.52
64.30
65.38
67.17
69.85
73.22
76.83
80.41
84.29
89.45
97.23
108.72
124.17
142.76
162.81
182.33
199.43
212.65
220.80
222.91
218.27
206.64
188.56
165.41
139.03
111.18
83.21
55.96
30.08
6.35
-14.23
-30.61
-42.15
-48.91
-52.09
-53.12
-53.98
-56.38
-61.36
-69.15
-79.22
-90.69
-102.70
-114.99
-127.28
-139.74
-152.28
-164.13
-173.61
-178.48
-176.75
-167.73
-153.09
-135.03
-116.92
-101.30
-88.71
-77.76
-66.38
-53.37
-39.57
-28.97
-22.69
-21.98
-25.81
-31.35
-35.52
-36.55
-34.54
-31.07
-31.15
-32.96
-37.14
-43.73
-52.43
-62.74
-73.97
-85.04
-94.79
-107.43
-118.19
-128.94
-142.30
-160.76
-185.55
-215.86
-248.84
-280.56
-313.59
-338.97
-356.76
-368.60
-376.48
-381.50
-383.33
-380.53
-332.18
-287.75
-240.55
-192.63
-146.33
-103.41
-64.50
-29.12
3.99
36.38
63.17
92.13
123.22
155.22
185.83
212.26
232.28
245.14
251.98
250.48
248.77
248.88
251.65
256.85
263.80
271.79
279.97
286.86
287.13
281.44
267.89
246.48
219.41
190.30
162.63
138.45
118.19
99.79
84.32
71.60
61.37
52.54
43.04
30.60
14.05
-5.61
-26.12
-43.69
-56.42
-64.45
-69.36
-72.68
-74.62
-74.14
-69.93
-61.69
-50.38
-37.73
-24.99
-12.38
0.61
14.38
28.30
40.74
49.60
53.36
51.69
45.48
36.47
26.65
17.87
11.68
9.32
11.33
17.47
26.57
36.83
46.49
54.50
60.87
66.22
71.29
76.32
81.03
85.15
88.76
92.02
94.40
93.87
87.18
71.37
45.79
13.38
-20.00
-48.09
-67.17
-77.65
-83.38
-89.19
-98.30
-111.13
-125.98
-140.81
-154.78
-168.43
-182.98
-199.06
-216.03
-232.24
-245.78
-255.32
-260.49
-261.70
-259.54
-254.26
-245.52
-232.78
-215.62
-194.40
-170.17
-144.58
-119.27
-95.47
-73.75
-54.11
-36.32
-20.22
-5.91
6.22
15.73
22.37
26.27
28.04
28.58
28.84
29.56
31.08
33.36
36.11
38.99
41.69
44.03
45.83
46.90
47.02
46.02
43.80
40.35
35.68
29.77
22.61
14.29
5.24
-3.65
-11.05
-15.40
-15.41
-10.47
-1.00
11.52
24.94
37.06
46.22
51.66
53.52
52.47
49.32
44.69
38.97
32.46
25.67
19.33
14.29
11.20
10.23
10.91
12.35
13.55
13.79
12.86
11.05
8.81
6.56
4.41
2.24
-0.22
-3.22
-6.88
-11.25
-16.37
-22.25
-28.73
-35.15
-40.36
-42.87
-41.31
-35.05
-24.44
-10.87
3.74
17.50
29.11
37.98
44.08
47.63
48.83
47.84
44.98
40.85
36.41
32.67
30.37
29.72
30.28
31.18
31.52
30.72
28.67
25.66
22.15
18.53
14.96
11.39
7.68
3.60
-1.05
-6.54
-13.03
-20.45
-28.27
-35.39
-40.33
-41.59
-38.18
-30.07
-18.19
-4.22
9.95
22.70
32.97
40.28
44.51
45.68
43.94
39.59
33.20
25.72
18.29
11.98
7.41
4.55
2.77
1.11
-1.33
-5.10
-10.34
-16.82
-24.27
-32.47
-41.36
-51.03
-61.62
-73.23
-85.85
-99.37
-113.39
-127.15
-139.43
-148.64
-153.08
-151.31
-142.56
-126.94
-105.39
-79.44
-50.74
-20.68
9.80
40.09
69.70
98.11
124.77
149.38
172.06
193.46
214.46
235.73
257.29
278.34
297.46
313.11
323.98
329.21
328.35
321.25
308.08
289.48
266.71
241.48
215.56
190.22
165.94
142.54
119.70
97.64
77.30
60.12
47.50
40.17
38.13
40.79
47.26
56.45
66.91
76.64
83.12
83.86
77.25
63.22
43.28
20.03
-3.73
-25.82
-44.98
-60.91
-73.93
-84.81
-94.49
-103.99
-114.29
-126.14
-139.85
-155.25
-171.58
-187.70
-202.29
-214.21
-222.81
-228.09
-230.70
-231.57
-231.45
-230.46
-227.96
-222.72
-213.43
-199.25
-180.21
-157.41
-132.76
-108.63
-87.38
-71.03
-60.98
-57.71
-60.67
-68.26
-78.11
-87.53
-94.23
-96.71
-94.52
-88.10
-78.32
-66.08
-52.24
-37.63
-23.29
-10.38
-0.09
6.87
10.47
11.52
11.44
11.95
14.72
20.95
31.14
44.95
61.25
78.49
95.04
109.56
121.20
129.45
134.02
134.72
131.51
124.62
114.67
102.61
89.44
76.00
62.76
49.79
36.96
24.19
11.60
-0.50
-11.77
-22.10
-31.72
-41.18
-51.15
-62.14
-74.26
-86.95
-99.06
-108.97
-115.02
-115.99
-111.36
-101.45
-87.24
-70.19
-51.86
-33.69
-16.71
-1.60
11.12
21.06
28.02
32.10
33.96
34.80
36.14
39.54
45.82
54.66
64.77
74.48
82.61
88.80
93.49
97.39
101.40
105.62
109.26
111.01
109.66
104.65
96.00
84.29
70.46
56.95
46.09
39.28
36.60
37.14
39.84
43.83
48.73
54.26
61.52
70.51
79.52
85.83
87.64
85.32
80.90
77.06
75.34
78.04
85.88
98.04
112.58
127.63
141.36
151.52
155.94
140.44
99.56
40.31
-20.42
-67.28
-94.22
-103.95
-102.85
-94.69
-82.06
-63.48
-38.44
-9.35
18.72
41.03
55.30
59.28
54.89
45.79
37.05
31.02
26.52
18.35
3.92
-15.71
-37.86
-61.06
-85.09
-107.28
-126.03
-140.88
-152.24
-160.61
-166.70
-171.49
-175.44
-178.56
-179.81
-178.20
-173.03
-164.14
-151.61
-135.94
-118.01
-98.50
-77.94
-56.61
-35.03
-13.62
7.32
27.96
48.52
69.14
89.92
110.64
130.47
147.85
161.17
169.46
172.89
172.48
169.53
164.89
158.65
150.09
138.26
122.57
103.13
80.64
55.93
29.81
3.22
-22.44
-45.30
-63.36
-75.22
-80.55
-80.14
-75.64
-68.93
-61.73
-55.38
-50.93
-49.24
-51.00
-56.39
-64.79
-75.00
-85.67
-95.74
-104.62
-112.04
-117.82
-122.09
-124.87
-126.03
-125.52
-123.48
-120.27
-116.29
-111.88
-107.45
-104.36
-103.93
-106.73
-112.15
-118.62
-123.99
-126.03
-123.14
-114.76
-102.69
-89.50
-77.08
-66.32
-57.26
-49.66
-43.24
-37.94
-33.94
-32.82
-35.56
-41.15
-47.07
-50.68
-50.50
-46.52
-39.59
-21.76
10.58
55.44
106.52
156.86
201.42
237.04
261.87
275.39
278.61
274.88
264.94
250.23
232.73
214.46
196.86
180.81
166.76
154.59
142.60
128.75
112.71
95.03
76.63
58.47
41.52
26.79
15.03
5.83
-2.08
-9.74
-18.10
-27.66
-38.18
-48.52
-56.97
-62.07
-63.72
-63.18
-62.27
-62.94
-66.21
-71.64
-77.34
-80.84
-80.49
-76.35
-70.32
-65.19
-64.01
-68.33
-77.30
-87.71
-95.22
-96.18
-89.06
-75.08
-57.76
-43.06
-36.48
-40.77
-54.64
-73.47
-90.84
-99.94
-94.78
-71.93
-34.15
10.37
49.78
72.15
69.48
41.19
-4.25
-51.78
-85.86
-99.69
-96.44
-86.27
-80.21
-85.50
-103.73
-131.49
-163.39
-180.50
-169.74
-130.87
-77.29
-23.86
22.67
62.74
98.85
132.12
161.49
182.24
190.80
187.03
175.46
162.61
153.73
151.26
154.74
161.71
166.78
165.79
157.21
143.04
126.66
110.80
96.84
85.17
75.60
65.60
54.24
41.70
29.50
18.60
8.88
-0.62
-11.03
-23.62
-42.73
-65.11
-88.54
-111.09
-132.23
-152.72
-174.01
-197.77
-225.31
-259.18
-296.55
-330.23
-350.72
-350.42
-326.19
-280.41
-220.36
-140.02
-52.59
21.70
70.10
93.61
99.93
96.30
87.61
77.65
70.05
65.86
67.20
74.75
85.92
95.22
97.32
90.49
77.60
63.70
54.36
55.94
72.39
102.96
141.95
181.13
212.77
231.48
235.08
223.27
198.93
166.76
131.33
95.78
61.80
30.43
2.29
-22.29
-43.78
-62.80
-79.81
-94.97
-108.26
-119.45
-128.01
-133.42
-135.45
-134.39
-131.25
-127.12
-122.59
-117.57
-111.41
-103.02
-91.40
-75.92
-56.10
-32.35
-4.53
28.91
70.47
121.74
181.48
244.19
300.59
340.26
354.13
338.62
297.42
239.72
176.33
116.12
63.99
18.54
-16.20
-36.27
-41.34
-34.14
-18.39
1.77
22.25
38.89
50.01
55.15
53.99
46.85
34.46
16.81
-7.94
-40.73
-77.46
-111.79
-137.90
-154.01
-161.23
-161.41
-156.27
-147.61
-137.15
-126.45
-116.81
-108.77
-102.34
-96.85
-91.27
-85.13
-78.86
-73.27
-69.18
-67.13
-66.94
-67.77
-68.55
-68.23
-66.60
-64.26
-62.10
-61.09
-62.24
-66.51
-74.19
-84.13
-93.09
-96.35
-89.38
-70.00
-40.17
-5.84
25.24
46.76
56.29
55.64
49.14
41.05
33.66
27.07
20.31
12.87
5.46
-0.32
-3.06
-2.33
0.92
5.67
10.69
15.57
20.68
26.85
34.77
44.55
55.51
66.32
75.49
81.72
84.37
83.59
80.07
74.90
69.13
63.66
59.00
55.23
52.00
48.74
45.01
40.57
35.46
30.16
25.48
22.21
20.99
22.09
25.05
28.58
30.48
28.32
20.41
6.70
-11.35
-31.74
-53.10
-74.97
-96.99
-117.82
-134.47
-143.26
-141.02
-127.09
-103.72
-74.93
-45.10
-18.26
1.45
9.36
-1.69
-36.08
-92.17
-160.63
-226.21
-273.04
-290.77
-278.37
-243.09
-195.86
-145.32
-94.98
-43.81
10.62
69.00
129.17
187.49
241.07
288.95
331.67
369.12
398.78
415.84
414.97
393.29
352.58
299.27
242.35
190.38
148.77
118.84
98.78
85.31
75.30
66.36
56.78
45.52
32.38
18.36
5.60
-3.32
-6.63
-4.52
0.58
4.90
4.89
-1.12
-12.28
-25.74
-37.98
-46.25
-49.43
-48.30
-45.29
-44.16
-49.42
-65.11
-93.25
-132.15
-175.77
-215.05
-240.84
-247.62
-236.01
-212.62
-187.17
-168.19
-159.70
-160.33
-164.96
-167.66
-164.20
-153.02
-134.80
-111.48
-85.61
-60.08
-37.83
-21.03
-9.97
-2.51
5.23
16.99
34.16
54.77
74.14
87.08
90.21
83.19
68.47
49.74
30.42
12.76
-1.97
-12.90
-19.23
-20.46
-16.99
-10.50
-3.70
0.51
0.05
-5.54
-15.00
-26.01
-36.20
-44.10
-49.66
-54.10
-59.30
-66.89
-77.55
-90.57
-103.86
-114.43
-119.29
-116.23
-104.59
-85.52
-61.47
-35.53
-10.47
11.93
30.92
46.43
58.68
67.66
73.22
75.32
74.30
71.05
66.72
62.41
58.86
56.39
55.03
54.71
55.38
57.01
59.36
61.95
63.99
64.65
63.25
59.52
53.67
46.30
38.14
29.86
21.89
14.25
6.64
-1.56
-11.04
-22.22
-34.82
-47.52
-57.99
-63.48
-61.61
-51.39
-33.68
-11.03
13.09
35.39
53.57
66.68
74.82
78.59
78.63
75.46
69.60
61.82
53.26
45.23
38.93
35.00
33.37
33.29
33.58
33.14
31.21
27.64
22.81
17.36
11.90
6.79
2.03
-2.69
-7.79
-13.75
-20.97
-29.68
-39.76
-50.53
-60.53
-67.66
-69.65
-64.74
-52.45
-33.86
-11.44
11.77
32.95
50.16
62.58
70.28
73.78
73.72
70.75
65.48
58.66
51.17
43.92
37.74
33.20
30.48
29.28
28.97
28.66
27.54
25.07
21.12
15.89
9.83
3.43
-2.91
-8.98
-14.75
-20.37
-26.23
-32.92
-41.03
-50.78
-61.61
-71.92
-79.29
-81.15
-75.66
-62.45
-42.89
-19.62
4.21
25.85
43.53
56.50
64.76
68.58
68.33
64.42
57.57
48.91
40.00
32.44
27.42
25.29
25.40
26.36
26.55
24.76
20.60
14.51
7.48
0.54
-5.65
-11.03
-16.05
-21.43
-27.90
-35.92
-45.61
-56.53
-67.74
-77.71
-84.58
-86.59
-82.56
-72.34
-56.94
-38.30
-18.78
-0.63
14.45
25.38
31.59
32.95
29.69
22.47
12.47
1.15
-9.98
-19.88
-28.18
-35.17
-41.59
-48.21
-55.57
-63.84
-72.76
-81.69
-89.51
-94.76
-96.05
-92.80
-85.76
-76.82
-68.14
-60.86
-54.24
-45.85
-32.75
-12.92
13.87
46.23
82.07
119.54
157.36
194.36
229.01
259.17
282.65
298.04
305.51
306.71
304.09
299.78
294.72
288.34
278.93
264.76
245.15
221.09
194.85
169.05
145.64
125.28
107.63
91.93
77.44
63.24
47.91
29.41
5.82
-23.47
-56.94
-91.12
-121.96
-146.41
-163.42
-173.56
-177.77
-176.28
-168.46
-153.90
-133.52
-110.10
-87.52
-69.22
-56.83
-49.80
-46.18
-43.96
-42.15
-40.95
-41.16
-43.23
-46.71
-50.38
-52.88
-53.44
-52.10
-49.54
-46.56
-43.74
-41.28
-39.15
-37.35
-35.99
-35.33
-35.71
-37.44
-40.76
-45.63
-51.51
-57.17
-60.82
-60.62
-55.37
-45.14
-31.38
-16.41
-2.61
8.37
15.89
20.12
21.60
20.78
17.99
13.57
8.09
2.45
-2.36
-5.61
-7.11
-7.20
-6.59
-6.01
-5.99
-6.76
-8.26
-10.37
-12.99
-16.12
-19.83
-24.19
-29.22
-34.85
-40.85
-46.70
-51.46
-53.85
-52.53
-46.60
-36.10
-22.14
-6.64
8.33
21.26
31.47
39.04
44.24
47.17
47.57
45.24
40.40
34.01
27.47
22.07
18.41
16.15
14.30
11.82
8.20
3.66
-1.04
-5.11
-8.19
-10.42
-12.32
-14.47
-17.33
-21.10
-25.84
-31.41
-37.32
-42.63
-45.94
-45.85
-41.36
-32.42
-20.06
-6.02
7.80
19.94
29.62
36.69
41.19
43.15
42.49
39.23
33.80
27.17
20.68
15.60
12.66
11.78
12.17
12.66
12.19
10.24
6.85
2.56
-1.94
-6.13
-9.88
-13.37
-17.04
-21.39
-26.73
-33.14
-40.28
-47.35
-53.11
-56.12
-55.10
-49.43
-39.39
-26.20
-11.67
2.33
14.38
23.75
30.25
33.94
34.93
33.33
29.42
23.85
17.63
11.92
7.69
5.43
4.95
5.61
6.46
6.70
5.85
3.89
1.15
-1.88
-4.76
-7.31
-9.63
-12.01
-14.84
-18.45
-23.07
-28.70
-35.09
-41.54
-46.89
-49.72
-48.65
-42.91
-32.68
-19.14
-4.10
10.55
23.39
33.65
41.13
45.86
47.85
47.15
43.96
38.91
32.98
27.32
22.86
19.97
18.42
17.48
16.31
14.26
11.15
7.22
3.00
-0.97
-4.38
-7.20
-9.71
-12.31
-15.41
-19.38
-24.39
-30.38
-36.84
-42.83
-47.00
-47.95
-44.71
-37.14
-26.02
-12.89
0.50
12.66
22.69
30.22
35.19
37.57
37.34
34.62
29.86
23.93
17.97
13.11
10.03
8.79
8.87
9.37
9.46
8.62
6.82
4.35
1.63
-1.07
-3.75
-6.58
-9.80
-13.54
-17.79
-22.50
-27.57
-32.91
-38.14
-42.56
-45.11
-44.63
-40.39
-32.36
-21.42
-8.94
3.66
15.40
25.82
34.76
42.02
47.20
49.69
49.09
45.57
39.97
33.60
27.87
23.76
21.57
20.97
21.20
21.41
20.94
19.51
17.21
14.39
11.49
8.88
6.69
4.81
2.98
0.95
-1.44
-4.26
-7.56
-11.43
-15.88
-20.61
-24.76
-26.91
-25.41
-19.07
-7.65
7.84
25.46
42.97
58.54
71.18
80.73
87.56
92.12
94.84
96.20
97.10
98.92
103.32
111.54
123.85
138.97
154.30
166.71
173.43
173.00
165.46
151.97
134.14
113.36
90.57
66.59
42.48
19.74
0.02
-15.47
-26.62
-34.52
-41.01
-47.94
-56.36
-66.28
-76.77
-86.41
-93.77
-97.72
-97.76
-94.00
-87.01
-77.59
-66.47
-54.36
-42.10
-30.89
-22.21
-17.30
-16.50
-18.73
-21.81
-23.37
-22.05
-17.95
-12.32
-6.54
-1.25
3.64
8.16
11.64
12.64
9.88
3.39
-5.10
-12.85
-17.55
-18.09
-14.59
-7.30
4.01
19.78
39.33
59.57
74.95
79.19
67.81
40.16
-0.50
-48.61
-98.72
-147.14
-192.08
-232.73
-268.15
-296.77
-316.78
-326.84
-326.58
-316.69
-298.81
-275.59
-250.42
-226.93
-207.85
-193.59
-181.46
-166.15
-141.29
-101.63
-44.92
27.06
108.40
189.93
260.81
310.95
333.59
327.45
297.22
252.11
202.72
157.82
122.16
96.25
77.81
63.59
50.66
36.82
20.74
2.04
-18.45
-38.56
-55.45
-66.61
-70.86
-68.72
-62.07
-53.39
-44.99
-38.60
-35.08
-34.33
-35.34
-36.47
-36.08
-33.25
-28.29
-22.60
-18.06
-16.03
-16.81
-19.65
-23.23
-26.42
-28.71
-30.31
-31.79
-33.75
-36.45
-39.83
-43.59
-47.28
-50.54
-53.07
-54.73
-55.60
-55.97
-56.39
-57.50
-59.85
-63.53
-67.96
-71.83
-73.51
-71.55
-65.30
-55.11
-42.26
-28.51
-15.48
-4.28
4.68
11.55
16.67
20.32
22.67
23.79
23.86
23.22
22.32
21.66
21.49
21.81
22.37
22.85
23.07
23.08
23.05
23.11
23.16
22.88
21.82
19.67
16.42
12.40
8.14
4.19
0.84
-2.01
-4.80
-8.22
-12.85
-18.84
-25.66
-32.08
-36.46
-37.19
-33.11
-23.88
-9.98
7.30
26.27
45.06
62.04
75.98
86.28
92.96
96.47
97.50
96.69
94.50
91.22
87.04
82.25
77.22
72.28
67.54
62.81
57.63
51.60
44.64
37.12
29.69
22.95
17.12
11.98
7.11
2.18
-2.85
-7.71
-12.03
-15.56
-18.16
-19.66
-19.61
-17.32
-12.17
-3.99
6.69
18.79
31.03
42.48
52.76
61.81
69.48
75.10
77.66
76.27
70.84
62.41
52.87
44.15
37.29
32.12
27.50
22.34
16.37
10.37
5.66
3.14
2.61
2.75
1.80
-1.50
-7.27
-14.62
-22.27
-29.30
-35.55
-41.56
-48.14
-55.72
-64.14
-72.54
-79.58
-83.72
-83.59
-78.46
-68.51
-55.03
-39.99
-25.48
-12.92
-2.77
5.30
11.84
16.97
20.21
20.83
18.40
13.25
6.45
-0.61
-6.79
-11.55
-14.97
-17.40
-19.21
-20.56
-21.50
-22.18
-22.91
-24.09
-26.04
-28.85
-32.34
-36.16
-40.03
-43.84
-47.72
-51.90
-56.61
-61.79
-67.05
-71.56
-74.22
-73.96
-70.08
-62.51
-51.93
-39.52
-26.57
-14.14
-2.87
7.01
15.36
22.03
26.74
29.29
29.67
28.26
25.71
22.75
20.04
18.02
16.84
16.41
16.46
16.58
16.35
15.52
14.03
12.06
9.80
7.36
4.60
1.21
-3.11
-8.40
-14.53
-21.20
-28.23
-35.54
-42.97
-49.97
-55.52
-58.26
-57.03
-51.37
-41.83
-29.78
-16.86
-4.55
6.31
15.42
22.82
28.59
32.75
35.17
35.83
34.90
32.81
30.23
27.88
26.29
25.67
25.81
26.17
26.14
25.24
23.29
20.40
16.94
13.24
9.58
6.03
2.51
-1.14
-5.18
-9.90
-15.59
-22.38
-30.20
-38.45
-46.06
-51.63
-53.77
-51.62
-45.09
-34.94
-22.55
-9.49
2.90
13.71
22.48
29.06
33.44
35.71
36.07
34.94
32.91
30.63
28.60
27.05
25.89
24.77
23.39
21.53
19.24
16.71
14.22
11.93
9.80
7.68
5.27
2.38
-1.00
-4.69
-8.40
-11.90
-15.16
-18.44
-22.22
-27.01
-33.06
-40.19
-47.54
-53.78
-57.39
-57.16
-52.58
-44.05
-32.69
-19.99
-7.31
4.40
14.62
23.09
29.63
34.03
36.21
36.31
34.85
32.55
30.23
28.44
27.39
26.95
26.79
26.54
25.95
24.90
23.42
21.57
19.41
16.91
14.00
10.58
6.60
2.12
-2.64
-7.43
-12.06
-16.54
-21.11
-26.17
-32.04
-38.74
-45.73
-51.97
-56.11
-56.92
-53.66
-46.43
-36.05
-23.81
-11.08
1.08
12.00
21.24
28.45
33.26
35.45
35.12
32.82
29.48
26.05
23.20
21.15
19.74
18.63
17.61
16.63
15.82
15.30
15.09
15.02
14.81
14.13
12.71
10.46
7.45
3.94
0.29
-3.14
-6.19
-8.89
-11.50
-14.39
-17.92
-22.36
-27.70
-33.55
-39.10
-43.19
-44.56
-42.29
-36.12
-26.57
-14.86
-2.42
9.43
19.85
28.43
35.10
39.86
42.71
43.69
43.07
41.36
39.28
37.47
36.32
35.83
35.61
35.20
34.28
32.84
31.18
29.71
28.66
27.94
27.14
25.72
23.36
20.00
15.94
11.62
7.45
3.63
0.15
-3.19
-6.67
-10.58
-15.16
-20.51
-26.45
-32.37
-37.29
-40.00
-39.54
-35.51
-28.29
-18.89
-8.57
1.56
10.79
18.79
25.42
30.55
34.01
35.66
35.55
34.02
31.70
29.28
27.36
26.23
25.84
25.88
25.96
25.79
25.25
24.46
23.63
22.90
22.26
21.49
20.27
18.33
15.59
12.20
8.48
4.83
1.47
-1.54
-4.36
-7.24
-10.46
-14.21
-18.67
-23.89
-29.82
-36.09
-41.95
-46.35
-48.17
-46.61
-41.50
-33.50
-23.80
-13.77
-4.52
3.36
9.69
14.60
18.19
20.48
21.50
21.39
20.51
19.39
18.54
18.26
18.49
18.90
19.07
18.72
17.85
16.75
15.78
15.20
15.02
15.00
14.69
13.66
11.65
8.66
4.95
0.93
-2.97
-6.44
-9.37
-11.86
-14.08
-16.30
-18.75
-21.68
-25.20
-29.19
-33.17
-36.29
-37.54
-36.10
-31.72
-24.78
-16.24
-7.18
1.46
9.12
15.57
20.70
24.37
26.45
26.88
25.85
23.81
21.36
19.06
17.28
16.08
15.31
14.74
14.13
13.38
12.48
11.49
10.40
9.13
7.50
5.34
2.62
-0.53
-3.82
-6.90
-9.56
-11.79
-13.83
-16.06
-18.95
-22.75
-27.51
-32.89
-38.19
-42.46
-44.65
-43.98
-40.10
-33.27
-24.35
-14.52
-4.99
3.34
10.00
14.90
18.23
20.21
21.05
20.93
20.05
18.69
17.14
15.67
14.42
13.40
12.52
11.66
10.74
9.75
8.68
7.51
6.15
4.55
2.67
0.54
-1.71
-3.96
-6.09
-8.17
-10.39
-13.08
-16.52
-20.77
-25.46
-29.80
-32.76
-33.35
-31.04
-25.90
-18.65
-10.31
-1.95
5.62
11.96
17.00
20.79
23.43
24.99
25.47
24.94
23.57
21.64
19.53
17.59
16.05
14.94
14.13
13.37
12.43
11.20
9.71
8.09
6.45
4.83
3.13
1.18
-1.13
-3.81
-6.78
-9.98
-13.40
-17.12
-21.12
-25.07
-28.29
-29.86
-29.03
-25.51
-19.69
-12.41
-4.70
2.61
9.04
14.41
18.65
21.66
23.35
23.70
22.89
21.30
19.37
17.48
15.84
14.49
13.33
12.32
11.41
10.66
10.11
9.77
9.59
9.33
8.74
7.54
5.57
2.89
-0.24
-3.51
-6.66
-9.60
-12.44
-15.40
-18.68
-22.40
-26.59
-31.11
-35.58
-39.44
-41.94
-42.37
-40.26
-35.63
-28.98
-21.19
-13.16
-5.64
0.90
6.28
10.38
13.15
14.57
14.74
13.98
12.76
11.64
11.07
11.24
11.95
12.80
13.31
13.22
12.56
11.62
10.79
10.35
10.29
10.36
10.20
9.56
8.36
6.75
4.94
3.10
1.27
-0.60
-2.62
-4.94
-7.67
-10.97
-14.99
-19.74
-24.91
-29.81
-33.41
-34.67
-32.91
-28.08
-20.85
-12.33
-3.70
4.10
10.59
15.65
19.37
21.82
23.06
23.14
22.21
20.62
18.82
17.23
16.15
15.61
15.41
15.27
15.00
14.61
14.26
14.13
14.29
14.60
14.75
14.43
13.43
11.74
9.47
6.86
4.11
1.38
-1.20
-3.57
-5.71
-7.72
-9.76
-12.07
-14.84
-18.23
-22.22
-26.51
-30.57
-33.60
-34.73
-33.32
-29.18
-22.72
-14.81
-6.55
1.10
7.52
12.54
16.24
18.76
20.20
20.62
20.12
18.87
17.23
15.56
14.20
13.33
12.92
12.84
12.83
12.70
12.36
11.85
11.25
10.67
10.10
9.41
8.46
7.12
5.32
3.12
0.65
-1.96
-4.60
-7.17
-9.64
-11.98
-14.20
-16.35
-18.52
-20.77
-23.27
-26.11
-29.33
-32.74
-35.86
-37.94
-38.19
-36.03
-31.34
-24.62
-16.71
-8.64
-1.25
4.91
9.57
12.64
14.10
13.98
12.52
10.14
7.45
5.13
3.69
3.38
4.05
5.30
6.62
7.58
7.93
7.68
6.95
5.97
4.91
3.82
2.61
1.13
-0.78
-3.14
-5.80
-8.53
-11.02
-13.10
-14.77
-16.21
-17.73
-19.63
-22.11
-25.23
-28.83
-32.54
-35.72
-37.59
-37.38
-34.60
-29.27
-21.88
-13.29
-4.43
3.96
11.37
17.56
22.34
25.62
27.34
27.63
26.79
25.30
23.65
22.20
21.08
20.27
19.60
18.89
18.00
16.86
15.49
13.92
12.16
10.17
7.83
5.01
1.60
-2.35
-6.61
-10.77
-14.39
-17.12
-18.84
-19.68
-20.03
-20.36
-21.15
-22.69
-24.97
-27.66
-30.11
-31.51
-31.08
-28.36
-23.32
-16.46
-8.59
-0.67
6.52
12.50
17.09
20.33
22.31
23.11
22.83
21.64
19.88
17.98
16.39
15.37
14.94
14.85
14.81
14.61
14.24
13.87
13.72
13.91
14.35
14.70
14.60
13.74
12.04
9.63
6.80
3.83
0.90
-2.00
-5.00
-8.36
-12.32
-16.96
-22.17
-27.56
-32.49
-36.16
-37.81
-36.91
-33.39
-27.64
-20.42
-12.66
-5.18
1.44
6.92
11.15
14.15
15.96
16.64
16.35
15.35
14.02
12.74
11.80
11.30
11.18
11.22
11.17
10.87
10.26
9.35
8.21
6.88
5.36
3.69
1.92
0.14
-1.60
-3.29
-4.99
-6.82
-8.93
-11.46
-14.53
-18.08
-21.87
-25.28
-27.52
-27.71
-25.30
-20.31
-13.38
-5.55
2.07
8.70
14.01
18.03
20.93
22.83
23.69
23.45
22.09
19.80
16.94
13.97
11.31
9.25
7.88
7.14
6.85
6.76
6.62
6.23
5.50
4.43
3.02
1.32
-0.65
-2.87
-5.37
-8.20
-11.40
-15.06
-19.25
-23.99
-29.07
-33.97
-37.86
-39.80
-39.03
-35.20
-28.61
-20.10
-10.77
-1.71
6.33
12.94
18.10
21.91
24.51
25.91
26.08
25.07
23.07
20.51
17.96
16.01
14.95
14.70
14.82
14.66
13.72
11.82
9.19
6.27
3.49
1.03
-1.19
-3.48
-6.11
-9.26
-12.94
-17.09
-21.68
-26.70
-32.07
-37.43
-42.14
-45.31
-46.14
-44.18
-39.55
-32.91
-25.18
-17.34
-10.12
-3.99
0.74
3.81
5.01
4.29
1.85
-1.82
-6.16
-10.74
-15.40
-20.30
-25.66
-31.61
-37.98
-44.49
-50.88
-57.14
-63.52
-70.28
-77.55
-85.27
-93.34
-101.71
-110.51
-119.91
-129.94
-140.37
-150.67
-160.15
-168.13
-174.05
-177.42
-177.77
-174.35
-166.00
-151.21
-128.41
-96.48
-55.29
-5.95
49.60
109.28
171.65
235.69
300.07
361.98
416.63
458.05
481.02
483.22
466.39
435.81
398.14
358.86
320.77
284.13
248.10
212.47
178.44
148.21
123.72
105.54
92.74
83.54
76.55
71.26
67.90
66.27
64.69
60.03
48.77
28.88
1.12
-30.86
-61.76
-86.62
-102.51
-109.25
-108.95
-104.82
-99.86
-95.92
-93.50
-91.99
-90.23
-87.15
-82.20
-75.62
-68.30
-61.44
-56.19
-53.35
-53.36
-56.40
-62.43
-71.27
-82.38
-94.91
-107.74
-119.69
-129.70
-137.05
-141.56
-143.44
-143.10
-140.49
-134.61
-123.30
-103.81
-74.09
-34.28
12.34
59.60
100.05
127.30
137.91
132.21
113.69
87.50
58.88
32.07
9.86
-6.14
-15.23
-17.33
-12.87
-2.72
11.64
28.15
44.19
56.94
63.88
63.66
56.48
44.18
29.52
15.30
3.67
-3.98
-6.87
-4.50
3.21
15.44
30.00
43.42
51.82
52.40
44.65
30.64
14.12
-1.03
-12.28
-19.00
-22.12
-23.10
-23.01
-22.14
-20.19
-16.75
-11.70
-5.37
1.51
7.81
12.16
13.03
9.21
0.24
-13.12
-28.94
-44.74
-58.26
-68.30
-74.93
-79.28
-82.86
-86.87
-91.83
-97.56
-103.40
-108.59
-112.60
-115.20
-116.36
-116.10
-114.34
-110.86
-105.56
-98.62
-90.63
-82.54
-75.35
-69.81
-66.27
-64.68
-64.73
-66.01
-68.22
-71.17
-74.76
-79.00
-83.98
-89.86
-96.85
-104.94
-113.77
-122.44
-129.52
-133.40
-132.68
-126.62
-115.34
-99.76
-81.33
-61.64
-42.06
-23.67
-7.26
6.54
17.20
24.40
28.21
29.18
28.33
26.87
25.88
26.00
27.37
29.72
32.59
35.62
38.66
41.75
44.95
48.20
51.18
53.45
54.55
54.15
52.24
49.06
45.02
40.52
35.84
30.99
25.77
19.79
12.64
3.90
-6.54
-18.34
-30.45
-41.18
-48.49
-50.62
-46.71
-37.15
-23.50
-8.03
7.01
19.90
29.71
36.13
39.25
39.25
36.35
30.88
23.40
14.75
5.99
-1.80
-7.77
-11.55
-13.25
-13.44
-12.92
-12.49
-12.71
-13.83
-15.79
-18.32
-21.03
-23.58
-25.72
-27.45
-28.94
-30.57
-32.80
-36.04
-40.48
-45.89
-51.47
-55.87
-57.34
-54.18
-45.24
-30.44
-10.87
11.42
34.00
54.79
72.47
86.70
97.87
106.62
113.53
118.96
123.08
126.15
128.53
130.80
133.46
136.80
140.72
144.82
148.52
151.22
152.40
151.67
148.71
143.28
135.24
124.65
111.86
97.47
82.29
67.17
52.81
39.53
27.28
15.61
3.87
-8.34
-20.91
-32.96
-42.86
-48.70
-48.90
-42.85
-31.14
-15.53
1.71
18.36
32.86
44.49
53.19
59.17
62.67
63.83
62.80
59.91
55.69
50.88
46.09
41.71
37.77
34.14
30.62
27.20
24.01
21.22
18.89
16.86
14.76
12.18
8.87
4.84
0.39
-4.02
-8.00
-11.41
-14.38
-17.27
-20.58
-24.77
-30.10
-36.44
-43.15
-49.07
-52.76
-52.78
-48.28
-39.26
-26.68
-12.21
2.30
15.32
25.89
33.69
38.78
41.39
41.76
40.15
36.96
32.74
28.17
23.90
20.46
18.02
16.48
15.47
14.60
13.53
12.09
10.19
7.81
4.90
1.42
-2.64
-7.15
-11.85
-16.46
-20.80
-24.86
-28.91
-33.39
-38.69
-44.95
-51.81
-58.31
-63.04
-64.53
-61.74
-54.45
-43.43
-30.18
-16.46
-3.83
6.74
14.82
20.36
23.46
24.21
22.80
19.55
15.05
9.97
4.97
0.45
-3.46
-6.84
-9.87
-12.72
-15.56
-18.60
-22.01
-25.97
-30.52
-35.50
-40.67
-45.83
-51.04
-56.62
-62.96
-70.06
-77.31
-83.60
-87.70
-89.01
-87.95
-85.88
-84.24
-83.37
-81.67
-75.55
-60.54
-32.86
9.34
65.59
133.46
209.03
286.93
360.16
420.37
459.17
470.53
452.97
410.57
351.75
286.20
221.76
162.51
108.86
59.34
12.65
-31.04
-69.88
-101.15
-122.28
-131.78
-129.72
-117.89
-99.56
-78.73
-59.25
-44.00
-34.42
-30.59
-31.52
-35.64
-41.05
-45.89
-48.50
-47.79
-43.48
-36.22
-27.35
-18.49
-11.15
-6.26
-4.03
-3.96
-5.04
-6.06
-6.04
-4.58
-1.96
1.01
3.40
4.63
4.77
4.37
4.18
4.59
5.41
6.01
5.71
4.27
2.18
0.49
0.34
2.39
6.53
11.93
17.49
22.43
26.69
31.02
36.75
45.04
56.13
68.77
80.20
86.74
84.96
72.76
49.88
17.71
-21.50
-65.17
-110.55
-154.57
-193.71
-224.46
-244.23
-252.33
-250.17
-240.84
-227.70
-213.40
-199.34
-185.94
-173.29
-161.43
-150.31
-139.50
-128.09
-114.88
-98.85
-79.65
-57.82
-34.86
-13.07
5.01
17.23
22.63
21.78
16.66
9.86
3.59
-0.97
-3.82
-5.59
-6.90
-7.93
-8.54
-8.66
-8.55
-8.79
-9.95
-12.26
-15.56
-19.37
-23.19
-26.60
-29.36
-31.32
-32.45
-32.88
-32.86
-32.69
-32.57
-32.42
-32.04
-31.25
-30.10
-28.93
-28.26
-28.57
-30.10
-32.86
-36.79
-41.82
-47.82
-54.37
-60.55
-64.95
-66.05
-62.71
-54.63
-42.57
-28.01
-12.75
1.65
14.17
24.32
31.98
37.11
39.64
39.54
36.92
32.28
26.37
20.15
14.44
9.73
6.04
2.96
-0.04
-3.51
-7.77
-12.93
-18.96
-25.77
-33.28
-41.39
-49.96
-58.73
-67.49
-76.11
-84.72
-93.66
-103.23
-113.30
-123.01
-130.85
-134.89
-133.47
-125.59
-111.41
-92.16
-69.78
-46.46
-24.23
-4.61
11.54
24.05
33.48
40.95
47.74
54.93
62.95
71.45
79.55
86.24
90.82
93.16
93.65
93.00
91.86
90.63
89.25
87.29
84.15
79.30
72.54
64.18
54.95
45.83
37.75
31.47
27.62
26.65
28.96
34.63
43.36
54.24
66.00
77.35
87.28
95.27
101.06
104.41
104.93
102.12
95.58
85.35
72.20
57.83
44.67
35.37
31.92
34.81
42.59
52.15
59.78
62.47
58.92
49.78
37.03
23.03
9.62
-2.26
-12.42
-21.08
-28.56
-35.08
-40.68
-45.19
-48.10
-48.69
-46.22
-40.31
-31.10
-19.37
-6.32
6.72
18.49
27.95
34.38
37.44
37.22
34.31
29.73
24.74
20.48
17.69
16.54
16.60
17.05
16.99
15.76
13.19
9.60
5.62
1.88
-1.32
-4.08
-6.88
-10.27
-14.67
-20.15
-26.39
-32.66
-37.87
-40.79
-40.37
-36.04
-27.93
-16.97
-4.47
8.16
19.84
29.92
38.02
43.88
47.19
47.75
45.66
41.51
36.30
31.06
26.58
23.14
20.54
18.30
16.01
13.45
10.65
7.80
5.06
2.49
0.01
-2.55
-5.44
-8.94
-13.33
-18.79
-25.23
-32.16
-38.56
-43.10
-44.45
-41.74
-34.87
-24.66
-12.53
-0.08
11.33
20.84
28.06
32.86
35.17
35.00
32.46
27.98
22.35
16.65
11.88
8.72
7.24
6.92
6.97
6.65
5.59
3.86
1.85
-0.01
-1.56
-2.99
-4.70
-7.14
-10.62
-15.23
-20.83
-27.07
-33.27
-38.50
-41.59
-41.45
-37.51
-29.88
-19.51
-7.85
3.56
13.52
21.38
27.02
30.55
32.11
31.78
29.66
26.05
21.51
16.88
12.99
10.46
9.38
9.34
9.59
9.43
8.42
6.57
4.24
1.88
-0.15
-1.77
-3.14
-4.64
-6.67
-9.61
-13.64
-18.64
-24.08
-29.02
-32.33
-32.92
-30.11
-23.88
-14.86
-4.23
6.60
16.43
24.54
30.85
35.77
39.80
43.18
45.67
46.70
45.70
42.56
37.83
32.52
27.72
24.03
21.38
19.16
16.66
13.46
9.65
5.66
1.95
-1.26
-4.04
-6.75
-9.72
-13.12
-16.96
-21.12
-25.49
-30.06
-34.74
-39.21
-42.81
-44.57
-43.51
-39.03
-31.24
-21.04
-9.86
0.77
9.67
16.20
20.26
22.04
21.83
19.89
16.50
12.13
7.44
3.22
0.13
-1.51
-1.78
-1.15
-0.27
0.33
0.31
-0.40
-1.68
-3.32
-5.18
-7.17
-9.28
-11.53
-13.91
-16.43
-19.16
-22.25
-25.86
-30.00
-34.37
-38.24
-40.58
-40.35
-36.88
-30.17
-20.89
-10.22
0.52
10.19
18.07
23.73
27.07
28.10
27.00
24.09
19.86
14.99
10.22
6.23
3.48
2.12
1.96
2.54
3.26
3.62
3.26
2.06
0.13
-2.37
-5.22
-8.28
-11.47
-14.73
-18.02
-21.37
-24.84
-28.64
-33.00
-38.05
-43.58
-48.83
-52.59
-53.40
-50.13
-42.40
-30.83
-16.87
-2.41
10.85
21.70
29.55
34.35
36.34
35.87
33.35
29.30
24.37
19.30
14.80
11.45
9.49
8.85
9.14
9.84
10.36
10.29
9.36
7.55
4.95
1.79
-1.67
-5.16
-8.48
-11.51
-14.29
-17.04
-20.07
-23.73
-28.23
-33.47
-38.90
-43.52
-46.09
-45.46
-41.01
-32.88
-22.02
-9.86
2.03
12.46
20.74
26.72
30.50
32.25
32.14
30.39
27.42
23.90
20.59
18.16
16.90
16.60
16.72
16.56
15.71
14.06
11.93
9.79
7.99
6.61
5.34
3.63
0.97
-2.94
-7.94
-13.46
-18.77
-23.22
-26.58
-29.11
-31.41
-34.14
-37.56
-41.21
-43.87
-43.75
-38.82
-27.26
-7.90
19.19
52.26
87.78
121.09
147.59
164.10
169.82
166.54
157.94
148.50
142.30
142.13
148.90
161.66
177.86
194.21
207.56
215.84
218.39
215.81
209.30
199.93
188.34
174.94
160.00
143.55
125.16
103.76
77.96
47.00
11.46
-26.32
-62.95
-95.18
-121.07
-140.42
-154.12
-163.12
-167.38
-165.89
-157.34
-141.46
-119.79
-95.49
-72.03
-51.66
-34.43
-18.56
-1.84
16.73
36.08
53.58
66.47
73.18
74.09
71.11
66.63
62.84
61.51
64.32
72.74
87.31
106.36
125.45
138.21
138.47
122.88
92.24
51.34
6.91
-34.98
-70.58
-98.67
-119.58
-133.88
-141.83
-143.75
-140.67
-134.79
-129.21
-126.71
-128.77
-135.15
-144.18
-153.71
-162.27
-169.67
-177.19
-187.28
-202.76
-226.10
-258.47
-298.79
-342.96
-383.94
-412.80
-420.96
-402.72
-357.12
-288.50
-205.02
-116.17
-30.04
48.12
116.08
173.60
221.03
258.67
286.79
306.31
319.04
327.12
331.89
333.12
329.07
317.76
298.69
273.75
246.92
222.65
203.81
190.50
180.20
169.12
153.91
132.70
105.24
72.03
33.48
-10.28
-58.56
-108.94
-156.76
-195.90
-220.95
-229.52
-223.82
-209.76
-194.42
-182.87
-176.30
-172.32
-167.15
-158.28
-145.97
-132.80
-121.91
-114.97
-111.14
-107.80
-102.00
-91.79
-76.91
-58.60
-39.11
-21.24
-8.15
-3.36
-10.34
-31.26
-65.77
-110.11
-157.52
-200.46
-233.61
-256.14
-271.83
-286.77
-305.87
-329.91
-354.69
-372.59
-375.53
-357.96
-318.63
-260.84
-191.19
-117.14
-45.14
20.27
76.33
121.04
152.31
168.56
170.23
161.38
149.55
143.04
147.11
161.09
178.64
191.40
193.73
185.68
172.60
161.62
157.27
159.39
163.90
165.69
161.44
151.01
136.83
122.20
109.62
99.95
92.60
86.07
78.70
69.39
57.94
44.87
31.30
18.74
8.92
3.71
4.40
11.17
22.58
35.86
47.80
55.83
58.46
55.13
45.61
29.77
8.21
-16.69
-40.24
-56.23
-58.79
-44.50
-13.64
30.19
81.50
134.59
184.50
227.14
258.91
276.67
278.12
262.55
231.42
188.09
137.05
82.69
28.41
-23.96
-74.21
-123.24
-172.10
-221.00
-268.63
-312.21
-348.46
-375.00
-391.44
-399.40
-401.30
-398.80
-391.60
-377.72
-354.94
-322.67
-282.82
-239.22
-196.06
-156.21
-120.42
-87.86
-57.32
-28.47
-2.31
19.02
33.19
38.55
34.68
22.63
4.73
-15.96
-36.20
-53.30
-65.48
-71.97
-72.82
-68.77
-61.11
-51.41
-41.22
-31.61
-22.94
-15.05
-7.67
-0.79
5.39
10.96
16.86
24.91
37.02
53.87
74.00
93.99
109.78
118.55
120.06
116.66
112.16
110.05
112.17
118.29
126.66
134.88
140.78
142.83
140.30
132.95
120.81
103.79
81.59
53.94
21.17
-15.14
-51.99
-85.48
-111.82
-128.32
-134.00
-129.39
-116.13
-96.28
-72.06
-45.49
-18.09
9.46
37.45
66.77
98.08
130.92
163.29
192.06
214.22
228.01
233.65
233.06
228.99
223.85
219.05
214.87
210.87
206.54
201.62
196.25
190.50
184.07
176.16
165.71
152.10
135.62
117.54
99.64
83.43
69.58
57.88
47.59
38.12
29.36
21.66
15.55
11.29
8.68
7.06
5.52
3.21
-0.42
-5.42
-11.32
-17.31
-22.49
-26.12
-27.85
-27.67
-25.79
-22.53
-18.15
-12.96
-7.28
-1.51
4.01
9.06
13.61
17.77
21.50
24.46
25.97
25.28
22.00
16.45
9.71
3.27
-1.65
-4.67
-6.30
-7.66
-9.75
-12.85
-16.47
-19.72
-21.93
-23.10
-23.73
-24.37
-25.06
-25.20
-23.96
-20.89
-16.43
-11.89
-8.91
-8.70
-11.54
-16.67
-22.72
-28.35
-32.69
-35.58
-37.39
-38.63
-39.62
-40.39
-40.74
-40.39
-39.17
-36.89
-33.29
-27.97
-20.63
-11.46
-1.39
7.95
14.76
17.87
17.22
13.88
9.47
5.40
2.43
0.62
-0.41
-1.29
-2.78
-5.90
-11.76
-21.19
-34.27
-50.15
-67.23
-83.68
-98.13
-109.96
-119.35
-127.02
-133.96
-140.98
-148.41
-155.80
-162.00
-165.42
-164.68
-159.15
-149.23
-136.04
-120.98
-105.16
-89.28
-73.81
-59.17
-45.82
-34.19
-24.40
-16.30
-9.54
-3.82
1.10
5.47
9.63
14.10
19.41
25.93
33.74
42.64
52.35
62.58
73.20
84.08
95.13
106.19
117.01
127.26
136.51
144.32
150.33
154.36
156.45
156.79
155.48
152.41
147.24
139.61
129.49
117.39
104.32
91.39
79.43
68.71
59.09
50.39
42.73
36.59
32.46
30.46
29.98
29.78
28.39
24.77
18.64
10.59
1.65
-7.09
-14.78
-20.88
-25.16
-27.70
-28.98
-29.86
-31.34
-34.25
-38.84
-44.59
-50.47
-55.40
-58.67
-60.21
-60.44
-60.02
-59.55
-59.63
-60.73
-63.18
-66.84
-70.82
-73.51
-73.01
-68.04
-58.54
-46.06
-33.22
-22.80
-16.68
-15.37
-18.13
-23.83
-31.62
-41.28
-52.88
-66.13
-79.84
-92.13
-101.16
-106.03
-107.24
-106.44
-105.53
-105.87
-107.70
-110.37
-112.83
-114.26
-114.39
-113.55
-112.48
-112.03
-112.89
-115.42
-119.62
-125.15
-131.39
-137.34
-141.60
-142.46
-138.21
-127.75
-111.12
-89.80
-66.21
-42.96
-21.91
-3.88
11.09
23.10
31.87
36.81
37.47
34.14
27.99
20.86
14.61
10.51
9.04
9.77
11.75
13.88
15.30
15.66
15.18
14.41
13.79
13.19
11.73
7.96
0.48
-11.46
-27.72
-47.17
-68.06
-88.23
-105.36
-117.08
-121.29
-116.52
-102.44
-79.96
-51.00
-17.92
17.08
52.16
85.65
115.77
140.52
158.10
167.54
169.09
164.25
155.27
144.49
133.78
124.37
116.80
111.06
106.62
102.51
97.42
90.18
80.27
68.22
55.53
44.27
36.18
31.96
31.07
31.96
32.87
32.68
31.53
30.79
32.56
38.74
50.21
66.39
85.36
104.49
121.12
133.32
140.19
141.76
138.64
131.54
120.92
106.93
89.72
69.70
47.79
25.41
4.22
-14.23
-28.91
-39.45
-46.27
-50.30
-52.59
-53.83
-54.11
-52.99
-49.81
-44.11
-35.79
-25.03
-12.08
2.83
19.36
36.73
53.71
68.84
81.00
89.91
96.07
100.36
103.41
105.32
105.95
105.41
104.34
103.49
103.03
101.84
97.73
88.53
73.35
53.35
31.37
10.75
-5.91
-17.42
-23.77
-25.48
-23.19
-17.62
-10.01
-2.24
3.55
5.72
3.83
-1.27
-7.93
-14.69
-20.78
-26.27
-31.76
-37.82
-44.70
-52.16
-59.46
-65.37
-68.42
-67.15
-60.55
-48.47
-31.60
-11.33
10.67
32.83
53.89
72.99
89.70
104.09
116.50
127.42
137.08
145.30
151.61
155.58
157.16
156.77
154.98
152.18
148.24
142.72
135.23
125.76
114.67
102.42
89.36
75.72
61.90
48.58
36.69
26.93
19.52
13.96
9.36
4.75
-0.53
-6.75
-13.85
-21.48
-29.04
-35.66
-40.40
-42.62
-42.23
-39.87
-36.68
-33.91
-32.56
-33.16
-35.73
-39.85
-44.76
-49.52
-53.35
-55.89
-57.45
-58.83
-60.94
-64.24
-68.55
-73.21
-77.52
-81.21
-84.42
-87.45
-90.39
-93.06
-95.17
-96.68
-97.88
-99.27
-101.18
-103.47
-105.59
-106.90
-107.08
-106.36
-105.52
-105.53
-107.05
-109.97
-113.16
-114.64
-112.30
-104.69
-91.88
-75.50
-58.28
-42.90
-31.13
-23.40
-19.22
-17.75
-18.33
-20.49
-23.62
-26.75
-28.74
-28.79
-26.96
-24.23
-21.95
-21.11
-21.85
-23.50
-25.17
-26.38
-27.41
-29.09
-32.18
-36.80
-42.28
-47.43
-51.15
-52.92
-53.07
-52.53
-52.43
-53.67
-56.64
-61.09
-66.16
-70.40
-72.03
-69.28
-60.87
-46.55
-27.22
-4.83
18.20
39.55
57.54
71.26
80.50
85.48
86.76
85.23
81.96
78.25
75.27
73.85
74.22
76.05
78.62
81.21
83.31
84.77
85.62
85.99
85.95
85.43
84.33
82.48
79.74
75.87
70.55
63.38
54.00
42.30
28.43
12.87
-3.78
-20.76
-37.19
-51.92
-63.42
-69.98
-70.13
-63.22
-49.89
-32.10
-12.68
5.53
20.51
31.40
38.47
42.49
44.16
43.75
41.21
36.50
30.00
22.61
15.56
9.98
6.56
5.39
6.06
7.96
10.42
12.85
14.76
15.71
15.38
13.56
10.24
5.59
-0.01
-6.11
-12.31
-18.27
-23.95
-29.56
-35.60
-42.64
-50.95
-60.07
-68.63
-74.51
-75.41
-69.77
-57.31
-39.31
-18.15
3.39
22.93
38.96
50.83
58.51
62.22
62.29
59.21
53.70
46.84
39.85
33.82
29.48
27.01
26.14
26.32
26.98
27.67
28.12
28.17
27.68
26.42
24.14
20.58
15.68
9.64
2.90
-3.90
-10.23
-15.81
-20.78
-25.72
-31.46
-38.74
-47.77
-57.95
-67.67
-74.66
-76.52
-71.64
-59.72
-42.01
-20.95
0.57
20.07
35.94
47.54
54.95
58.51
58.53
55.31
49.26
41.14
32.10
23.51
16.60
12.11
10.04
9.72
10.06
9.97
8.65
5.79
1.49
-3.98
-10.25
-17.01
-24.02
-31.04
-37.92
-44.70
-51.73
-59.61
-68.89
-79.62
-90.91
-100.84
-106.92
-106.89
-99.67
-85.82
-67.47
-47.55
-28.84
-13.25
-1.57
6.30
11.04
13.53
14.76
15.77
17.70
21.47
27.59
36.06
46.73
59.51
74.71
92.82
113.87
136.80
159.06
177.03
187.06
186.72
175.73
156.16
131.70
106.48
83.99
66.59
55.61
51.81
55.49
66.17
81.97
99.50
114.40
122.88
123.33
117.05
107.64
99.23
94.51
93.78
95.25
96.33
95.03
90.57
83.13
73.22
61.20
47.38
32.37
17.31
3.72
-7.12
-14.76
-19.81
-23.73
-28.24
-34.56
-43.11
-53.29
-63.92
-73.66
-81.64
-87.68
-92.25
-96.10
-99.87
-103.81
-107.78
-111.45
-114.48
-116.60
-117.57
-117.09
-114.74
-110.10
-102.97
-93.53
-82.48
-70.90
-59.99
-50.72
-43.55
-38.43
-34.95
-32.73
-31.56
-31.45
-32.38
-34.13
-36.18
-37.92
-38.88
-38.98
-38.52
-37.96
-37.74
-38.19
-39.49
-41.73
-44.85
-48.64
-52.71
-56.76
-60.82
-65.43
-71.42
-79.41
-89.28
-99.83
-109.07
-114.92
-115.96
-111.97
-103.79
-92.79
-80.32
-67.29
-54.29
-41.86
-30.82
-22.29
-17.37
-16.73
-20.16
-26.68
-34.66
-42.45
-48.76
-52.98
-55.24
-56.13
-56.41
-56.58
-56.76
-56.71
-56.11
-54.82
-52.99
-51.11
-49.82
-49.71
-51.25
-54.72
-60.12
-67.09
-74.74
-81.59
-85.71
-85.21
-78.74
-65.99
-47.96
-26.62
-4.46
16.25
33.97
48.00
58.37
65.32
69.10
69.78
67.48
62.70
56.41
49.99
44.74
41.45
40.08
39.83
39.47
37.93
34.63
29.60
23.28
16.28
9.06
1.80
-5.60
-13.44
-22.11
-31.97
-43.32
-56.06
-69.52
-82.20
-91.91
-96.19
-92.99
-81.43
-62.14
-37.23
-9.61
17.69
42.30
62.76
78.47
89.47
96.03
98.58
97.64
93.94
88.42
82.22
76.44
71.97
69.22
68.07
67.97
68.10
67.61
65.84
62.38
57.18
50.46
42.59
34.08
25.39
16.83
8.47
0.07
-8.88
-19.02
-30.79
-44.07
-57.86
-70.16
-78.28
-79.61
-72.39
-56.44
-33.36
-6.02
22.17
48.26
70.33
87.64
100.26
108.62
113.15
114.16
112.02
107.35
101.07
94.26
87.86
82.37
77.79
73.74
69.76
65.66
61.56
57.72
54.22
50.76
46.56
40.74
32.70
22.49
10.82
-1.16
-12.30
-21.95
-30.11
-37.39
-44.82
-53.40
-63.77
-75.79
-88.31
-99.14
-105.46
-104.60
-94.90
-76.42
-51.06
-22.09
6.90
32.95
54.33
70.56
82.00
89.25
92.73
92.77
89.77
84.53
78.26
72.30
67.69
64.77
63.15
61.95
60.30
57.74
54.37
50.67
47.15
43.90
40.58
36.41
30.67
22.98
13.53
3.09
-7.34
-16.82
-24.84
-31.47
-37.32
-43.31
-50.42
-59.31
-69.96
-81.46
-91.94
-98.88
-99.77
-92.97
-78.29
-57.24
-32.51
-7.18
16.17
36.00
51.80
63.67
71.95
76.86
78.57
77.36
73.80
68.79
63.33
58.36
54.48
51.87
50.33
49.37
48.40
46.93
44.66
41.57
37.85
33.80
29.59
25.31
20.77
15.70
9.83
3.06
-4.47
-12.37
-20.18
-27.44
-33.92
-39.61
-44.71
-49.59
-54.66
-60.38
-67.12
-74.97
-83.46
-91.33
-96.69
-97.36
-91.67
-79.11
-60.63
-38.46
-15.40
5.98
24.00
37.98
48.01
54.56
58.11
59.07
57.78
54.77
50.73
46.42
42.52
39.44
37.22
35.66
34.41
33.24
32.03
30.76
29.37
27.65
25.24
21.71
16.89
10.90
4.23
-2.53
-8.91
-14.79
-20.44
-26.34
-32.93
-40.34
-48.30
-56.22
-63.47
-69.61
-74.64
-79.00
-83.56
-89.32
-96.97
-106.52
-116.92
-126.09
-131.24
-129.64
-119.48
-100.59
-74.72
-45.11
-15.66
10.23
30.48
44.65
53.50
58.34
60.42
60.72
60.14
59.70
60.49
63.28
68.07
73.93
79.30
82.67
83.20
80.99
76.90
72.12
67.69
64.20
61.76
59.99
58.20
55.66
51.84
46.75
41.08
35.95
32.49
31.20
31.75
33.13
34.10
33.79
32.11
29.91
28.79
30.66
36.93
47.91
62.30
77.42
89.87
96.70
96.39
89.25
77.27
63.20
49.66
38.33
29.64
22.97
17.07
10.66
2.79
-6.72
-17.30
-27.64
-36.20
-41.61
-43.19
-41.22
-36.79
-31.52
-26.92
-24.03
-23.24
-24.32
-26.76
-29.97
-33.52
-37.01
-40.04
-42.13
-42.88
-42.13
-40.18
-37.73
-35.70
-35.01
-36.32
-39.97
-45.94
-53.84
-62.95
-72.15
-80.15
-85.66
-87.80
-86.30
-81.54
-74.31
-65.43
-55.43
-44.44
-32.40
-19.42
-6.12
6.35
16.72
23.98
27.83
28.51
26.58
22.41
16.17
8.05
-1.44
-11.26
-20.13
-26.98
-31.43
-33.93
-35.51
-37.27
-39.95
-43.76
-48.49
-53.83
-59.41
-65.00
-70.45
-75.72
-80.96
-86.49
-92.60
-99.30
-106.00
-111.50
-114.21
-112.65
-105.99
-94.45
-79.16
-61.87
-44.26
-27.66
-12.76
0.20
11.12
19.91
26.33
30.30
32.01
32.16
31.82
32.21
34.22
38.07
43.18
48.37
52.35
54.25
53.89
51.73
48.52
44.82
40.85
36.51
31.76
26.80
22.11
18.22
15.45
13.79
12.85
11.99
10.35
6.93
0.73
-8.83
-21.50
-35.86
-49.49
-59.70
-64.40
-62.87
-55.86
-45.07
-32.41
-19.32
-6.71
4.75
14.22
20.66
23.18
21.59
16.74
10.41
4.63
0.93
-0.28
0.33
1.45
1.87
1.08
-0.63
-2.49
-3.74
-4.14
-4.13
-4.53
-6.15
-9.31
-13.71
-18.62
-23.25
-27.12
-30.27
-33.14
-36.32
-40.35
-45.54
-51.91
-59.05
-66.11
-71.68
-74.08
-71.75
-63.81
-50.52
-33.25
-14.12
4.57
20.96
33.89
42.85
47.83
49.07
47.00
42.27
35.79
28.70
22.24
17.47
15.03
14.96
16.73
19.37
21.82
23.22
23.14
21.63
19.09
16.03
12.85
9.74
6.60
3.17
-0.95
-6.13
-12.61
-20.32
-28.69
-36.57
-42.32
-44.22
-40.91
-31.99
-18.20
-1.35
16.19
32.14
44.84
53.51
58.10
59.00
56.79
52.04
45.42
37.70
29.81
22.69
17.14
13.60
12.12
12.26
13.29
14.37
14.74
13.88
11.65
8.22
3.99
-0.58
-5.21
-9.84
-14.59
-19.74
-25.57
-32.35
-40.23
-48.96
-57.82
-65.34
-69.59
-68.62
-61.25
-47.58
-29.13
-8.49
11.54
28.71
41.83
50.72
55.80
57.59
56.49
52.75
46.75
39.26
31.40
24.48
19.48
16.82
16.15
16.59
17.08
16.76
15.31
12.84
9.77
6.47
3.08
-0.53
-4.68
-9.69
-15.77
-23.09
-31.58
-40.98
-50.52
-58.85
-64.17
-64.69
-59.24
-47.81
-31.66
-12.95
5.89
22.87
36.82
47.35
54.52
58.52
59.48
57.59
53.27
47.30
40.75
34.78
30.25
27.49
26.21
25.68
25.00
23.48
20.86
17.31
13.28
9.16
5.17
1.16
-3.25
-8.55
-15.21
-23.43
-33.08
-43.52
-53.53
-61.37
-65.15
-63.35
-55.40
-41.94
-24.76
-6.20
11.51
26.79
38.95
47.95
54.03
57.40
58.17
56.50
52.74
47.56
41.80
36.30
31.72
28.38
26.20
24.84
23.74
22.34
20.21
17.18
13.35
8.99
4.42
-0.21
-4.96
-10.06
-15.81
-22.43
-30.05
-38.62
-47.79
-56.76
-64.21
-68.43
-67.75
-61.15
-48.75
-31.94
-13.03
5.46
21.54
34.21
43.31
49.19
52.19
52.45
50.03
45.21
38.70
31.70
25.51
21.12
18.90
18.45
18.87
19.12
18.40
16.36
13.12
9.08
4.69
0.29
-4.02
-8.31
-12.78
-17.69
-23.32
-29.94
-37.63
-46.12
-54.55
-61.47
-65.02
-63.55
-56.14
-43.08
-25.91
-6.99
11.20
26.78
38.75
47.05
52.13
54.58
54.78
52.97
49.41
44.59
39.28
34.37
30.60
28.32
27.38
27.23
27.17
26.62
25.19
22.77
19.36
15.08
10.11
4.69
-0.92
-6.47
-11.81
-16.97
-22.19
-27.87
-34.45
-42.20
-50.90
-59.67
-67.01
-71.04
-70.02
-63.03
-50.34
-33.45
-14.69
3.49
19.19
31.41
39.98
45.21
47.57
47.46
45.24
41.41
36.70
31.97
28.03
25.36
24.00
23.64
23.78
24.01
24.09
23.83
23.07
21.52
18.90
15.01
9.94
4.10
-1.91
-7.51
-12.37
-16.52
-20.32
-24.37
-29.27
-35.46
-42.93
-51.10
-58.68
-63.90
-64.93
-60.48
-50.34
-35.55
-18.18
-0.63
15.07
27.72
37.05
43.34
46.97
48.21
47.19
44.16
39.77
35.00
30.87
28.11
26.87
26.68
26.77
26.48
25.52
24.00
22.29
20.61
18.94
16.96
14.18
10.29
5.27
-0.51
-6.47
-12.04
-16.90
-21.07
-24.88
-28.83
-33.48
-39.19
-46.03
-53.57
-60.79
-66.15
-67.92
-64.66
-55.88
-42.25
-25.53
-8.08
7.89
20.97
30.64
37.15
41.00
42.58
42.12
39.78
36.00
31.57
27.50
24.67
23.46
23.58
24.27
24.68
24.28
23.06
21.36
19.63
18.04
16.40
14.23
11.03
6.58
1.05
-4.98
-10.85
-15.99
-20.17
-23.50
-26.41
-29.42
-33.10
-37.84
-43.69
-50.25
-56.54
-61.07
-62.25
-58.86
-50.50
-37.88
-22.59
-6.64
8.14
20.53
30.02
36.63
40.57
42.05
41.27
38.54
34.43
29.82
25.62
22.60
21.11
21.01
21.81
22.85
23.53
23.49
22.62
21.04
18.96
16.59
14.02
11.23
8.02
4.20
-0.32
-5.46
-10.92
-16.28
-21.13
-25.30
-28.82
-31.94
-35.09
-38.71
-43.22
-48.80
-55.19
-61.59
-66.67
-68.81
-66.58
-59.31
-47.33
-32.01
-15.33
0.69
14.53
25.39
33.15
38.11
40.70
41.30
40.20
37.80
34.60
31.24
28.42
26.65
26.13
26.71
27.96
29.35
30.39
30.80
30.44
29.34
27.61
25.34
22.65
19.60
16.23
12.53
8.40
3.77
-1.36
-6.80
-12.27
-17.42
-22.02
-25.98
-29.46
-32.80
-36.43
-40.72
-45.92
-51.97
-58.36
-64.10
-67.77
-67.93
-63.51
-54.33
-41.24
-25.90
-10.35
3.67
15.09
23.60
29.47
33.09
34.82
34.83
33.31
30.65
27.45
24.49
22.37
21.41
21.44
22.04
22.67
22.96
22.74
22.07
21.03
19.74
18.19
16.34
14.06
11.25
7.83
3.84
-0.57
-5.08
-9.34
-13.04
-16.06
-18.54
-20.84
-23.41
-26.69
-30.95
-36.26
-42.32
-48.42
-53.37
-55.76
-54.28
-48.22
-37.81
-24.23
-9.30
5.11
17.60
27.45
34.60
39.23
41.59
41.85
40.18
36.99
32.91
28.74
25.22
22.86
21.76
21.74
22.39
23.26
23.99
24.29
23.97
22.99
21.40
19.32
16.94
14.37
11.63
8.63
5.23
1.36
-2.90
-7.33
-11.62
-15.55
-19.04
-22.20
-25.24
-28.39
-31.84
-35.76
-40.26
-45.29
-50.47
-54.97
-57.55
-56.87
-51.97
-42.73
-30.02
-15.53
-1.18
11.37
21.18
27.99
32.02
33.66
33.24
31.05
27.44
22.98
18.43
14.61
12.13
11.24
11.74
13.07
14.54
15.65
16.11
15.97
15.39
14.53
13.34
11.62
9.12
5.71
1.52
-3.06
-7.54
-11.50
-14.76
-17.43
-19.85
-22.43
-25.56
-29.48
-34.27
-39.75
-45.43
-50.39
-53.44
-53.39
-49.40
-41.37
-30.00
-16.67
-3.03
9.49
19.90
27.73
32.88
35.49
35.74
33.90
30.41
25.84
20.99
16.64
13.46
11.82
11.72
12.73
14.22
15.58
16.34
16.41
15.93
15.12
14.07
12.71
10.74
7.92
4.14
-0.46
-5.50
-10.56
-15.25
-19.38
-23.00
-26.35
-29.78
-33.66
-38.37
-44.08
-50.66
-57.48
-63.36
-66.73
-66.10
-60.56
-50.21
-36.29
-20.77
-5.85
6.77
16.24
22.57
26.31
28.11
28.44
27.54
25.55
22.68
19.32
16.05
13.40
11.75
11.37
12.53
15.67
21.38
30.07
41.49
54.47
67.09
77.33
83.84
86.47
86.05
83.67
79.96
74.63
66.78
55.56
40.73
22.83
2.88
-18.20
-39.74
-61.06
-81.12
-98.20
-110.27
-115.71
-114.01
-106.25
-94.72
-82.13
-70.71
-61.53
-54.44
-48.51
-42.74
-36.56
-30.05
-23.74
-18.26
-13.99
-10.95
-8.85
-7.30
-6.06
-5.05
-4.49
-4.67
-5.94
-8.54
-12.53
-17.69
-23.60
-29.73
-35.63
-41.17
-46.61
-52.61
-59.95
-69.27
-80.73
-93.78
-107.12
-118.85
-126.92
-129.68
-126.31
-117.07
-103.19
-86.43
-68.59
-51.07
-34.69
-19.77
-6.30
5.68
15.97
24.06
29.64
33.17
36.59
43.62
59.20
87.93
132.03
189.78
255.21
319.60
373.91
411.38
429.00
427.51
410.19
381.34
345.20
305.29
264.50
224.97
188.10
154.45
123.90
96.05
70.63
47.74
27.73
10.77
-3.46
-15.72
-26.93
-37.78
-48.40
-58.34
-66.72
-72.54
-74.88
-73.16
-67.29
-57.84
-46.00
-33.52
-22.41
-14.44
-10.77
-11.60
-16.26
-23.34
-31.12
-37.92
-42.42
-44.01
-42.84
-39.76
-35.97
-32.57
-30.13
-28.58
-27.31
-25.58
-22.89
-19.27
-15.22
-11.47
-8.65
-7.24
-7.51
-9.77
-14.21
-20.64
-28.16
-35.18
-39.74
-40.29
-36.34
-28.72
-19.25
-10.05
-2.79
1.75
3.53
2.94
0.38
-3.78
-9.24
-15.52
-21.96
-27.81
-32.46
-35.64
-37.53
-38.59
-39.43
-40.46
-41.83
-43.53
-45.62
-48.34
-52.03
-56.81
-62.30
-67.49
-71.03
-71.79
-69.42
-64.51
-58.39
-52.47
-47.75
-44.54
-42.58
-41.42
-40.65
-40.05
-39.57
-39.19
-39.03
-39.32
-40.51
-43.05
-47.18
-52.78
-59.37
-66.30
-73.04
-79.30
-85.11
-90.72
-96.56
-103.28
-111.51
-121.67
-133.61
-146.44
-158.70
-168.91
-176.26
-181.00
-184.48
-188.48
-194.40
-202.55
-211.85
-220.17
-224.92
-223.94
-216.08
-201.48
-181.39
-157.74
-132.57
-107.67
-84.43
-63.93
-47.05
-34.46
-26.42
-22.63
-22.13
-23.54
-25.34
-26.34
-25.92
-24.13
-21.44
-18.50
-15.80
-13.45
-11.22
-8.69
-5.62
-2.18
1.04
3.12
3.09
0.21
-5.84
-14.78
-25.62
-36.65
-45.56
-49.91
-47.72
-38.09
-21.53
0.21
24.61
49.10
71.55
90.51
105.04
114.61
119.01
118.48
113.91
106.85
99.18
92.59
88.03
85.46
83.96
82.34
79.72
75.88
71.26
66.62
62.58
59.26
56.23
52.68
47.64
40.28
30.10
17.22
2.64
-11.61
-22.76
-27.88
-24.78
-12.86
6.64
30.91
56.46
80.18
100.09
115.47
126.48
133.54
136.80
136.18
131.62
123.62
113.39
102.69
93.21
86.01
81.14
77.65
74.22
69.73
63.74
56.62
49.20
42.22
36.01
30.20
23.96
16.27
6.30
-6.27
-20.97
-36.37
-50.20
-59.64
-62.04
-55.69
-40.50
-18.15
8.35
35.46
60.11
80.36
95.51
105.76
111.58
113.41
111.47
106.08
97.94
88.29
78.74
70.82
65.42
62.55
61.30
60.34
58.45
54.99
50.09
44.32
38.40
32.71
27.17
21.36
14.69
6.69
-2.98
-14.42
-27.47
-41.47
-55.02
-65.90
-71.44
-69.28
-58.26
-39.08
-14.27
12.58
37.94
59.24
75.32
86.18
92.32
94.21
92.12
86.30
77.40
66.68
55.86
46.68
40.35
37.15
36.35
36.58
36.42
34.80
31.42
26.65
21.19
15.68
10.44
5.35
0.03
-5.96
-12.95
-21.14
-30.60
-41.11
-51.91
-61.57
-67.99
-68.84
-62.33
-47.98
-27.04
-2.21
23.03
45.50
63.07
74.94
81.39
83.23
81.26
76.15
68.44
58.92
48.75
39.34
32.03
27.60
26.03
26.50
27.73
28.47
27.83
25.54
21.79
17.05
11.80
6.35
0.83
-4.81
-10.68
-16.90
-23.67
-31.21
-39.79
-49.40
-59.44
-68.43
-74.15
-74.16
-66.71
-51.53
-30.16
-5.53
18.89
40.11
56.33
66.98
72.41
73.31
70.51
64.76
56.91
47.93
38.92
30.86
24.48
20.06
17.50
16.37
16.09
16.03
15.60
14.35
11.99
8.45
3.84
-1.54
-7.37
-13.33
-19.17
-24.81
-30.33
-36.00
-42.23
-49.44
-57.76
-66.68
-74.91
-80.44
-81.09
-75.25
-62.50
-43.97
-22.01
0.49
20.88
37.37
49.24
56.61
60.00
60.11
57.59
53.18
47.82
42.87
39.81
39.87
43.42
49.63
56.59
61.92
63.65
60.82
53.68
43.21
30.57
16.55
1.62
-13.85
-29.17
-43.31
-55.24
-64.31
-70.67
-75.24
-79.39
-84.36
-90.69
-97.93
-104.57
-108.43
-107.34
-99.86
-85.89
-66.75
-44.83
-22.81
-2.90
13.54
26.03
34.64
39.60
41.14
39.60
35.61
30.13
24.29
19.16
15.40
13.17
12.21
12.04
12.24
12.51
12.75
12.89
12.76
12.13
10.62
7.98
4.12
-0.73
-6.11
-11.47
-16.44
-20.95
-25.24
-29.77
-35.01
-41.19
-48.04
-54.65
-59.48
-60.68
-56.66
-46.67
-31.23
-12.05
8.36
27.50
43.40
55.10
62.38
65.60
65.28
61.97
56.31
49.06
41.15
33.50
26.85
21.66
17.99
15.69
14.42
13.90
13.86
14.03
14.09
13.68
12.40
10.01
6.45
1.95
-3.05
-8.05
-12.61
-16.51
-19.73
-22.51
-25.29
-28.58
-32.76
-37.76
-42.86
-46.61
-47.23
-43.16
-33.74
-19.54
-2.23
15.90
32.69
46.63
56.97
63.67
66.95
67.16
64.66
60.00
53.96
47.55
41.79
37.51
35.01
34.15
34.44
35.31
36.34
37.27
37.97
38.26
37.89
36.53
33.99
30.25
25.46
19.80
13.30
5.83
-2.85
-12.85
-23.98
-35.85
-47.96
-59.89
-71.22
-81.30
-89.06
-93.04
-91.75
-84.43
-71.49
-54.74
-36.84
-20.45
-7.43
1.58
6.94
9.48
9.90
8.55
5.63
1.48
-3.16
-7.26
-9.94
-10.75
-9.84
-7.80
-5.39
-3.16
-1.49
-0.55
-0.46
-1.28
-2.94
-5.15
-7.50
-9.63
-11.45
-13.27
-15.70
-19.38
-24.72
-31.67
-39.63
-47.45
-53.70
-56.83
-55.60
-49.47
-38.79
-24.84
-9.52
5.19
17.71
27.14
33.18
35.95
35.70
32.88
28.14
22.54
17.36
13.78
12.49
13.42
15.85
18.68
20.93
21.96
21.53
19.58
16.21
11.60
6.09
0.23
-5.52
-10.98
-16.51
-22.88
-30.84
-40.51
-50.93
-60.17
-65.94
-66.49
-61.32
-51.34
-38.51
-24.99
-12.47
-1.84
6.63
12.87
16.69
17.71
15.65
10.64
3.46
-4.57
-12.04
-17.87
-21.59
-23.40
-23.94
-23.93
-23.92
-24.17
-24.62
-25.14
-25.54
-25.75
-25.86
-26.13
-27.04
-29.11
-32.82
-38.37
-45.38
-52.92
-59.45
-63.25
-62.80
-57.30
-46.93
-32.81
-16.66
-0.37
14.51
26.98
36.53
43.00
46.31
46.46
43.66
38.50
31.97
25.32
19.73
15.92
13.97
13.35
13.17
12.55
10.95
8.31
5.02
1.66
-1.24
-3.54
-5.53
-7.87
-11.27
-16.28
-23.00
-31.10
-39.78
-47.90
-54.05
-56.82
-55.04
-48.22
-36.78
-22.11
-6.18
8.95
21.66
31.07
36.98
39.61
39.30
36.40
31.27
24.45
16.78
9.32
3.16
-0.99
-2.97
-3.35
-3.08
-3.16
-4.22
-6.30
-9.00
-11.82
-14.49
-17.17
-20.30
-24.34
-29.53
-35.85
-43.07
-50.75
-58.25
-64.60
-68.53
-68.67
-64.05
-54.48
-40.76
-24.55
-7.87
7.44
20.01
29.09
34.43
36.02
34.11
29.27
22.45
15.06
8.61
4.39
2.96
4.00
6.31
8.37
8.94
7.57
4.76
1.53
-1.06
-2.57
-3.28
-4.02
-5.76
-9.20
-14.56
-21.60
-29.62
-37.53
-43.93
-47.26
-46.10
-39.65
-28.07
-12.60
4.71
21.52
35.92
46.75
53.76
57.32
58.00
56.24
52.30
46.47
39.32
31.84
25.31
20.83
18.85
18.95
20.00
20.66
20.00
17.80
14.56
11.07
7.93
5.30
2.86
0.07
-3.58
-8.39
-14.44
-21.53
-29.20
-36.56
-42.26
-44.73
-42.55
-35.08
-22.76
-7.13
9.58
25.18
38.07
47.48
53.43
56.36
56.86
55.38
52.36
48.20
43.39
38.46
33.91
30.12
27.26
25.22
23.70
22.31
20.63
18.32
15.19
11.17
6.33
0.80
-5.18
-11.30
-17.24
-22.71
-27.54
-31.76
-35.70
-39.84
-44.63
-50.18
-55.94
-60.63
-62.51
-59.92
-51.97
-38.95
-22.36
-4.47
12.46
26.77
37.74
45.42
50.25
52.71
53.08
51.61
48.70
45.05
41.54
39.00
37.89
38.12
39.14
40.17
40.55
39.98
38.56
36.68
34.70
32.75
30.66
28.04
24.49
19.83
14.27
8.38
2.82
-1.90
-5.65
-8.75
-11.81
-15.49
-20.26
-26.29
