1565702247.00
64.000000
-0.00
-0.00
-0.00
-0.00
-0.00
-0.00
-0.00
-0.00
-0.00
-0.00
0.00
0.01
0.01
-0.00
-0.03
-0.05
-0.05
0.00
0.13
0.36
0.66
1.01
1.37
1.72
2.06
2.40
2.79
3.24
3.80
4.43
5.08
5.70
6.27
6.81
7.37
8.03
8.85
9.92
11.16
12.46
13.72
14.86
15.96
17.15
18.65
20.62
23.28
26.43
29.81
33.13
36.22
39.14
42.22
45.89
50.49
56.40
63.26
70.54
77.65
84.26
90.48
96.89
104.25
113.13
124.07
136.49
149.53
162.28
174.21
185.48
196.85
209.75
222.91
238.54
257.10
278.57
301.70
323.68
340.33
347.21
341.09
321.10
289.47
249.75
205.99
161.32
117.41
74.87
33.97
-4.75
-40.61
-72.79
-101.51
-127.57
-151.84
-174.59
-195.17
-212.43
-225.26
-233.60
-238.50
-242.34
-247.56
-255.70
-266.74
-278.77
-289.49
-297.39
-302.92
-308.25
-316.45
-329.19
-345.55
-362.29
-375.33
-381.72
-380.28
-371.15
-354.50
-329.90
-296.95
-256.97
-214.28
-175.52
-146.80
-130.12
-121.76
-114.13
-100.29
-78.31
-52.45
-30.68
-19.30
-19.06
-24.07
-25.44
-16.82
1.89
24.27
41.43
47.49
43.21
35.36
32.78
41.03
58.92
79.11
91.72
89.60
71.83
43.96
14.99
-7.15
-19.03
-22.18
-20.77
-18.28
-15.01
-8.30
5.15
26.41
52.47
77.24
94.30
100.60
98.05
92.75
91.59
98.11
109.99
119.36
116.16
93.57
51.87
-0.68
-50.81
-85.41
-96.75
-84.93
-56.63
-21.28
13.18
42.09
63.65
76.83
79.69
69.68
45.73
10.90
-26.53
-55.13
-65.11
-53.35
-25.63
4.85
22.91
17.62
-13.59
-65.05
-126.35
-186.97
-239.40
-279.63
-306.25
-318.91
-317.91
-304.19
-280.49
-250.80
-218.88
-186.82
-154.57
-120.69
-83.49
-42.22
2.56
49.29
95.93
140.25
179.88
212.41
235.83
249.33
253.58
250.67
243.56
235.18
227.64
221.77
217.16
212.71
207.64
201.95
196.83
193.91
194.58
199.15
206.38
213.54
217.36
215.36
206.72
192.81
176.22
159.49
144.02
129.32
113.49
93.34
66.12
30.12
-14.64
-66.53
-121.53
-172.72
-210.35
-225.97
-216.27
-185.66
-146.82
-113.55
-95.89
-95.70
-106.12
-115.47
-113.35
-95.59
-64.59
-28.10
5.71
31.25
46.07
49.63
42.47
25.89
3.13
-20.20
-37.54
-43.71
-37.37
-21.33
-2.05
13.77
21.92
21.82
15.64
6.53
-2.53
-9.55
-13.63
-14.08
-10.46
-3.07
6.91
17.66
27.39
34.85
39.68
42.12
42.48
40.86
36.78
29.47
18.10
2.18
-18.02
-41.50
-66.95
-92.98
-118.21
-141.40
-161.11
-175.74
-183.64
-183.93
-176.20
-161.03
-139.91
-114.69
-87.38
-59.31
-30.98
-2.16
28.06
61.13
98.61
141.38
188.59
236.31
277.96
305.90
314.14
300.87
269.54
227.41
181.74
139.30
102.67
71.15
42.59
15.39
-10.68
-34.79
-56.20
-74.83
-91.03
-105.14
-116.37
-122.85
-122.12
-112.28
-92.88
-65.35
-32.66
1.66
34.35
63.41
88.28
109.36
127.28
142.35
154.19
162.04
165.29
164.05
159.44
153.46
148.03
144.35
142.48
141.31
138.99
133.89
125.16
113.03
98.52
82.88
66.01
46.94
24.31
-2.89
-34.86
-71.20
-111.40
-153.86
-197.09
-238.26
-272.38
-292.94
-294.25
-274.23
-236.03
-187.13
-136.20
-90.11
-52.13
-22.94
-3.19
4.70
-2.83
-27.62
-67.68
-115.38
-160.23
-192.77
-207.89
-205.93
-191.15
-168.97
-143.33
-115.92
-86.92
-56.60
-26.04
3.05
29.14
51.58
70.73
87.66
103.20
117.34
129.09
137.11
140.39
138.83
133.31
125.17
115.63
105.33
94.19
81.64
66.94
49.27
27.70
1.55
-28.83
-61.17
-90.72
-111.89
-120.79
-117.34
-105.97
-93.89
-87.52
-89.30
-96.46
-102.80
-102.26
-92.11
-74.05
-52.72
-32.85
-16.90
-4.88
4.30
10.83
13.59
11.32
4.43
-3.93
-8.67
-5.15
7.78
26.55
44.16
54.26
54.77
49.46
46.16
52.82
73.91
108.01
148.99
188.75
221.42
245.55
263.92
280.98
298.76
316.79
331.74
341.83
344.90
340.06
326.49
304.76
276.34
243.74
210.54
179.71
151.81
123.07
86.97
37.64
-26.02
-98.60
-169.92
-227.79
-264.41
-279.55
-280.41
-276.44
-274.02
-273.89
-272.88
-267.81
-258.14
-246.49
-236.16
-229.13
-224.27
-217.79
-205.40
-184.58
-155.78
-121.91
-88.82
-60.38
-38.66
-23.70
-14.13
-8.61
-5.80
-6.64
-13.25
-27.95
-51.87
-84.83
-125.06
-169.53
-214.91
-258.39
-298.16
-332.99
-361.97
-383.95
-397.69
-403.06
-399.29
-385.96
-363.42
-333.11
-297.09
-257.75
-217.33
-177.75
-140.38
-105.83
-74.16
-45.01
-17.81
8.29
34.15
60.61
88.16
116.81
146.14
175.21
202.70
226.99
246.51
259.83
265.90
264.13
254.47
236.94
212.28
181.66
146.62
108.84
70.10
32.10
-3.55
-35.42
-62.38
-83.58
-98.64
-107.53
-110.54
-108.00
-100.13
-87.06
-68.86
-45.63
-17.72
14.04
48.46
84.27
120.56
157.06
194.06
231.73
269.07
303.30
330.58
347.82
354.65
353.99
350.07
345.43
338.58
324.68
298.85
260.12
213.14
166.20
126.99
99.00
80.72
67.91
56.83
45.77
34.06
19.85
-0.88
-32.11
-74.43
-122.51
-165.50
-191.00
-190.76
-164.94
-122.51
-77.79
-44.35
-29.52
-31.70
-42.36
-50.33
-47.08
-30.49
-4.87
21.69
41.76
51.91
53.79
52.78
54.80
63.08
76.76
91.49
101.79
103.93
97.85
87.21
77.56
73.41
76.56
86.02
99.53
115.43
133.77
155.80
181.96
210.49
236.18
251.48
249.36
226.77
186.58
137.65
91.58
57.97
40.76
36.66
36.20
29.15
8.74
-26.28
-71.98
-120.55
-165.40
-202.24
-228.90
-244.02
-246.07
-233.42
-206.35
-169.39
-131.90
-106.22
-102.54
-123.72
-163.14
-206.17
-235.97
-240.20
-215.18
-166.28
-104.20
-40.04
17.91
64.54
96.73
112.01
108.41
86.51
51.32
12.65
-16.82
-25.92
-9.78
27.65
74.60
115.91
138.82
137.03
111.83
69.96
20.26
-29.49
-73.68
-108.56
-131.57
-140.71
-135.08
-115.31
-84.04
-45.87
-6.29
29.33
57.14
75.06
82.76
80.52
68.33
46.10
14.30
-24.32
-63.79
-95.32
-109.74
-100.70
-67.73
-17.37
37.81
82.80
104.42
95.88
59.48
6.67
-45.06
-78.46
-83.67
-62.17
-25.82
9.16
30.71
36.68
34.34
34.30
42.67
56.96
67.88
66.27
50.29
27.76
11.93
13.23
32.41
59.41
79.00
79.44
59.03
26.48
-4.56
-23.59
-28.73
-26.33
-26.32
-36.02
-56.86
-84.73
-113.04
-135.81
-149.10
-150.31
-136.87
-107.10
-62.19
-8.14
44.17
82.10
96.54
86.66
60.96
33.79
18.72
22.62
42.87
69.31
88.97
91.38
72.74
36.68
-6.95
-45.98
-69.79
-73.02
-57.59
-31.84
-6.90
8.72
13.00
10.92
10.24
15.57
24.52
29.12
21.93
2.28
-22.09
-39.09
-39.55
-22.56
4.53
30.95
48.82
56.42
57.16
55.50
52.85
46.49
32.16
8.05
-22.06
-49.49
-64.17
-59.75
-37.21
-5.39
21.91
31.29
15.89
-21.36
-68.24
-107.94
-126.13
-116.50
-83.01
-37.33
6.89
40.01
59.33
68.16
72.06
74.65
75.60
71.77
60.46
41.97
20.13
0.08
-14.78
-24.53
-32.38
-42.71
-58.36
-78.95
-101.04
-119.65
-130.32
-130.60
-120.38
-101.21
-75.05
-43.32
-6.31
36.37
84.62
136.97
190.16
239.70
281.12
311.76
330.86
339.24
338.39
329.63
313.68
290.79
261.36
226.69
189.02
151.05
115.49
83.87
55.99
30.19
4.10
-23.91
-53.51
-82.76
-108.88
-129.59
-144.36
-154.95
-165.12
-179.73
-203.22
-237.60
-281.88
-331.67
-379.53
-416.89
-436.75
-436.29
-418.38
-389.90
-358.21
-328.39
-301.63
-274.97
-243.56
-203.63
-153.03
-94.78
-39.03
3.30
23.79
18.16
-10.92
-53.51
-94.93
-121.05
-124.02
-104.62
-70.35
-31.16
5.94
40.44
77.56
124.06
183.08
250.82
316.85
367.79
391.68
381.97
339.99
274.68
200.02
131.08
80.38
55.57
58.96
87.51
133.81
187.10
234.26
262.00
260.04
225.01
162.66
87.17
16.55
-33.55
-55.40
-51.20
-30.99
-7.76
8.32
11.27
-0.20
-24.39
-58.62
-100.18
-146.60
-195.39
-243.87
-289.59
-331.41
-369.46
-404.65
-437.95
-469.46
-497.89
-520.67
-535.79
-541.03
-535.33
-519.00
-493.69
-461.70
-425.26
-385.96
-344.73
-302.15
-258.72
-215.48
-173.90
-135.57
-101.72
-72.79
-48.42
-27.62
-9.24
7.69
23.62
38.55
52.40
65.17
77.14
88.90
100.99
113.74
127.23
141.26
155.70
170.78
187.02
204.97
224.91
246.52
269.18
292.67
317.55
344.65
373.83
402.84
427.41
443.17
447.89
442.50
429.97
412.69
390.69
362.21
326.22
284.81
243.41
208.11
182.49
165.79
153.92
142.47
129.38
115.41
102.34
90.70
78.86
64.65
47.36
28.94
13.10
2.88
-1.27
-1.56
-1.19
-2.32
-5.13
-8.60
-11.88
-15.30
-20.11
-27.28
-36.18
-44.49
-49.42
-49.47
-45.55
-40.62
-38.05
-39.82
-45.56
-52.85
-58.80
-61.34
-60.07
-56.29
-52.37
-50.50
-51.59
-54.54
-56.91
-56.38
-52.36
-46.72
-42.85
-43.47
-48.58
-55.28
-59.25
-57.48
-50.31
-41.05
-34.03
-32.11
-34.97
-39.31
-40.59
-35.23
-22.14
-3.10
18.64
40.06
59.55
77.57
96.21
117.80
144.27
176.35
212.98
252.02
290.93
327.06
357.88
380.86
393.61
393.97
382.12
358.38
323.76
280.20
230.55
178.27
126.87
79.26
37.40
2.06
-27.28
-52.21
-74.35
-95.58
-118.02
-143.74
-173.95
-208.05
-243.23
-275.24
-299.76
-314.18
-318.75
-316.05
-309.49
-301.14
-290.55
-275.10
-251.64
-218.24
-175.16
-125.17
-72.87
-23.72
16.85
44.23
55.46
49.77
28.77
-4.01
-43.86
-85.69
-124.64
-156.60
-178.98
-191.48
-196.23
-196.64
-195.33
-192.41
-185.23
-170.16
-145.76
-114.98
-84.71
-62.52
-52.64
-53.53
-58.94
-61.71
-57.67
-47.46
-34.87
-23.75
-15.10
-6.36
6.82
27.63
55.97
88.32
119.57
145.46
164.18
176.47
184.36
189.66
192.86
193.18
189.22
180.02
165.82
147.98
128.42
108.89
90.43
73.10
56.41
39.86
23.50
8.20
-4.59
-13.40
-17.29
-16.11
-10.55
-1.81
8.76
20.02
31.27
42.10
52.19
61.15
68.65
74.47
78.66
81.44
83.08
83.76
83.19
81.12
76.31
67.57
54.04
35.67
12.65
-14.47
-44.66
-75.84
-105.70
-132.28
-154.33
-172.09
-186.74
-200.22
-214.10
-228.66
-242.75
-254.64
-262.88
-266.73
-267.85
-265.77
-259.66
-248.24
-230.22
-204.77
-172.26
-134.14
-91.61
-47.66
-4.80
34.90
69.98
99.47
122.82
139.71
150.20
154.76
154.17
149.92
143.45
136.07
128.69
121.84
115.56
109.65
103.90
98.00
92.33
86.99
82.12
77.85
74.23
71.16
68.45
65.93
63.46
61.05
58.79
56.80
55.15
53.96
53.18
52.74
52.56
52.59
52.74
53.01
53.38
53.62
53.60
52.93
51.10
47.51
41.75
33.13
21.21
5.84
-13.03
-34.86
-59.11
-85.05
-111.74
-137.43
-160.97
-181.16
-196.84
-208.11
-213.59
-212.54
-204.71
-190.35
-170.04
-144.91
-116.22
-84.81
-53.15
-23.03
3.89
26.41
43.94
56.52
64.55
68.86
70.37
69.76
67.81
64.83
61.20
56.89
52.14
47.27
42.72
38.86
35.63
32.98
30.53
27.83
24.54
20.65
16.46
12.29
8.58
5.58
3.55
2.54
2.28
1.88
-0.11
-5.14
-13.29
-22.39
-27.91
-24.47
-8.56
19.40
54.79
90.70
120.48
139.79
146.96
142.01
125.71
99.44
65.73
28.93
-5.33
-31.89
-47.90
-53.78
-52.41
-47.35
-41.21
-35.42
-30.69
-27.69
-27.33
-30.08
-35.22
-40.77
-44.43
-44.46
-40.62
-34.40
-28.30
-24.77
-25.67
-31.69
-41.93
-53.71
-62.40
-62.30
-48.54
-19.85
19.37
59.36
87.94
95.63
79.95
46.51
6.13
-30.05
-55.29
-68.65
-72.98
-71.67
-66.45
-57.82
-46.54
-34.85
-25.58
-20.25
-17.70
-14.31
-6.40
7.29
24.49
40.96
52.68
58.01
57.87
54.57
50.09
45.30
40.33
35.39
31.18
28.72
28.52
30.03
32.06
33.22
32.49
29.99
26.54
23.37
21.51
21.32
22.49
24.22
25.63
26.15
25.81
25.09
24.61
24.80
25.67
26.94
28.06
28.77
28.47
27.06
24.46
20.63
15.50
8.99
1.40
-6.72
-14.29
-20.29
-23.77
-24.42
-22.78
-20.01
-17.47
-16.03
-15.92
-16.53
-16.85
-15.89
-13.19
-8.83
-3.31
2.41
7.04
8.84
6.30
-1.04
-11.83
-22.82
-30.02
-30.40
-23.70
-12.83
-2.49
3.38
3.91
1.86
2.06
8.43
22.16
41.18
61.62
79.83
93.58
102.04
105.27
103.67
98.34
91.67
87.37
89.14
98.91
115.88
136.88
157.91
175.60
188.13
195.02
196.53
192.91
184.97
174.31
163.01
155.37
154.69
161.24
172.00
181.53
184.32
177.00
159.55
134.88
107.34
80.44
55.34
30.67
3.48
-29.34
-69.27
-115.65
-165.97
-217.11
-266.81
-313.73
-356.82
-394.88
-426.80
-452.58
-473.72
-492.37
-508.60
-518.83
-515.51
-490.77
-441.39
-372.79
-298.85
-237.48
-203.77
-204.07
-234.20
-281.66
-330.63
-367.01
-381.76
-371.86
-339.90
-292.35
-237.27
-182.14
-132.11
-89.68
-55.11
-27.46
-5.51
12.02
26.75
40.82
56.42
75.09
96.95
120.64
144.31
166.81
188.76
212.12
238.53
267.39
295.20
317.03
329.42
333.00
332.56
334.36
342.01
353.57
361.99
358.72
338.18
300.68
251.88
199.68
150.81
109.01
75.48
50.33
33.55
24.56
21.21
19.78
16.15
8.26
-2.06
-9.40
-7.30
8.33
36.46
70.89
102.51
123.26
128.96
120.46
102.24
79.49
55.63
31.05
3.98
-27.40
-63.05
-100.47
-135.84
-166.14
-191.23
-214.12
-239.53
-271.03
-308.58
-347.89
-381.83
-403.26
-407.63
-394.30
-365.95
-326.73
-280.57
-230.60
-179.93
-132.43
-92.81
-65.43
-52.55
-52.58
-60.21
-68.14
-69.53
-60.32
-39.90
-10.25
25.34
63.66
102.14
138.76
171.73
199.64
221.74
238.34
250.67
260.53
269.65
279.38
290.29
302.12
313.82
323.70
329.93
331.01
326.27
316.14
301.78
284.57
265.69
246.04
226.33
207.36
190.14
175.58
164.11
155.46
148.61
142.12
134.61
124.85
111.93
95.17
74.21
49.02
20.17
-11.20
-43.68
-75.90
-106.83
-135.77
-161.92
-184.18
-200.94
-210.28
-210.75
-202.38
-187.29
-169.25
-152.42
-139.52
-131.32
-126.49
-122.48
-116.82
-108.07
-96.01
-81.22
-64.83
-48.22
-34.08
-25.53
-24.29
-29.22
-36.35
-40.28
-36.69
-24.39
-5.18
15.99
33.83
45.69
52.03
55.16
57.08
58.86
60.54
62.73
65.15
67.03
67.89
67.25
64.43
58.39
49.38
32.97
13.22
-3.11
-14.14
-23.01
-33.15
-44.81
-55.95
-63.14
-64.89
-61.99
-58.81
-60.49
-69.39
-85.89
-105.86
-124.45
-137.01
-141.68
-139.19
-133.40
-128.63
-127.09
-129.46
-127.34
-116.41
-93.25
-57.84
-13.90
31.84
72.81
106.65
132.37
150.26
163.59
177.25
194.19
214.44
235.33
253.18
264.59
263.82
236.58
178.41
92.97
-11.39
-124.08
-234.22
-331.88
-389.88
-389.59
-338.68
-262.77
-184.91
-116.44
-60.24
-15.89
18.22
43.89
59.68
64.33
61.22
56.36
54.87
58.69
66.56
76.13
85.06
89.29
85.52
75.03
62.19
51.24
44.23
40.24
37.45
33.85
26.26
12.59
-6.09
-26.63
-46.42
-60.05
-68.48
-74.03
-78.85
-85.02
-93.91
-105.34
-117.95
-129.43
-136.45
-135.42
-122.67
-96.78
-60.55
-20.63
15.22
40.99
54.62
58.16
55.56
50.96
46.69
42.92
38.92
34.39
30.14
27.50
27.32
28.99
31.05
31.97
30.72
27.47
23.38
19.95
18.29
18.59
19.90
20.95
20.71
18.95
16.28
13.85
12.67
13.08
14.57
15.94
16.07
14.54
11.82
9.12
7.75
8.44
10.90
13.93
16.03
16.03
13.67
9.81
5.78
3.08
2.92
5.91
11.77
18.84
23.76
22.10
10.01
-13.42
-44.56
-75.79
-98.12
-104.98
-95.01
-72.41
-44.76
-18.98
0.16
10.54
12.08
5.62
-7.18
-23.28
-38.38
-47.87
-48.76
-41.40
-29.09
-16.60
-7.86
-4.22
-4.29
-5.00
-3.18
3.14
14.21
28.75
44.46
58.56
68.17
70.95
65.75
53.06
35.27
16.42
1.57
-4.89
-1.43
9.61
22.70
31.38
31.77
24.64
14.64
8.07
9.18
18.13
31.18
42.81
48.35
45.78
36.19
22.32
7.77
-3.88
-9.72
-8.06
0.88
14.45
28.03
36.38
34.77
20.75
-5.11
-39.31
-76.45
-110.82
-137.69
-154.15
-156.95
-146.30
-125.50
-100.27
-77.53
-63.63
-62.78
-75.59
-98.44
-123.20
-139.95
-141.04
-125.13
-97.31
-65.02
-34.11
-7.13
15.73
37.02
56.49
71.72
80.15
80.99
76.07
69.05
63.98
64.16
67.58
72.80
78.70
85.13
93.08
104.15
119.33
138.22
159.12
179.52
197.24
210.76
219.82
225.50
229.98
235.40
242.64
250.56
255.73
253.92
241.39
216.88
182.13
141.33
99.21
59.36
23.55
-8.00
-35.42
-58.81
-78.35
-94.97
-110.49
-126.98
-145.30
-163.93
-179.43
-188.16
-188.91
-184.27
-179.85
-181.40
-191.86
-209.74
-230.17
-247.71
-259.37
-265.90
-270.97
-278.34
-289.36
-302.08
-312.20
-315.23
-308.68
-292.73
-269.56
-241.68
-210.30
-174.79
-133.62
-85.72
-31.86
24.87
79.80
128.19
166.68
194.09
211.25
220.12
222.78
220.91
215.55
207.48
197.50
186.73
176.49
167.80
161.02
155.83
151.48
147.01
141.65
134.98
127.09
118.55
110.10
102.34
95.54
89.62
84.13
78.45
72.08
64.99
57.79
50.93
44.40
37.63
30.00
21.22
11.38
1.23
-7.85
-13.83
-15.98
-14.96
-12.31
-9.38
-6.82
-5.25
-4.80
-4.77
-2.50
3.30
12.55
23.84
35.66
46.75
55.16
59.69
60.91
63.07
68.64
77.93
88.81
98.21
102.30
95.31
71.78
29.28
-27.73
-93.76
-162.63
-228.91
-287.62
-325.16
-330.13
-301.72
-266.44
-234.79
-209.78
-187.09
-167.45
-153.08
-146.76
-152.64
-174.03
-210.92
-256.00
-300.65
-335.56
-352.90
-347.21
-317.92
-271.08
-216.56
-163.80
-116.45
-75.83
-41.12
-10.96
16.67
43.48
69.90
95.72
120.41
144.60
167.27
187.07
203.52
218.05
233.09
249.97
267.95
284.33
296.08
299.92
293.72
277.02
251.21
219.03
184.19
151.33
125.75
112.56
114.34
129.43
151.66
171.49
179.40
169.78
143.61
108.09
73.33
47.62
34.09
30.85
32.97
36.24
39.41
43.76
50.76
59.90
68.40
73.05
72.86
69.05
64.40
61.59
62.05
65.61
70.83
75.68
78.06
76.89
71.04
59.82
43.46
23.12
0.51
-22.88
-46.09
-72.76
-101.90
-129.66
-151.26
-163.61
-166.18
-160.45
-149.17
-135.71
-122.99
-112.08
-103.03
-94.57
-84.99
-73.18
-59.63
-46.33
-37.00
-34.96
-41.11
-54.39
-71.24
-86.24
-93.61
-89.21
-72.68
-47.87
-21.67
-1.31
7.70
4.15
-8.61
-25.00
-37.68
-40.53
-30.57
-8.34
23.13
56.81
84.49
101.00
106.12
103.02
95.02
84.59
73.64
63.55
54.72
46.49
36.71
22.63
2.57
-23.42
-52.48
-79.76
-100.26
-110.57
-109.13
-96.45
-75.76
-49.14
-20.89
3.14
16.83
15.55
-2.22
-33.77
-72.98
-111.17
-139.55
-151.99
-146.37
-125.28
-95.46
-65.78
-42.19
-30.80
-32.36
-42.09
-52.88
-58.15
-53.62
-38.18
-13.26
17.36
47.47
70.14
79.34
72.27
51.85
27.13
10.09
11.27
34.26
73.31
115.76
147.07
156.65
142.21
112.06
76.20
45.45
26.75
20.90
23.79
29.89
35.05
37.78
38.07
35.16
27.43
12.92
-8.63
-33.80
-55.75
-67.08
-63.35
-45.24
-18.54
9.19
31.49
45.17
50.30
49.31
45.37
41.36
39.38
39.99
42.24
42.28
36.23
20.76
-5.14
-38.74
-73.60
-101.15
-113.69
-106.94
-81.85
-44.30
-2.69
35.11
64.01
82.52
92.35
96.82
98.87
99.27
95.60
84.63
65.18
39.99
15.62
0.20
-0.68
12.48
32.09
45.46
42.02
18.39
-20.96
-66.86
-109.90
-144.38
-170.05
-190.95
-213.33
-239.18
-264.32
-280.37
-278.87
-254.64
-207.66
-143.57
-63.70
18.78
86.08
127.04
143.32
144.40
139.22
132.10
123.15
111.29
95.49
78.25
64.27
57.26
57.52
62.28
67.67
70.51
69.49
64.38
57.67
53.25
53.89
59.00
64.60
65.27
56.20
35.67
5.38
-28.98
-60.07
-82.14
-93.28
-96.52
-94.60
-90.10
-84.33
-77.67
-69.65
-59.82
-48.40
-36.30
-24.60
-13.80
-4.14
4.57
12.62
20.26
27.24
32.54
34.63
32.35
26.14
18.12
11.77
10.52
16.06
27.42
41.19
53.26
60.62
62.62
60.60
56.96
53.86
52.18
51.73
51.34
49.63
45.73
39.62
31.99
23.87
16.29
9.86
4.45
-0.46
-5.30
-9.94
-13.97
-17.36
-20.95
-26.18
-34.00
-44.06
-54.05
-60.57
-60.87
-54.72
-44.92
-35.92
-31.30
-31.75
-35.45
-39.55
-42.55
-45.30
-50.50
-60.55
-75.29
-91.11
-102.09
-103.84
-95.76
-82.30
-71.22
-70.40
-84.62
-113.70
-152.66
-188.63
-208.91
-205.21
-178.10
-136.22
-91.06
-51.76
-22.60
-3.38
9.38
20.05
33.23
52.71
80.41
115.16
151.90
182.47
198.43
194.30
169.36
128.41
80.36
35.75
4.12
-8.38
-0.27
25.47
63.15
105.00
142.90
170.17
183.03
181.45
168.22
147.93
125.54
105.34
90.02
80.47
75.91
74.40
73.71
71.81
67.43
60.35
51.49
42.75
36.49
34.66
38.28
46.64
57.30
66.90
72.49
71.50
64.31
53.57
42.88
35.38
33.06
36.76
46.48
61.20
78.54
94.60
104.23
102.76
87.84
60.49
24.50
-14.96
-52.90
-85.24
-108.73
-121.23
-122.34
-114.44
-102.76
-94.15
-94.54
-106.62
-129.04
-157.68
-188.25
-217.98
-245.98
-271.78
-293.89
-309.43
-315.12
-309.15
-292.26
-267.58
-239.29
-211.00
-184.43
-159.00
-133.01
-104.84
-74.38
-43.54
-15.68
5.52
17.48
19.77
14.26
4.27
-6.73
-16.38
-23.91
-29.72
-34.51
-38.40
-40.66
-40.17
-36.38
-29.71
-21.59
-13.62
-6.52
0.38
8.60
19.55
33.45
48.97
64.15
77.99
91.60
107.83
129.55
157.58
189.73
221.51
247.91
265.26
271.60
265.97
247.30
214.23
166.33
105.96
39.21
-25.01
-77.69
-112.82
-129.17
-129.87
-120.41
-106.07
-90.48
-75.47
-61.90
-50.27
-41.30
-35.64
-33.31
-33.39
-34.14
-33.74
-30.87
-25.07
-16.63
-6.25
5.55
18.64
33.21
49.37
66.72
84.13
99.81
111.64
117.51
115.69
105.12
85.73
58.77
26.97
-5.63
-34.34
-55.10
-65.53
-65.71
-57.84
-45.34
-31.57
-18.79
-8.05
0.58
7.23
11.95
14.69
15.62
15.35
14.91
15.40
17.50
21.12
25.45
29.26
31.48
31.57
29.74
26.70
23.38
20.48
18.29
16.70
15.31
13.84
12.09
10.19
8.38
6.92
5.97
5.50
5.36
5.23
4.84
3.95
2.39
0.03
-3.27
-7.67
-13.26
-19.90
-27.14
-34.15
-39.85
-43.27
-43.78
-41.35
-36.55
-30.37
-24.01
-18.61
-14.98
-13.52
-14.18
-16.54
-20.01
-24.01
-28.12
-32.05
-35.63
-38.74
-41.22
-43.10
-44.60
-46.24
-48.78
-52.80
-58.44
-65.17
-71.99
-77.84
-82.35
-86.16
-90.78
-97.96
-108.54
-121.63
-134.69
-144.16
-146.73
-140.55
-125.77
-104.37
-79.48
-54.45
-32.09
-14.23
-1.50
6.70
11.91
16.08
20.81
26.55
32.04
34.23
29.07
13.04
-15.20
-53.39
-95.42
-132.74
-157.06
-163.36
-151.63
-126.76
-96.08
-66.18
-40.56
-19.07
0.67
21.19
43.69
68.15
94.56
124.06
158.84
200.58
248.49
298.50
344.29
379.74
401.60
410.39
409.46
402.90
393.56
382.32
368.76
352.40
333.58
313.50
293.48
274.21
255.45
236.25
215.64
193.37
170.21
147.90
128.45
113.14
101.75
92.55
83.17
72.13
60.11
49.88
44.81
46.60
53.79
62.18
66.97
65.25
57.47
46.99
37.91
32.71
31.15
30.67
28.15
21.38
9.67
-6.56
-26.46
-49.18
-73.44
-97.07
-117.16
-130.80
-136.38
-134.32
-127.16
-118.59
-112.25
-110.57
-114.22
-122.18
-132.17
-141.32
-146.89
-147.07
-141.57
-131.78
-120.18
-109.49
-101.70
-97.53
-96.37
-96.81
-97.24
-96.54
-94.36
-91.19
-88.13
-86.45
-86.96
-89.62
-93.40
-96.63
-97.77
-96.16
-92.25
-87.48
-83.47
-81.27
-80.94
-81.56
-81.79
-80.49
-77.18
-72.03
-65.84
-59.78
-55.13
-53.00
-53.77
-56.71
-60.00
-61.22
-58.43
-51.37
-42.03
-34.37
-32.77
-39.92
-54.95
-72.98
-86.10
-85.87
-66.20
-25.39
33.11
101.69
170.76
231.33
277.15
305.74
318.02
317.14
307.09
291.76
274.44
257.82
243.92
233.93
227.99
224.88
222.28
217.68
209.14
195.92
178.35
157.26
133.73
109.18
85.56
65.29
50.60
42.65
40.98
43.73
48.51
53.19
56.26
56.52
52.69
43.33
27.09
3.60
-26.03
-59.47
-93.94
-127.27
-158.26
-186.78
-213.36
-239.08
-265.29
-293.50
-325.25
-361.65
-402.90
-447.52
-492.17
-531.93
-561.80
-577.94
-578.75
-565.28
-540.73
-509.17
-474.06
-437.38
-399.49
-360.59
-320.93
-280.95
-241.24
-202.30
-164.37
-127.10
-89.56
-50.65
-11.23
26.77
61.47
91.92
118.36
141.98
164.79
189.30
218.03
250.65
285.84
322.17
358.05
390.32
413.39
420.39
405.84
368.16
307.67
228.76
139.13
47.88
-37.90
-114.97
-183.20
-243.45
-277.77
-272.02
-224.91
-151.35
-71.94
-1.65
53.59
94.33
124.51
148.88
168.24
181.69
188.54
190.03
188.31
185.68
183.99
184.63
188.47
193.29
196.34
195.30
189.95
181.11
170.25
158.99
149.00
141.78
136.83
132.83
128.54
123.74
118.16
112.07
106.03
100.80
96.98
93.61
88.41
77.80
63.34
44.76
22.39
-2.52
-28.01
-51.86
-72.78
-90.50
-105.74
-119.67
-134.84
-153.88
-179.24
-212.05
-250.95
-291.52
-326.72
-348.90
-352.36
-336.11
-303.58
-261.45
-217.25
-177.21
-145.00
-121.63
-106.25
-97.09
-92.55
-91.04
-90.95
-90.51
-87.82
-81.22
-69.89
-54.61
-38.27
-25.23
-19.34
-22.02
-30.93
-40.69
-45.14
-40.06
-25.16
-3.95
18.15
36.18
47.71
53.33
55.86
58.75
64.59
74.08
85.90
97.42
105.85
109.59
109.11
106.76
105.66
108.00
113.64
119.91
122.95
119.50
108.70
92.41
74.14
57.41
44.73
37.69
37.68
45.92
62.37
84.05
104.69
116.43
113.47
95.29
67.39
38.81
17.55
6.68
3.55
2.14
-2.94
-13.55
-27.79
-41.98
-53.45
-61.80
-68.40
-74.74
-80.90
-85.25
-85.23
-78.99
-66.54
-50.19
-33.70
-20.82
-13.72
-12.08
-13.35
-14.00
-11.20
-4.06
6.09
16.41
24.01
27.14
25.88
21.90
17.58
14.83
14.37
15.58
17.11
17.51
15.99
12.62
8.07
3.27
-1.15
-4.93
-8.24
-11.33
-14.31
-17.09
-19.32
-20.58
-20.60
-19.35
-17.06
-14.25
-11.51
-9.28
-7.69
-6.52
-5.32
-3.64
-1.27
1.66
4.79
7.68
10.12
12.18
14.19
16.43
18.93
21.41
23.38
24.41
24.40
23.61
22.53
21.67
21.30
21.39
21.68
21.88
21.75
21.19
20.25
19.00
17.56
16.10
14.78
13.65
12.67
11.68
10.50
9.01
7.14
4.86
2.17
-0.92
-4.42
-8.25
-12.37
-16.62
-20.86
-24.88
-28.32
-30.72
-31.57
-30.50
-27.54
-23.09
-17.83
-12.48
-7.56
-3.25
0.49
3.77
6.64
8.96
10.64
11.59
11.94
11.90
11.71
11.51
11.36
11.25
11.15
11.09
11.11
11.31
11.72
12.31
12.97
13.54
13.79
13.52
12.55
10.83
8.45
5.67
2.80
0.08
-2.33
-4.46
-6.45
-8.41
-10.35
-12.20
-13.78
-15.08
-16.17
-17.25
-18.57
-20.31
-22.46
-24.77
-26.80
-28.05
-28.12
-26.78
-24.09
-20.25
-15.53
-10.27
-4.82
0.45
5.17
9.05
11.93
13.78
14.75
15.07
14.94
14.53
14.01
13.55
13.30
13.31
13.50
13.67
13.59
13.17
12.47
11.78
11.42
11.58
12.20
12.94
13.38
13.19
12.29
10.86
9.24
7.78
6.61
5.65
4.63
3.28
1.48
-0.73
-3.14
-5.49
-7.54
-9.10
-10.12
-10.70
-11.07
-11.50
-12.29
-13.52
-14.99
-16.16
-16.28
-14.59
-10.75
-4.90
2.31
9.95
17.17
23.33
28.14
31.62
34.00
35.67
36.99
38.07
38.68
38.17
35.78
31.04
24.20
16.18
8.36
2.02
-2.19
-4.39
-5.28
-5.77
-6.49
-7.65
-9.00
-9.94
-9.79
-8.09
-4.87
-0.83
2.85
5.02
5.39
4.74
4.67
7.09
13.17
22.63
33.66
43.59
49.95
51.32
47.70
40.49
32.48
27.20
27.82
35.39
47.60
58.67
61.01
47.68
15.01
-35.65
-97.78
-161.45
-216.26
-254.19
-271.61
-269.36
-252.76
-229.82
-208.23
-192.49
-182.44
-173.96
-161.67
-141.67
-112.60
-77.70
-43.43
-15.88
2.45
13.68
23.06
36.43
57.73
89.67
131.16
178.21
226.54
273.50
317.72
357.59
390.69
414.37
429.51
437.00
436.82
428.32
411.15
385.51
352.18
313.03
255.19
181.23
106.84
49.73
17.50
7.31
12.36
26.35
44.65
64.54
85.90
106.92
124.16
134.43
136.78
132.41
123.07
109.45
92.59
74.90
57.28
39.02
19.18
-1.98
-23.03
-42.42
-59.27
-73.54
-84.80
-93.56
-101.17
-108.85
-116.95
-125.09
-132.91
-140.55
-148.56
-157.24
-166.88
-177.76
-189.85
-202.71
-215.78
-228.84
-242.14
-256.32
-272.17
-290.77
-313.29
-340.11
-369.88
-398.93
-421.81
-432.78
-427.95
-406.91
-372.87
-331.42
-288.27
-247.47
-210.77
-178.29
-149.75
-125.38
-105.85
-91.47
-81.47
-73.81
-65.92
-55.77
-42.60
-27.13
-11.04
4.04
17.19
28.41
38.32
47.56
56.25
63.93
69.81
73.28
74.29
73.46
71.86
70.59
70.53
72.05
75.08
79.17
83.61
87.70
90.82
92.65
93.07
92.27
90.51
88.01
84.88
81.09
76.58
71.27
65.20
58.40
51.03
43.30
35.52
28.02
21.03
14.72
9.05
3.82
-1.24
-6.29
-11.21
-15.49
-18.37
-19.12
-17.32
-13.19
-7.52
-1.42
4.07
8.34
11.31
13.29
14.68
15.78
16.68
17.32
17.68
17.80
17.76
17.66
17.47
17.07
16.34
15.26
13.98
12.85
12.22
12.30
13.06
14.18
15.27
16.03
16.34
16.33
16.21
16.09
15.86
15.26
14.00
11.93
9.17
6.01
2.83
-0.13
-2.94
-5.89
-9.44
-13.98
-19.64
-26.17
-33.03
-39.35
-44.14
-46.44
-45.57
-41.37
-34.37
-25.64
-16.55
-8.35
-1.77
3.00
6.21
8.28
9.52
10.04
9.90
9.23
8.35
7.76
7.96
9.29
11.77
15.13
18.90
22.66
26.02
28.83
31.03
32.58
33.44
33.54
32.89
31.63
29.98
28.14
26.19
24.06
21.57
18.64
15.37
12.05
9.07
6.70
4.91
3.40
1.68
-0.72
-4.08
-8.24
-12.68
-16.50
-18.75
-18.62
-15.78
-10.42
-3.34
4.38
11.63
17.59
21.92
24.66
26.01
26.12
24.92
22.20
17.97
12.62
6.99
2.13
-1.06
-2.15
-1.21
1.34
4.96
9.20
13.74
18.27
22.48
26.05
28.66
30.08
30.19
28.88
26.12
21.98
16.71
10.84
5.06
0.14
-3.41
-5.34
-5.90
-5.69
-5.47
-6.01
-7.74
-10.65
-14.21
-17.56
-19.65
-19.71
-17.33
-12.72
-6.54
0.33
7.02
12.87
17.47
20.67
22.36
22.46
20.86
17.58
12.87
7.30
1.70
-2.99
-5.93
-6.61
-4.95
-1.30
3.67
9.11
14.16
18.10
20.50
21.28
20.69
19.17
17.21
15.14
13.09
11.08
8.99
6.77
4.44
2.13
-0.03
-1.85
-3.21
-4.03
-4.35
-4.31
-4.28
-4.69
-5.97
-8.43
-12.04
-16.25
-20.13
-22.48
-22.25
-18.92
-12.72
-4.63
3.93
11.61
17.60
21.71
24.33
25.94
26.86
27.02
26.13
24.01
20.84
17.34
14.42
13.00
13.47
15.62
18.80
22.11
24.81
26.56
27.51
28.07
28.80
30.11
32.10
34.48
36.61
37.70
37.02
34.26
29.49
23.31
16.68
10.75
6.69
5.34
6.97
11.03
16.28
20.95
23.36
22.32
17.46
9.25
-1.32
-12.98
-24.55
-34.95
-43.31
-48.82
-50.92
-49.43
-44.63
-37.31
-28.59
-19.70
-11.67
-5.12
-0.22
3.23
5.58
7.18
8.16
8.55
8.25
7.32
6.06
5.01
4.79
5.83
8.18
11.41
14.81
17.55
19.14
19.44
18.73
17.45
16.00
14.53
12.98
11.18
9.04
6.61
4.16
2.01
0.45
-0.37
-0.51
-0.20
0.26
0.62
0.77
0.69
0.42
-0.08
-1.00
-2.61
-5.08
-8.36
-12.20
-16.16
-19.81
-22.88
-25.16
-26.55
-26.89
-25.98
-23.62
-19.87
-15.02
-9.61
-4.31
0.33
4.00
6.64
8.36
9.36
9.79
9.76
9.37
8.73
7.98
7.31
6.89
6.85
7.26
8.15
9.47
11.12
12.91
14.63
16.07
17.04
17.47
17.35
16.77
15.88
14.84
13.76
12.70
11.61
10.39
8.97
7.33
5.55
3.81
2.30
1.12
0.24
-0.43
-1.06
-1.74
-2.51
-3.31
-4.02
-4.44
-4.39
-3.80
-2.73
-1.43
-0.32
0.13
-0.50
-2.41
-5.51
-9.39
-13.41
-16.88
-19.19
-19.94
-19.09
-16.79
-13.45
-9.49
-5.31
-1.21
2.52
5.67
8.08
9.61
10.23
9.96
8.91
7.24
5.23
3.18
1.48
0.50
0.44
1.32
2.93
4.94
6.96
8.71
10.06
11.01
11.61
11.90
11.86
11.41
10.54
9.30
7.80
6.26
4.88
3.80
2.97
2.34
1.74
1.11
0.38
-0.41
-1.18
-1.89
-2.50
-3.07
-3.60
-4.16
-4.80
-5.57
-6.56
-7.75
-9.19
-10.80
-12.43
-13.82
-14.59
-14.31
-12.63
-9.45
-5.10
-0.26
4.33
8.07
10.69
12.29
13.18
13.64
13.75
13.40
12.43
10.94
9.28
8.00
7.67
8.59
10.66
13.34
15.86
17.50
17.91
17.21
15.85
14.43
13.31
12.43
11.30
9.31
5.95
1.18
-4.55
-10.40
-15.27
-18.19
-18.43
-15.81
-10.76
-4.43
1.57
5.56
6.21
3.01
-3.60
-12.40
-21.77
-30.11
-36.22
-39.36
-39.32
-36.33
-30.96
-24.08
-16.70
-9.84
-4.23
-0.30
1.97
2.89
2.89
2.45
1.93
1.56
1.47
1.71
2.31
3.30
4.69
6.44
8.40
10.31
11.86
12.77
12.88
12.24
11.05
9.57
8.03
6.55
5.12
3.68
2.18
0.66
-0.74
-1.88
-2.64
-3.10
-3.42
-3.84
-4.58
-5.70
-7.13
-8.67
-10.08
-11.15
-11.79
-12.01
-11.99
-12.00
-12.30
-13.09
-14.39
-15.96
-17.41
-18.24
-18.02
-16.56
-13.93
-10.39
-6.42
-2.49
0.97
3.63
5.31
5.98
5.80
4.99
3.81
2.46
1.06
-0.26
-1.32
-1.91
-1.78
-0.81
0.92
3.09
5.28
7.06
8.18
8.63
8.56
8.18
7.62
6.89
5.98
4.85
3.58
2.36
1.36
0.68
0.36
0.31
0.39
0.46
0.43
0.27
0.02
-0.26
-0.55
-0.86
-1.26
-1.78
-2.46
-3.28
-4.24
-5.33
-6.61
-8.21
-10.26
-12.75
-15.42
-17.79
-19.17
-19.00
-16.95
-13.15
-8.13
-2.75
2.09
5.70
7.74
8.23
7.54
6.22
4.78
3.64
3.02
2.92
3.23
3.78
4.42
5.07
5.69
6.29
6.85
7.40
7.94
8.47
8.93
9.28
9.38
9.14
8.56
7.74
6.89
6.24
5.90
5.85
6.00
6.16
6.12
5.82
5.23
4.44
3.55
2.65
1.75
0.82
-0.24
-1.56
-3.18
-5.05
-6.99
-8.77
-10.17
-11.04
-11.34
-11.23
-11.04
-11.15
-11.90
-13.36
-15.27
-17.06
-18.02
-17.61
-15.66
-12.44
-8.51
-4.48
-0.89
1.99
4.01
5.22
5.76
5.90
5.90
6.01
6.30
6.65
6.89
6.94
6.88
6.94
7.34
8.14
9.24
10.33
11.14
11.54
11.51
11.12
10.45
9.58
8.54
7.42
6.26
5.18
4.29
3.66
3.32
3.21
3.15
2.92
2.35
1.37
0.10
-1.20
-2.33
-3.14
-3.63
-3.93
-4.16
-4.39
-4.68
-5.07
-5.62
-6.45
-7.58
-8.91
-10.14
-10.75
-10.19
-8.13
-4.59
-0.08
4.50
8.29
10.60
11.23
10.45
8.81
6.83
4.86
3.03
1.34
-0.17
-1.33
-1.98
-1.99
-1.45
-0.65
0.08
0.49
0.53
0.42
0.38
0.64
1.24
2.03
2.77
3.24
3.28
2.84
1.99
0.85
-0.37
-1.47
-2.33
-2.88
-3.20
-3.47
-3.93
-4.70
-5.75
-6.89
-7.84
-8.48
-8.82
-9.01
-9.27
-9.68
-10.23
-10.87
-11.57
-12.41
-13.44
-14.57
-15.48
-15.65
-14.60
-12.15
-8.58
-4.53
-0.75
2.24
4.28
5.54
6.34
7.02
7.78
8.62
9.40
9.97
10.17
9.94
9.34
8.56
7.86
7.40
7.22
7.20
7.15
6.95
6.59
6.22
5.96
5.93
6.01
6.05
5.92
5.55
4.97
4.24
3.38
2.37
1.20
-0.10
-1.39
-2.48
-3.23
-3.62
-3.80
-3.99
-4.42
-5.20
-6.30
-7.54
-8.71
-9.68
-10.35
-10.73
-10.87
-10.84
-10.73
-10.72
-11.02
-11.84
-13.27
-15.11
-16.86
-17.87
-17.50
-15.46
-11.88
-7.31
-2.44
2.05
5.67
8.23
9.69
10.22
9.98
9.26
8.32
7.44
6.83
6.56
6.62
6.92
7.39
7.94
8.59
9.35
10.25
11.24
12.20
12.90
13.08
12.50
11.03
8.73
5.82
2.65
-0.31
-2.61
-3.89
-4.00
-3.10
-1.56
0.11
1.41
2.07
2.11
1.81
1.49
1.38
1.35
1.00
-0.25
-2.90
-7.13
-12.64
-18.76
-24.49
-28.86
-31.07
-30.70
-27.68
-22.33
-15.22
-7.08
1.34
9.34
16.35
21.95
25.76
27.47
26.81
23.67
18.30
11.33
3.74
-3.41
-9.22
-13.20
-15.27
-15.73
-15.01
-13.48
-11.47
-9.17
-6.77
-4.38
-2.06
0.28
2.83
5.83
9.37
13.24
16.85
19.42
20.20
18.80
15.36
10.56
5.27
0.35
-3.71
-6.76
-8.96
-10.50
-11.58
-12.32
-12.84
-13.32
-13.97
-15.04
-16.62
-18.55
-20.38
-21.52
-21.36
-19.60
-16.35
-12.15
-7.76
-3.86
-0.77
1.52
3.28
4.72
5.79
6.22
5.70
4.11
1.65
-1.15
-3.68
-5.46
-6.25
-6.03
-5.00
-3.35
-1.34
0.88
3.19
5.52
7.85
10.18
12.38
14.31
15.77
16.62
16.84
16.44
15.48
13.98
12.01
9.70
7.37
5.38
4.04
3.46
3.48
3.73
3.85
3.54
2.64
1.09
-1.13
-3.94
-7.17
-10.54
-13.65
-16.19
-17.98
-19.04
-19.45
-19.19
-18.06
-15.79
-12.27
-7.66
-2.51
2.43
6.42
8.99
10.05
9.85
8.82
7.40
5.91
4.56
3.35
2.25
1.22
0.27
-0.54
-1.09
-1.35
-1.33
-1.07
-0.59
0.23
1.58
3.66
6.55
10.09
13.81
17.11
19.32
20.03
19.13
16.93
13.96
10.79
7.92
5.57
3.75
2.34
1.21
0.27
-0.44
-0.93
-1.19
-1.26
-1.26
-1.32
-1.54
-2.01
-2.74
-3.72
-4.93
-6.33
-7.83
-9.45
-11.13
-12.92
-14.82
-16.73
-18.41
-19.47
-19.49
-18.19
-15.68
-12.32
-8.76
-5.58
-3.16
-1.62
-0.83
-0.64
-0.97
-1.86
-3.36
-5.46
-8.02
-10.70
-13.12
-14.84
-15.60
-15.36
-14.40
-13.18
-12.26
-12.01
-12.47
-13.38
-14.34
-15.00
-15.26
-15.33
-15.68
-16.86
-19.22
-22.64
-26.47
-29.54
-30.88
-30.38
-29.15
-29.36
-33.21
-41.73
-54.10
-68.04
-80.73
-89.90
-94.10
-92.36
-83.88
-68.26
-46.42
-21.36
1.99
18.44
24.74
21.25
11.74
1.38
-5.97
-9.46
-11.02
-13.65
-19.17
-27.15
-35.22
-40.52
-41.21
-37.12
-29.60
-20.62
-11.90
-4.55
0.82
3.89
4.54
3.18
1.09
0.54
4.18
14.20
31.47
55.26
83.63
114.12
144.33
172.17
195.69
212.91
222.06
222.12
213.46
198.07
179.28
160.74
145.49
135.33
130.56
130.31
132.97
136.69
139.76
140.92
139.38
134.73
126.69
114.97
99.40
80.27
58.72
36.72
16.48
-0.39
-13.64
-24.42
-34.43
-44.65
-54.49
-61.67
-63.35
-57.52
-44.17
-25.40
-4.55
15.14
31.59
44.28
53.99
62.12
70.04
78.75
88.76
100.04
111.80
122.37
129.22
129.45
120.69
101.97
74.37
40.69
4.63
-30.39
-62.25
-90.59
-116.49
-141.47
-166.35
-190.39
-211.29
-225.97
-231.88
-228.14
-216.07
-198.65
-179.43
-161.28
-145.71
-133.01
-122.93
-115.20
-109.78
-106.63
-105.19
-104.30
-102.58
-98.98
-93.38
-86.57
-80.04
-75.17
-72.75
-72.61
-73.79
-75.04
-75.24
-73.94
-71.33
-68.14
-65.30
-63.58
-63.43
-64.92
-67.73
-71.28
-74.77
-77.43
-78.70
-78.63
-78.05
-78.40
-81.15
-87.09
-95.67
-105.01
-112.52
-115.71
-112.91
-103.51
-87.55
-65.26
-36.76
-2.18
37.71
80.86
123.91
162.64
193.17
212.86
221.00
218.69
208.21
192.32
173.68
154.71
137.57
124.05
115.36
111.72
112.10
114.36
116.02
115.14
111.05
104.56
97.58
92.21
89.95
91.10
94.73
98.92
101.31
99.48
91.47
76.19
53.91
26.58
-2.34
-28.48
-47.71
-57.48
-57.63
-50.54
-40.30
-31.43
-27.60
-30.67
-40.45
-54.95
-71.15
-85.91
-96.79
-102.61
-103.71
-101.69
-99.00
-98.04
-100.33
-105.83
-112.84
-118.57
-120.40
-117.06
-109.36
-99.82
-91.59
-87.01
-86.63
-89.20
-92.29
-93.47
-91.22
-85.46
-77.71
-70.85
-68.49
-73.69
-87.42
-107.37
-127.98
-142.07
-143.44
-129.23
-100.86
-62.95
-20.83
21.92
64.38
107.22
150.48
191.73
225.86
246.92
250.83
237.50
211.22
178.89
147.38
121.23
101.76
87.85
77.47
69.31
63.14
59.48
58.68
60.30
63.03
65.22
65.52
63.33
59.04
53.78
48.92
45.70
44.72
45.94
48.77
52.34
55.96
59.19
61.83
63.80
64.99
65.41
65.24
64.94
65.09
66.14
68.23
71.07
74.17
77.15
79.84
82.17
83.82
83.93
81.07
73.67
60.61
41.79
18.36
-7.46
-33.04
-56.01
-74.69
-88.42
-97.42
-102.55
-105.06
-106.30
-107.46
-109.29
-112.07
-115.37
-118.38
-120.07
-119.59
-116.46
-110.76
-103.06
-94.15
-84.74
-75.13
-65.22
-54.82
-44.16
-34.08
-25.94
-20.86
-18.85
-18.40
-17.16
-13.06
-5.52
4.34
14.46
23.49
31.72
40.96
53.26
69.30
87.60
104.89
117.66
123.51
122.08
114.82
104.00
91.80
79.70
68.46
58.42
49.87
43.17
38.58
35.98
34.47
32.27
27.14
17.08
1.29
-19.37
-42.51
-65.07
-84.34
-98.83
-108.36
-113.79
-116.32
-116.91
-116.08
-113.99
-110.75
-106.59
-101.86
-97.01
-92.33
-88.04
-84.10
-80.32
-76.35
-71.77
-66.16
-59.28
-51.14
-42.06
-32.61
-23.45
-15.24
-8.47
-3.39
0.04
2.07
3.08
3.50
3.70
3.96
4.38
4.92
5.44
5.78
5.81
5.51
4.97
4.32
3.70
3.19
2.75
2.28
1.66
0.83
-0.16
-1.16
-1.91
-2.10
-1.56
-0.24
1.70
3.98
6.38
8.85
11.51
14.59
18.23
22.24
26.14
29.21
30.79
30.52
28.43
24.98
20.89
16.98
13.91
12.10
11.64
12.31
13.68
15.17
16.29
16.69
16.26
15.17
13.76
12.39
11.30
10.51
9.83
8.96
7.66
5.77
3.16
-0.32
-4.87
-10.61
-17.35
-24.48
-31.05
-36.09
-39.06
-40.08
-39.91
-39.49
-39.50
-39.99
-40.37
-39.64
-36.82
-31.35
-23.23
-13.19
-2.53
6.95
13.35
15.10
11.58
3.42
-7.53
-18.58
-27.08
-31.14
-30.21
-25.08
-17.64
-10.30
-5.34
-4.50
-8.46
-16.67
-27.54
-38.83
-48.37
-54.71
-57.62
-57.91
-57.12
-56.91
-58.64
-63.26
-71.17
-82.23
-95.56
-109.46
-121.37
-128.28
-127.44
-117.25
-98.03
-72.32
-44.55
-20.04
-3.54
2.13
-3.25
-17.36
-36.25
-55.57
-71.50
-81.38
-83.65
-77.59
-63.20
-41.28
-13.58
17.31
48.47
77.50
103.11
125.14
143.93
159.47
170.96
177.11
177.06
171.10
160.97
148.96
136.77
124.57
111.31
95.89
78.54
61.49
48.06
41.07
41.14
46.35
53.16
58.24
60.09
59.38
58.08
57.86
59.06
60.35
59.79
56.02
49.03
40.16
31.23
23.57
17.61
12.96
9.03
5.55
2.70
0.85
0.08
-0.02
-0.21
-1.21
-3.22
-5.85
-8.26
-9.52
-8.99
-6.51
-2.37
2.85
8.50
14.11
19.51
24.91
30.73
37.28
44.46
51.59
57.62
61.64
63.60
64.77
67.84
76.25
93.18
120.34
157.17
200.29
244.04
281.47
305.96
312.94
301.13
272.86
233.21
188.38
143.68
102.19
64.25
28.39
-7.22
-43.25
-78.57
-110.55
-136.17
-153.40
-161.89
-162.98
-159.09
-152.89
-146.57
-141.67
-139.10
-139.17
-141.63
-145.53
-149.31
-151.15
-149.59
-144.30
-136.26
-127.60
-120.73
-117.61
-118.83
-123.43
-129.23
-133.53
-134.11
-129.79
-120.94
-109.32
-97.60
-88.50
-83.95
-84.29
-88.02
-92.50
-94.88
-93.49
-88.25
-80.41
-71.34
-61.51
-50.21
-36.05
-18.26
2.48
23.94
43.14
57.61
66.17
69.20
68.07
64.56
60.11
55.67
51.61
47.94
44.57
41.45
38.73
36.60
35.28
34.76
35.02
36.04
37.92
40.82
44.62
48.88
52.87
56.11
58.71
61.57
65.85
72.25
80.47
89.14
96.40
100.85
102.16
101.25
100.03
100.82
105.95
117.23
135.27
158.89
184.67
207.40
221.20
221.49
206.55
177.95
139.92
97.52
54.80
13.64
-25.96
-64.64
-102.13
-136.38
-164.05
-181.92
-188.67
-185.69
-176.68
-165.98
-156.68
-149.54
-143.27
-136.01
-126.86
-116.73
-107.73
-101.91
-99.95
-100.69
-101.84
-101.24
-98.04
-93.05
-88.31
-85.91
-86.94
-90.87
-95.84
-99.44
-99.80
-96.37
-90.10
-83.01
-77.43
-75.25
-77.53
-84.16
-93.74
-103.63
-110.19
-109.39
-97.84
-73.81
-38.05
6.15
53.84
99.79
139.89
171.93
195.24
209.70
214.82
209.48
192.76
165.29
130.36
93.73
62.34
42.12
36.09
43.80
62.14
86.95
114.50
141.85
166.51
185.71
196.14
194.57
178.97
149.53
109.00
61.86
13.17
-32.59
-72.10
-103.36
-125.41
-138.22
-142.70
-140.69
-134.73
-127.51
-121.21
-116.95
-114.71
-113.61
-112.39
-109.92
-105.38
-98.43
-89.09
-77.83
-65.41
-52.95
-41.53
-32.10
-25.14
-20.59
-17.97
-16.59
-15.83
-15.27
-14.69
-13.97
-12.91
-11.39
-9.26
-6.55
-3.46
-0.28
2.80
5.69
8.35
10.76
12.76
14.16
14.82
14.82
14.40
13.88
13.47
13.12
12.64
11.70
10.13
7.93
5.33
2.77
0.71
-0.47
-0.56
0.36
1.95
3.72
5.18
5.96
5.93
5.15
3.82
2.29
1.02
0.49
1.14
3.18
6.41
10.26
13.92
16.63
18.00
18.10
17.39
16.52
16.09
16.43
17.61
19.49
21.86
24.58
27.57
30.84
34.46
38.49
42.97
47.80
52.75
57.46
61.50
64.48
66.16
66.54
65.79
64.22
62.16
59.96
57.87
55.96
53.88
50.69
44.96
35.26
20.79
2.03
-19.20
-40.23
-58.43
-72.19
-81.26
-86.49
-89.11
-90.07
-89.77
-88.30
-85.89
-83.21
-81.29
-80.99
-82.55
-85.35
-88.06
-89.13
-87.34
-82.11
-73.66
-62.79
-50.46
-37.60
-24.96
-12.99
-1.90
8.26
17.66
26.52
35.00
43.18
50.83
57.41
62.09
63.93
62.08
56.18
46.62
34.63
22.25
11.85
5.51
4.42
8.46
16.17
25.21
32.99
37.46
37.55
33.33
25.84
16.77
8.00
1.16
-2.67
-3.25
-1.12
2.56
6.35
8.91
9.42
7.67
4.10
-0.33
-4.50
-7.39
-8.29
-7.09
-4.21
-0.51
2.94
5.16
5.54
3.80
0.01
-5.43
-11.85
-18.33
-23.81
-27.34
-28.36
-26.91
-23.63
-19.53
-15.60
-12.45
-10.12
-8.29
-6.55
-4.64
-2.65
-0.89
0.29
0.71
0.46
-0.13
-0.60
-0.51
0.50
2.59
5.67
9.44
13.40
16.95
19.44
20.39
19.47
16.60
11.92
5.82
-1.05
-7.90
-13.82
-18.10
-20.29
-20.40
-18.81
-16.16
-13.06
-9.95
-6.99
-4.17
-1.43
1.27
3.85
6.16
7.96
9.06
9.32
8.73
7.46
5.74
3.97
2.58
2.02
2.59
4.42
7.36
11.03
14.92
18.41
21.05
22.52
22.72
21.71
19.58
16.48
12.52
7.89
2.80
-2.43
-7.49
-12.08
-15.99
-19.06
-21.21
-22.40
-22.67
-22.08
-20.74
-18.76
-16.24
-13.25
-9.90
-6.43
-3.13
-0.33
1.78
3.21
4.12
4.79
5.46
6.29
7.31
8.41
9.49
10.46
11.26
11.83
12.13
12.03
11.44
10.36
8.97
7.74
7.31
8.28
10.84
14.65
18.71
21.70
22.39
20.11
15.08
8.35
1.56
-3.64
-6.14
-5.81
-3.46
-0.61
1.17
0.90
-1.52
-5.28
-9.07
-11.67
-12.41
-11.34
-9.20
-7.11
-6.22
-7.39
-10.82
-15.94
-21.39
-25.36
-26.02
-22.23
-13.89
-2.11
11.14
23.66
33.54
39.65
41.75
40.36
36.47
31.28
25.89
21.17
17.60
15.25
13.73
12.39
10.43
7.14
2.07
-4.77
-12.93
-21.52
-29.47
-35.72
-39.50
-40.48
-38.88
-35.27
-30.38
-24.91
-19.37
-14.02
-8.96
-4.26
-0.01
3.60
6.39
8.34
9.57
10.36
10.99
11.49
11.57
10.75
8.54
4.81
-0.14
-5.64
-10.87
-15.15
-18.08
-19.60
-19.80
-18.80
-16.70
-13.63
-9.89
-5.91
-2.16
0.89
3.01
4.16
4.48
4.18
3.47
2.47
1.26
-0.13
-1.62
-3.05
-4.11
-4.48
-3.92
-2.40
-0.14
2.47
5.07
7.53
9.98
12.77
16.08
19.75
23.21
25.61
26.14
24.31
20.22
14.49
8.11
2.14
-2.61
-5.76
-7.36
-7.86
-7.86
-7.89
-8.21
-8.79
-9.36
-9.57
-9.18
-8.22
-6.89
-5.57
-4.63
-4.34
-4.73
-5.72
-7.02
-8.30
-9.19
-9.44
-8.87
-7.47
-5.38
-2.88
-0.35
1.80
3.25
3.85
3.65
2.91
1.97
1.13
0.63
0.63
1.24
2.52
4.36
6.55
8.64
10.20
10.87
10.61
9.65
8.46
7.50
7.08
7.26
7.84
8.47
8.75
8.34
7.12
5.19
2.88
0.61
-1.22
-2.44
-3.07
-3.35
-3.51
-3.66
-3.78
-3.68
-3.18
-2.20
-0.81
0.79
2.30
3.43
3.90
3.54
2.42
0.80
-0.78
-1.72
-1.52
-0.01
2.58
5.67
8.57
10.74
11.91
12.21
11.91
11.25
10.38
9.19
7.50
5.13
2.07
-1.51
-5.31
-8.99
-12.29
-15.04
-17.15
-18.49
-18.98
-18.46
-16.79
-13.84
-9.52
-3.86
2.97
10.42
17.43
22.61
24.51
22.26
16.04
7.39
-1.01
-6.07
-5.20
2.69
16.82
34.44
51.49
63.54
66.71
58.53
38.58
8.74
-27.04
-63.42
-94.93
-117.23
-128.18
-128.09
-119.26
-104.94
-88.14
-70.95
-54.41
-38.83
-24.17
-10.33
2.76
15.06
26.38
36.23
43.92
48.81
50.68
49.93
47.48
44.33
41.14
38.02
34.71
30.82
26.29
21.31
16.24
11.36
6.81
2.65
-0.95
-3.66
-5.18
-5.38
-4.57
-3.37
-2.54
-2.56
-3.44
-4.80
-6.00
-6.42
-5.78
-4.20
-2.19
-0.35
0.82
1.23
1.22
1.38
2.33
4.34
7.19
10.23
12.65
13.74
13.19
11.17
8.21
4.96
2.02
-0.22
-1.64
-2.38
-2.78
-3.19
-3.90
-4.91
-6.03
-6.88
-7.07
-6.34
-4.65
-2.20
0.74
3.78
6.59
8.87
10.41
11.09
10.89
9.89
8.30
6.43
4.63
3.27
2.57
2.59
3.11
3.75
4.08
3.83
2.96
1.70
0.43
-0.54
-1.13
-1.55
-2.21
-3.46
-5.42
-7.82
-10.15
-11.81
-12.45
-12.03
-10.88
-9.48
-8.28
-7.52
-7.20
-7.05
-6.82
-6.36
-5.64
-4.79
-3.89
-2.95
-1.84
-0.35
1.65
4.12
6.78
9.23
11.02
11.86
11.72
10.75
9.33
7.81
6.49
5.46
4.64
3.84
2.86
1.67
0.40
-0.66
-1.30
-1.46
-1.30
-1.19
-1.51
-2.49
-4.05
-5.88
-7.51
-8.59
-9.00
-8.78
-8.19
-7.49
-6.93
-6.69
-6.89
-7.47
-8.23
-8.78
-8.66
-7.52
-5.29
-2.23
1.16
4.34
6.98
8.93
10.26
10.99
11.06
10.29
8.53
5.80
2.43
-1.03
-3.98
-5.97
-6.86
-6.90
-6.57
-6.34
-6.52
-7.07
-7.63
-7.65
-6.63
-4.26
-0.64
3.82
8.43
12.41
15.08
16.00
15.12
12.70
9.35
5.79
2.68
0.42
-0.91
-1.43
-1.44
-1.26
-1.22
-1.55
-2.48
-4.13
-6.42
-9.04
-11.51
-13.40
-14.50
-14.94
-15.03
-15.15
-15.49
-16.01
-16.49
-16.58
-16.04
-14.66
-12.36
-9.06
-4.85
-0.00
4.98
9.37
12.46
13.76
13.22
11.20
8.38
5.46
3.05
1.48
0.85
1.16
2.34
4.29
6.90
9.94
13.14
16.15
18.65
20.32
20.96
20.44
18.73
15.98
12.45
8.62
5.08
2.41
1.03
1.08
2.37
4.48
6.90
9.16
10.88
11.86
12.05
11.52
10.46
9.08
7.64
6.35
5.34
4.67
4.28
4.09
4.08
4.27
4.71
5.45
6.45
7.60
8.63
9.25
9.19
8.36
6.83
4.84
2.65
0.52
-1.41
-3.01
-4.16
-4.68
-4.37
-3.12
-0.96
1.84
4.86
7.61
9.66
10.79
11.03
10.55
9.67
8.70
7.83
7.03
6.13
4.80
2.85
0.25
-2.75
-5.78
-8.51
-10.78
-12.64
-14.20
-15.56
-16.65
-17.32
-17.44
-16.98
-16.08
-15.06
-14.26
-13.91
-14.15
-14.86
-15.70
-16.19
-15.80
-14.22
-11.46
-7.89
-4.13
-0.83
1.55
2.83
3.10
2.70
1.97
1.18
0.44
-0.26
-0.91
-1.45
-1.72
-1.48
-0.60
0.87
2.65
4.37
5.71
6.53
6.91
7.07
7.20
7.45
7.86
8.39
9.01
9.68
10.34
10.85
10.99
10.54
9.30
7.21
4.28
0.67
-3.37
-7.46
-11.12
-13.88
-15.35
-15.47
-14.54
-13.22
-12.16
-11.77
-12.05
-12.56
-12.75
-12.18
-10.76
-8.75
-6.59
-4.68
-3.25
-2.26
-1.56
-0.96
-0.37
0.20
0.64
0.87
0.83
0.57
0.26
0.11
0.26
0.79
1.63
2.66
3.77
4.83
5.72
6.43
7.00
7.45
7.79
7.97
7.90
7.48
6.65
5.43
3.96
2.38
0.82
-0.70
-2.22
-3.77
-5.23
-6.43
-7.16
-7.33
-7.02
-6.51
-6.18
-6.36
-7.27
-8.87
-10.92
-12.98
-14.54
-15.11
-14.36
-12.24
-9.07
-5.43
-1.96
0.83
2.71
3.74
4.24
4.51
4.83
5.29
5.95
6.84
8.06
9.73
11.96
14.78
18.07
21.45
24.34
26.05
25.91
23.53
19.02
13.00
6.49
0.66
-3.62
-5.94
-6.41
-5.58
-4.10
-2.50
-1.08
0.10
1.15
2.18
3.19
4.02
4.36
3.80
1.95
-1.44
-6.36
-12.50
-19.28
-25.97
-31.81
-36.15
-38.58
-38.91
-37.21
-33.63
-28.39
-21.68
-13.75
-4.92
4.38
13.55
21.91
28.77
33.56
35.93
35.81
33.45
29.30
23.89
17.70
11.10
4.38
-2.13
-8.09
-13.03
-16.45
-18.02
-17.73
-15.90
-13.08
-9.83
-6.53
-3.25
0.13
3.79
7.73
11.67
15.07
17.39
18.33
17.90
16.42
14.34
12.00
9.57
7.15
4.75
2.50
0.55
-0.94
-1.88
-2.28
-2.31
-2.12
-1.85
-1.64
-1.51
-1.46
-1.44
-1.38
-1.31
-1.37
-1.77
-2.81
-4.66
-7.29
-10.40
-13.50
-15.94
-17.17
-16.95
-15.36
-12.84
-10.02
-7.50
-5.67
-4.66
-4.31
-4.44
-4.90
-5.59
-6.57
-7.86
-9.47
-11.31
-13.24
-14.98
-16.17
-16.43
-15.44
-13.15
-9.79
-5.81
-1.72
2.11
5.61
8.82
11.86
14.62
16.80
17.97
17.79
16.14
13.24
9.61
5.86
2.61
0.33
-0.74
-0.62
0.45
1.98
3.36
4.01
3.56
1.98
-0.26
-2.37
-3.35
-2.32
1.19
7.02
14.33
21.66
27.19
29.22
26.39
18.22
5.19
-11.24
-28.84
-45.02
-57.36
-63.91
-63.50
-55.97
-42.18
-24.12
-4.69
12.88
25.63
31.69
30.78
24.21
14.35
3.80
-5.45
-12.24
-16.23
-17.56
-16.53
-13.50
-8.95
-3.51
2.13
7.31
11.60
14.89
17.27
18.94
20.11
20.80
20.94
20.32
18.71
15.96
12.10
7.45
2.57
-1.87
-5.28
-7.25
-7.68
-6.74
-4.81
-2.48
-0.32
1.16
1.73
1.40
0.42
-0.97
-2.62
-4.53
-6.71
-8.97
-10.87
-11.75
-11.08
-8.58
-4.50
0.52
5.66
10.22
13.82
16.49
18.49
20.14
21.64
22.95
23.88
24.15
23.53
21.98
19.75
17.28
15.06
13.40
12.19
10.90
8.64
4.55
-1.70
-9.74
-18.44
-26.31
-31.88
-34.23
-33.14
-29.13
-23.20
-16.55
-10.37
-5.58
-2.77
-2.15
-3.49
-6.19
-9.35
-12.00
-13.28
-12.71
-10.36
-6.77
-2.75
0.90
3.71
5.65
7.00
8.12
9.21
10.14
10.54
10.00
8.32
5.72
2.82
0.48
-0.55
0.14
2.44
5.83
9.55
12.86
15.27
16.54
16.75
16.13
15.00
13.61
12.21
11.00
10.10
9.65
9.66
10.04
10.44
10.45
9.64
7.88
5.47
3.04
1.32
0.77
1.36
2.49
3.33
3.05
1.20
-2.18
-6.63
-11.30
-15.20
-17.42
-17.31
-14.66
-9.87
-4.03
1.36
4.60
4.48
0.62
-6.28
-14.64
-22.45
-28.01
-30.45
-29.83
-27.01
-23.16
-19.20
-15.65
-12.59
-9.82
-7.16
-4.48
-1.73
1.13
4.12
7.26
10.37
13.20
15.46
16.98
17.84
18.28
18.68
19.30
20.19
21.22
22.15
22.90
23.52
24.26
25.48
27.47
30.30
33.78
37.42
40.47
42.10
41.48
38.01
31.53
22.38
11.47
0.16
-9.97
-17.59
-21.85
-22.71
-20.85
-17.45
-13.71
-10.63
-8.71
-8.00
-8.32
-9.42
-11.07
-13.08
-15.30
-17.58
-19.77
-21.83
-23.72
-25.44
-26.94
-28.03
-28.56
-28.38
-27.40
-25.62
-23.11
-19.99
-16.45
-12.73
-9.11
-5.84
-3.13
-0.98
0.64
1.85
2.79
3.59
4.40
5.43
6.80
8.52
10.50
12.57
14.56
16.39
18.04
19.53
20.82
21.79
22.24
22.02
21.04
19.32
17.00
14.26
11.26
8.16
5.05
2.03
-0.82
-3.37
-5.51
-7.14
-8.26
-9.01
-9.60
-10.29
-11.35
-12.92
-15.00
-17.40
-19.75
-21.56
-22.38
-21.91
-20.14
-17.31
-13.87
-10.28
-6.88
-3.80
-1.01
1.59
4.04
6.25
7.97
8.98
9.10
8.36
7.04
5.62
4.60
4.36
4.99
6.26
7.75
8.99
9.64
9.60
9.07
8.36
7.77
7.36
6.96
6.26
4.99
3.08
0.77
-1.48
-3.17
-4.01
-4.01
-3.59
-3.35
-3.92
-5.74
-8.87
-12.83
-16.84
-19.95
-21.49
-21.44
-20.50
-19.81
-20.44
-22.79
-26.15
-28.80
-28.38
-22.79
-11.01
6.25
26.30
44.89
57.34
59.98
51.43
33.39
10.22
-12.40
-29.40
-37.88
-37.97
-32.23
-24.31
-17.20
-12.07
-8.11
-3.36
3.86
13.71
24.39
32.73
35.50
30.80
19.12
3.35
-12.01
-22.19
-23.48
-14.40
3.78
27.08
49.47
64.39
66.58
53.95
28.50
-3.99
-35.70
-59.31
-70.29
-68.02
-55.29
-36.87
-17.60
-1.02
11.09
18.55
22.07
22.79
21.87
20.39
19.08
18.14
17.26
15.62
12.36
6.93
-0.34
-8.18
-14.55
-17.37
-15.31
-8.36
1.92
12.87
21.56
25.72
24.43
18.31
9.17
-0.60
-8.82
-14.03
-15.76
-14.39
-10.91
-6.51
-2.19
1.40
4.03
5.70
6.47
6.39
5.42
3.53
0.79
-2.54
-6.03
-9.09
-11.15
-11.83
-10.95
-8.69
-5.42
-1.65
2.11
5.46
8.08
9.76
10.44
10.20
9.20
7.77
6.23
4.82
3.60
2.50
1.36
0.06
-1.39
-2.80
-3.75
-3.74
-2.34
0.70
5.19
10.55
15.88
20.14
22.49
22.48
20.22
16.25
11.51
6.89
3.11
0.58
-0.59
-0.45
0.91
3.45
7.05
11.51
16.34
20.79
23.97
24.99
23.28
18.70
11.68
3.10
-5.86
-14.05
-20.61
-25.18
-27.90
-29.24
-29.78
-29.94
-29.89
-29.53
-28.66
-27.11
-24.86
-22.10
-19.05
-15.96
-12.97
-10.11
-7.30
-4.48
-1.66
1.10
3.67
5.92
7.75
9.11
9.95
10.18
9.71
8.49
6.55
4.03
1.21
-1.53
-3.82
-5.33
-5.90
-5.55
-4.57
-3.51
-3.03
-3.75
-5.99
-9.60
-13.88
-17.81
-20.33
-20.75
-18.95
-15.40
-11.01
-6.83
-3.73
-2.17
-2.19
-3.38
-5.09
-6.59
-7.27
-6.83
-5.35
-3.23
-0.91
1.21
3.09
4.92
7.11
10.05
13.97
18.88
24.52
30.45
36.00
40.47
43.20
43.75
42.02
38.27
32.99
26.84
20.44
14.26
8.62
3.77
-0.15
-2.93
-4.46
-4.71
-3.92
-2.68
-1.88
-2.47
-5.05
-9.46
-14.62
-18.78
-20.09
-17.32
-10.51
-0.93
9.11
17.08
20.83
19.14
11.94
0.23
-14.28
-29.48
-43.24
-53.82
-60.05
-61.58
-58.76
-52.50
-44.05
-34.64
-25.22
-16.28
-7.84
0.35
8.58
16.95
25.17
32.72
38.92
43.24
45.39
45.37
43.40
39.83
35.11
29.76
24.38
19.49
15.35
11.89
8.65
5.06
0.72
-4.34
-9.64
-14.46
-18.20
-20.62
-21.90
-22.49
-22.68
-22.45
-21.49
-19.44
-16.19
-12.10
-7.98
-4.72
-2.99
-2.80
-3.58
-4.27
-3.87
-1.79
1.95
6.79
11.91
16.55
20.20
22.63
23.83
23.84
22.74
20.59
17.41
13.14
7.52
0.33
-8.54
-18.69
-29.13
-38.45
-45.14
-48.14
-47.11
-42.54
-35.49
-27.38
-19.54
-13.02
-8.37
-5.57
-4.10
-3.04
-1.43
1.42
5.57
10.45
15.00
18.10
18.97
17.47
14.13
9.85
5.55
1.83
-1.09
-3.36
-5.24
-6.94
-8.59
-10.27
-12.02
-13.81
-15.44
-16.60
-16.89
-16.17
-14.63
-12.82
-11.52
-11.22
-11.91
-12.92
-13.21
-11.84
-8.56
-3.93
0.81
4.34
5.77
5.17
3.47
2.12
2.42
5.03
9.68
15.33
20.60
24.24
25.54
24.38
21.34
17.36
13.52
10.76
9.73
10.70
13.53
17.71
22.45
26.89
30.33
32.42
33.19
33.05
32.52
32.04
31.79
31.76
31.67
31.21
29.96
27.51
23.56
17.97
10.97
3.18
-4.62
-11.68
-17.40
-21.45
-23.64
-23.79
-21.77
-17.59
-11.58
-4.44
2.73
8.75
12.60
13.63
11.67
7.04
0.53
-6.68
-13.23
-17.85
-19.69
-18.55
-14.86
-9.65
-4.17
0.39
3.27
4.25
3.70
2.20
0.34
-1.70
-4.19
-7.70
-12.65
-18.90
-25.64
-31.48
-35.01
-35.26
-32.16
-26.51
-19.73
-13.39
-8.79
-6.73
-7.36
-10.27
-14.59
-19.22
-23.06
-25.33
-25.65
-24.12
-21.20
-17.53
-13.80
-10.60
-8.38
-7.30
-7.33
-8.17
-9.42
-10.61
-11.36
-11.45
-10.76
-9.20
-6.69
-3.20
1.08
5.70
10.05
13.47
15.64
16.59
16.83
17.04
17.85
19.54
22.00
24.69
26.87
27.81
26.98
24.28
20.08
15.14
10.45
6.95
5.23
5.43
7.25
10.02
12.94
15.15
15.87
14.57
11.05
5.61
-0.96
-7.47
-12.71
-15.76
-16.18
-14.25
-10.64
-6.27
-1.93
1.82
4.80
7.04
8.78
10.26
11.65
12.99
14.10
14.69
14.47
13.30
11.31
8.87
6.44
4.37
2.80
1.56
0.40
-0.90
-2.34
-3.75
-4.87
-5.57
-5.90
-6.04
-6.25
-6.68
-7.29
-7.92
-8.40
-8.63
-8.66
-8.69
-8.91
-9.55
-10.72
-12.47
-14.82
-17.74
-21.14
-24.68
-27.84
-29.98
-30.55
-29.33
-26.55
-22.85
-19.00
-15.67
-13.14
-11.33
-9.94
-8.67
-7.29
-5.69
-3.76
-1.37
1.64
5.29
9.44
13.70
17.58
20.57
22.41
23.05
22.68
21.60
20.16
18.62
17.20
15.96
14.89
13.87
12.71
11.25
9.38
7.08
4.45
1.69
-0.99
-3.40
-5.46
-7.17
-8.61
-9.88
-11.03
-11.98
-12.55
-12.49
-11.65
-10.03
-7.85
-5.48
-3.33
-1.66
-0.51
0.24
0.87
1.54
2.35
3.25
4.11
4.86
5.50
6.17
7.02
8.10
9.34
10.52
11.33
11.49
10.89
9.64
8.05
6.46
5.20
4.40
4.00
3.83
3.61
3.18
2.46
1.52
0.50
-0.49
-1.37
-2.20
-3.04
-3.99
-5.04
-6.20
-7.41
-8.64
-9.83
-10.93
-11.77
-12.13
-11.78
-10.58
-8.60
-6.17
-3.72
-1.65
-0.24
0.50
0.73
0.65
0.44
0.15
-0.24
-0.71
-1.18
-1.52
-1.62
-1.47
-1.19
-0.93
-0.69
-0.27
0.75
2.83
6.20
10.75
16.02
21.31
25.86
29.09
30.60
30.20
27.90
23.87
18.43
12.01
5.12
-1.77
-8.29
-14.26
-19.69
-24.69
-29.34
-33.60
-37.27
-40.04
-41.59
-41.75
-40.55
-38.14
-34.72
-30.43
-25.32
-19.43
-12.92
-6.15
0.30
5.82
9.88
12.30
13.18
12.93
12.01
10.78
9.41
7.95
6.47
5.15
4.36
4.46
5.70
7.98
10.98
14.23
17.30
19.98
22.22
24.14
25.88
27.53
29.07
30.34
31.22
31.53
31.19
30.13
28.41
26.07
23.20
19.90
16.25
12.43
8.64
5.13
2.11
-0.23
-1.83
-2.74
-3.12
-3.21
-3.29
-3.54
-3.99
-4.55
-5.02
-5.33
-5.61
-6.10
-7.12
-8.73
-10.66
-12.38
-13.36
-13.37
-12.59
-11.60
-10.92
-10.91
-11.50
-12.37
-13.12
-13.48
-13.39
-12.97
-12.38
-11.71
-11.03
-10.32
-9.57
-8.69
-7.59
-6.24
-4.69
-3.15
-1.90
-1.19
-1.07
-1.35
-1.61
-1.41
-0.56
0.78
2.00
2.40
1.46
-0.68
-3.13
-4.45
-3.23
1.22
8.38
16.41
22.74
24.96
21.68
13.14
1.20
-11.19
-20.68
-24.42
-20.89
-10.42
4.59
20.02
31.11
34.04
27.38
12.83
-5.01
-20.25
-27.77
-25.02
-12.86
4.85
22.74
35.71
40.47
36.26
24.75
9.20
-6.77
-20.12
-29.07
-33.18
-33.05
-29.82
-24.76
-19.04
-13.61
-9.16
-5.85
-3.22
-0.12
4.89
12.96
24.23
37.50
50.42
60.21
64.62
62.64
54.72
42.49
28.16
13.83
1.02
-9.43
-17.38
-23.09
-27.06
-29.66
-31.09
-31.35
-30.42
-28.34
-25.35
-21.78
-18.03
-14.52
-11.57
-9.48
-8.46
-8.53
-9.53
-11.04
-12.46
-13.21
-12.98
-11.82
-10.14
-8.51
-7.39
-6.92
-6.94
-7.13
-7.23
-7.18
-7.14
-7.30
-7.72
-8.11
-7.96
-6.72
-4.06
-0.08
4.70
9.55
13.71
16.64
18.10
18.15
17.08
15.32
13.36
11.61
10.37
9.70
9.42
9.22
8.75
7.86
6.56
5.03
3.38
1.64
-0.31
-2.58
-5.12
-7.63
-9.68
-10.85
-11.02
-10.34
-9.14
-7.76
-6.40
-5.11
-3.94
-2.96
-2.36
-2.28
-2.75
-3.58
-4.44
-4.91
-4.64
-3.50
-1.54
1.02
3.86
6.66
9.19
11.33
13.07
14.49
15.70
16.78
17.80
18.80
19.77
20.60
21.00
20.60
18.99
15.97
11.59
6.20
0.29
-5.65
-11.32
-16.51
-21.07
-24.68
-26.86
-27.12
-25.12
-20.97
-15.19
-8.74
-2.67
2.23
5.63
7.71
8.94
9.93
11.11
12.64
14.40
16.09
17.35
17.90
17.52
16.10
13.66
10.35
6.46
2.48
-1.02
-3.48
-4.60
-4.40
-3.27
-1.86
-0.83
-0.70
-1.57
-3.12
-4.61
-5.20
-4.16
-1.18
3.49
9.12
14.73
19.47
22.71
24.23
24.05
22.31
19.14
14.68
9.12
2.78
-3.77
-9.87
-14.83
-18.02
-19.00
-17.61
-14.02
-8.77
-2.78
2.85
7.03
9.07
8.89
6.95
4.12
1.21
-1.32
-3.50
-5.70
-8.43
-12.00
-16.37
-21.25
-26.09
-30.34
-33.54
-35.35
-35.62
-34.29
-31.45
-27.24
-21.92
-15.88
-9.59
-3.67
1.24
4.58
6.04
5.54
3.30
-0.33
-4.88
-9.80
-14.51
-18.44
-21.12
-22.33
-22.10
-20.82
-19.04
-17.32
-16.02
-15.20
-14.65
-13.92
-12.60
-10.50
-7.67
-4.43
-1.22
1.53
3.61
5.11
6.36
7.76
9.56
11.71
13.89
15.62
16.51
16.48
15.84
15.29
15.63
17.46
20.87
25.26
29.48
32.15
32.23
29.38
24.07
17.49
11.05
5.86
2.39
0.41
-0.86
-2.32
-4.58
-7.77
-11.44
-14.79
-16.96
-17.43
-16.16
-13.59
-10.41
-7.24
-4.47
-2.17
-0.30
1.22
2.26
2.55
1.83
-0.00
-2.75
-5.97
-9.12
-11.67
-13.31
-13.94
-13.64
-12.60
-11.06
-9.18
-7.02
-4.56
-1.77
1.26
4.21
6.58
7.78
7.37
5.34
2.09
-1.62
-4.93
-7.15
-7.98
-7.45
-5.81
-3.44
-0.69
2.14
4.80
7.02
8.58
9.32
9.23
8.41
7.07
5.44
3.76
2.19
0.90
-0.04
-0.59
-0.90
-1.34
-2.48
-4.94
-8.93
-14.04
-19.17
-22.83
-23.76
-21.36
-16.05
-9.02
-1.80
4.38
8.91
11.77
13.33
13.97
13.82
12.84
10.99
8.40
5.55
3.07
1.52
1.21
1.97
3.27
4.51
5.27
5.49
5.49
5.71
6.46
7.76
9.30
10.56
11.02
10.32
8.40
5.52
2.08
-1.49
-4.89
-7.98
-10.78
-13.29
-15.52
-17.38
-18.72
-19.48
-19.71
-19.61
-19.54
-19.87
-20.83
-22.42
-24.32
-25.86
-26.17
-24.42
-20.16
-13.51
-5.23
3.43
11.20
17.03
20.46
21.62
21.12
19.78
18.38
17.50
17.31
17.67
18.24
18.74
19.13
19.64
20.65
22.43
24.90
27.56
29.65
30.38
29.27
26.23
21.58
15.93
9.93
4.26
-0.53
-4.06
-6.13
-6.71
-5.88
-3.97
-1.37
1.35
3.61
4.90
4.91
3.57
1.10
-2.06
-5.42
-8.48
-11.00
-12.87
-14.22
-15.19
-15.90
-16.29
-16.18
-15.26
-13.34
-10.45
-6.94
-3.40
-0.44
1.55
2.54
2.88
3.11
3.64
4.55
5.52
6.04
5.59
3.98
1.37
-1.77
-4.84
-7.29
-8.70
-8.80
-7.47
-4.71
-0.62
4.48
10.18
16.01
21.50
26.31
30.17
32.91
34.38
34.45
33.11
30.52
27.08
23.29
19.64
16.39
13.52
10.82
8.04
5.00
1.64
-2.01
-5.99
-10.30
-14.90
-19.51
-23.61
-26.53
-27.69
-26.87
-24.34
-20.86
-17.35
-14.67
-13.33
-13.38
-14.48
-15.98
-17.24
-17.73
-17.23
-15.79
-13.68
-11.20
-8.59
-5.97
-3.37
-0.86
1.49
3.54
5.19
6.45
7.46
8.39
9.44
10.65
12.03
13.48
14.90
16.18
17.25
18.00
18.27
17.98
17.12
15.73
13.99
12.07
10.13
8.24
6.35
4.36
2.16
-0.33
-2.99
-5.59
-7.74
-9.04
-9.25
-8.35
-6.63
-4.55
-2.66
-1.42
-1.07
-1.63
-2.84
-4.31
-5.63
-6.46
-6.62
-6.18
-5.30
-4.21
-3.18
-2.41
-2.02
-2.11
-2.63
-3.48
-4.44
-5.25
-5.66
-5.54
-4.82
-3.52
-1.68
0.67
3.41
6.37
9.29
11.90
13.93
15.22
15.75
15.58
14.89
13.88
12.75
11.64
10.56
9.47
8.27
6.87
5.25
3.44
1.57
-0.14
-1.39
-1.94
-1.73
-1.11
-0.85
-1.91
-5.05
-10.22
-16.29
-21.21
-22.59
-18.66
-9.18
4.14
17.78
27.33
28.76
19.74
0.65
-25.28
-52.64
-75.20
-87.59
-86.79
-72.99
-49.46
-21.77
3.79
21.79
29.14
25.78
14.58
0.36
-11.72
-17.78
-16.28
-8.26
3.30
14.69
22.68
25.59
23.44
17.75
10.84
4.98
1.84
2.04
5.17
9.99
14.87
18.31
19.35
17.81
14.26
9.86
5.79
2.97
1.61
1.32
1.24
0.52
-1.30
-4.16
-7.51
-10.53
-12.46
-12.86
-11.72
-9.52
-7.04
-5.19
-4.73
-6.05
-9.04
-13.04
-17.02
-19.88
-20.75
-19.26
-15.71
-10.79
-5.46
-0.48
3.71
7.09
9.86
12.35
14.80
17.24
19.54
21.42
22.56
22.71
21.75
19.74
16.91
13.66
10.45
7.74
5.86
4.99
5.08
5.84
6.85
7.62
7.75
7.05
5.56
3.50
1.18
-1.10
-3.09
-4.63
-5.64
-6.08
-5.93
-5.18
-3.84
-1.92
0.51
3.27
6.08
8.56
10.40
11.47
11.84
11.82
11.67
11.50
11.16
10.33
8.70
6.17
2.98
-0.37
-3.22
-5.01
-5.38
-4.29
-2.01
1.04
4.29
7.24
9.50
10.92
11.55
11.62
11.45
11.38
11.69
12.44
13.49
14.48
14.96
14.50
12.81
9.95
6.20
2.08
-1.90
-5.37
-8.19
-10.45
-12.32
-14.00
-15.63
-17.19
-18.58
-19.64
-20.17
-20.04
-19.19
-17.66
-15.61
-13.29
-10.94
-8.73
-6.80
-5.17
-3.84
-2.87
-2.27
-2.10
-2.40
-3.18
-4.44
-6.12
-8.18
-10.40
-12.60
-14.53
-16.01
-16.95
-17.39
-17.41
-17.09
-16.48
-15.56
-14.38
-13.03
-11.75
-10.76
-10.24
-10.17
-10.37
-10.49
-10.22
-9.41
-8.06
-6.41
-4.59
-2.77
-0.97
0.79
2.53
4.19
5.75
7.20
8.58
9.89
11.02
11.83
12.14
11.86
11.08
9.95
8.75
7.75
7.22
7.30
7.97
8.98
9.83
9.86
8.45
5.27
0.36
-5.80
-12.39
-18.40
-22.85
-24.94
-24.22
-20.79
-15.26
-8.67
-2.19
3.24
7.14
9.56
10.92
11.73
12.36
12.94
13.38
13.55
13.37
12.81
11.91
10.65
9.04
7.11
5.06
3.18
1.82
1.18
1.07
1.03
0.40
-1.24
-3.83
-6.72
-8.88
-9.43
-8.09
-5.35
-2.26
0.15
1.34
1.48
1.35
1.81
3.47
6.35
10.05
14.01
17.61
20.36
21.72
21.10
17.94
11.94
3.32
-7.08
-17.90
-27.63
-34.92
-38.91
-39.43
-36.88
-32.08
-26.04
-19.70
-13.82
-8.93
-5.23
-2.73
-1.26
-0.62
-0.63
-1.03
-1.53
-1.84
-1.66
-0.74
0.98
3.48
6.58
9.98
13.32
16.20
18.31
19.46
19.62
18.87
17.49
15.79
14.07
12.55
11.33
10.39
9.59
8.80
7.94
7.06
6.31
5.86
5.80
6.08
6.58
7.15
7.67
8.12
8.51
8.79
8.81
8.41
7.47
6.03
4.28
2.50
0.98
-0.21
-1.19
-2.28
-3.77
-5.84
-8.32
-10.81
-12.79
-13.78
-13.60
-12.32
-10.21
-7.60
-4.78
-1.98
0.61
2.79
4.44
5.48
6.03
6.28
6.47
6.70
6.98
7.28
7.65
8.30
9.48
11.29
13.51
15.60
16.88
16.86
15.43
12.80
9.44
5.71
1.87
-1.98
-5.73
-9.17
-11.95
-13.73
-14.29
-13.58
-11.84
-9.45
-6.88
-4.67
-3.21
-2.66
-2.87
-3.52
-4.15
-4.48
-4.42
-4.14
-3.89
-3.93
-4.35
-5.11
-6.16
-7.41
-8.84
-10.44
-12.14
-13.76
-15.08
-15.86
-15.92
-15.17
-13.65
-11.51
-8.96
-6.23
-3.48
-0.85
1.58
3.69
5.40
6.56
7.09
6.98
6.35
5.43
4.52
3.85
3.56
3.66
4.12
4.80
5.61
6.44
7.20
7.84
8.29
8.48
8.41
8.05
7.48
6.73
5.86
4.94
4.03
3.13
2.24
1.31
0.23
-1.07
-2.60
-4.20
-5.65
-6.71
-7.25
-7.30
-7.11
-7.01
-7.32
-8.14
-9.42
-10.99
-12.64
-14.22
-15.64
-16.74
-17.34
-17.19
-16.13
-14.17
-11.51
-8.51
-5.55
-2.87
-0.56
1.37
2.94
4.13
4.89
5.25
5.37
5.47
5.80
6.47
7.46
8.66
9.88
11.00
11.97
12.77
13.37
13.73
13.78
13.48
12.90
12.16
11.43
10.78
10.20
9.56
8.68
7.37
5.62
3.55
1.37
-0.67
-2.46
-4.00
-5.39
-6.73
-7.95
-8.93
-9.55
-9.81
-9.94
-10.24
-10.91
-11.95
-13.12
-14.14
-14.86
-15.36
-15.82
-16.36
-16.86
-16.95
-16.17
-14.28
-11.27
-7.50
-3.57
-0.14
2.19
3.06
2.44
0.79
-1.05
-1.97
-0.98
2.50
8.38
15.81
23.34
29.24
31.95
30.51
24.93
16.37
6.86
-1.14
-5.58
-5.45
-1.16
5.72
13.03
18.75
21.64
21.40
18.55
14.04
8.94
4.21
0.59
-1.50
-2.02
-1.30
-0.01
1.04
1.20
0.14
-1.96
-4.59
-7.12
-9.03
-10.04
-10.18
-9.63
-8.73
-7.80
-7.14
-6.97
-7.37
-8.30
-9.56
-10.87
-11.97
-12.70
-13.04
-13.09
-13.04
-12.97
-12.84
-12.47
-11.69
-10.39
-8.62
-6.64
-4.72
-3.10
-1.81
-0.79
0.12
1.00
1.83
2.55
3.13
3.65
4.25
5.03
5.98
6.97
7.76
8.12
7.88
6.99
5.49
3.54
1.39
-0.71
-2.48
-3.82
-4.78
-5.62
-6.67
-8.19
-10.16
-12.26
-13.88
-14.36
-13.23
-10.39
-6.22
-1.47
2.96
6.32
8.27
8.91
8.67
8.14
7.84
8.08
8.87
10.11
11.56
13.01
14.28
15.18
15.59
15.41
14.68
13.59
12.53
11.91
12.02
12.94
14.48
16.33
18.36
20.77
24.09
28.95
35.43
42.62
48.38
49.69
43.47
27.76
2.76
-28.87
-62.32
-91.72
-111.56
-118.01
-109.93
-89.28
-60.72
-30.54
-4.94
11.62
17.68
15.08
8.06
1.61
-0.53
2.89
10.37
18.55
23.73
23.27
16.51
4.85
-8.95
-21.72
-30.88
-35.08
-34.32
-29.76
-23.11
-16.08
-9.80
-4.57
0.07
4.96
10.78
17.59
24.56
30.22
32.95
31.61
26.14
17.70
8.36
0.48
-4.04
-4.37
-0.99
4.54
10.05
13.48
13.54
10.08
4.06
-2.83
-8.75
-12.34
-13.04
-11.23
-7.90
-4.33
-1.56
-0.20
-0.28
-1.40
-2.83
-3.74
-3.37
-1.21
2.86
8.51
14.88
20.72
24.71
25.72
23.16
17.19
8.59
-1.38
-11.30
-19.79
-25.82
-28.78
-28.58
-25.61
-20.57
-14.25
-7.42
-0.63
5.78
11.65
16.85
21.24
24.65
26.95
28.12
28.23
27.44
26.01
24.19
22.18
20.11
18.07
16.10
14.33
12.81
11.59
10.62
9.76
8.84
7.65
6.09
4.19
2.14
0.22
-1.28
-2.19
-2.49
-2.34
-2.04
-1.90
-2.17
-2.85
-3.74
-4.41
-4.44
-3.57
-1.76
0.70
3.34
5.64
7.16
7.64
7.05
5.49
3.18
0.36
-2.76
-6.00
-9.20
-12.20
-14.75
-16.58
-17.39
-17.00
-15.43
-12.89
-9.76
-6.41
-3.16
-0.17
2.55
5.02
7.22
9.07
10.39
11.05
11.04
10.50
9.70
8.88
8.17
7.59
7.02
6.40
5.72
5.11
4.68
4.43
4.29
4.03
3.55
2.84
2.04
1.36
0.89
0.64
0.47
0.27
-0.07
-0.51
-1.02
-1.61
-2.36
-3.35
-4.59
-5.99
-7.30
-8.29
-8.82
-8.87
-8.55
-8.02
-7.47
-7.01
-6.75
-6.81
-7.31
-8.29
-9.62
-10.93
-11.69
-11.36
-9.60
-6.44
-2.27
2.27
6.50
9.94
12.39
13.90
14.66
14.90
14.80
14.48
14.03
13.50
12.92
12.27
11.52
10.59
9.48
8.24
7.01
5.99
5.38
5.28
5.77
6.76
8.07
9.39
10.32
10.51
9.72
8.00
5.58
2.94
0.60
-1.06
-1.84
-1.90
-1.62
-1.59
-2.44
-4.65
-8.45
-13.66
-19.81
-26.21
-32.22
-37.40
-41.47
-44.39
-46.13
-46.68
-45.97
-44.02
-40.79
-36.37
-30.85
-24.39
-17.25
-9.80
-2.59
3.80
8.80
12.12
13.82
14.37
14.66
15.71
18.38
22.93
28.77
34.62
38.84
40.12
37.98
32.94
26.27
19.42
13.53
9.03
5.80
3.37
1.24
-0.80
-2.74
-4.38
-5.45
-5.70
-5.04
-3.51
-1.36
0.98
3.00
4.23
4.40
3.43
1.46
-1.29
-4.57
-8.10
-11.64
-14.94
-17.77
-19.94
-21.29
-21.79
-21.48
-20.42
-18.67
-16.33
-13.50
-10.32
-7.04
-3.83
-0.94
1.53
3.58
5.29
6.71
7.83
8.54
8.73
8.43
7.76
7.03
6.53
6.42
6.66
7.13
7.64
8.07
8.46
8.93
9.66
10.80
12.28
13.89
15.20
15.66
14.79
12.43
8.80
4.55
0.54
-2.47
-4.00
-4.12
-3.49
-3.16
-4.24
-7.60
-13.43
-21.20
-29.70
-37.33
-42.57
-44.45
-42.75
-38.12
-31.87
-25.57
-20.66
-18.03
-17.81
-19.48
-22.15
-24.92
-27.05
-28.06
-27.55
-25.14
-20.59
-13.88
-5.42
3.99
13.37
21.97
29.53
36.43
43.53
51.79
61.95
74.13
87.58
100.56
110.51
114.55
110.30
96.69
74.45
46.10
15.27
-14.12
-38.82
-56.77
-67.19
-70.42
-67.53
-60.13
-49.99
-38.82
-27.94
-18.11
-9.48
-1.67
5.91
13.77
22.00
30.13
37.11
41.52
42.00
37.66
28.50
15.55
0.64
-14.05
-26.57
-35.67
-40.91
-42.54
-41.26
-37.85
-33.12
-27.74
-22.25
-17.01
-12.23
-7.95
-4.14
-0.77
2.09
4.35
5.94
6.88
7.32
7.48
7.57
7.78
8.20
8.86
9.71
10.60
11.22
11.22
10.26
8.16
5.03
1.13
-3.11
-7.30
-11.13
-14.47
-17.27
-19.58
-21.51
-23.10
-24.39
-25.30
-25.67
-25.29
-24.05
-22.02
-19.42
-16.63
-13.98
-11.68
-9.74
-8.03
-6.46
-5.04
-3.91
-3.23
-3.01
-3.04
-2.88
-2.11
-0.52
1.74
4.27
6.65
8.57
9.93
10.80
11.30
11.53
11.70
12.11
13.17
15.24
18.39
22.21
25.90
28.50
29.17
27.52
23.61
17.91
11.12
3.94
-3.02
-9.27
-14.53
-18.63
-21.45
-22.86
-22.77
-21.22
-18.42
-14.78
-10.79
-6.95
-3.57
-0.81
1.25
2.45
2.52
1.20
-1.60
-5.50
-9.67
-13.12
-15.02
-15.08
-13.64
-11.52
-9.61
-8.52
-8.32
-8.65
-8.89
-8.54
-7.38
-5.48
-3.09
-0.50
2.07
4.51
6.75
8.77
10.55
12.12
13.64
15.33
17.37
19.80
22.40
24.72
26.26
26.64
25.77
23.91
21.53
19.16
17.08
15.22
13.20
10.53
6.84
2.04
-3.72
-9.97
-16.09
-21.30
-24.63
-25.18
-22.37
-16.50
-8.84
-1.36
3.98
6.16
5.52
3.56
2.15
2.54
4.88
8.32
11.59
13.65
13.96
12.46
9.23
4.35
-1.99
-9.23
-16.32
-21.82
-24.36
-23.10
-18.12
-10.45
-1.69
6.44
12.71
16.59
18.24
18.28
17.38
16.05
14.38
12.21
9.23
5.29
0.53
-4.44
-8.62
-10.96
-10.63
-7.51
-2.33
3.44
8.05
10.02
8.74
4.57
-1.29
-7.25
-11.97
-14.66
-15.30
-14.40
-12.74
-10.98
-9.51
-8.50
-7.90
-7.63
-7.60
-7.74
-7.97
-8.15
-8.13
-7.72
-6.71
-4.78
-1.66
2.82
8.50
14.78
20.63
24.83
26.39
24.89
20.70
14.84
8.66
3.42
-0.03
-1.46
-1.19
0.04
1.36
1.98
1.40
-0.39
-2.96
-5.48
-7.00
-6.78
-4.53
-0.52
4.51
9.56
13.66
16.14
16.79
15.84
13.84
11.40
9.08
7.21
5.92
5.08
4.40
3.53
2.16
0.12
-2.68
-6.21
-10.35
-14.89
-19.54
-23.85
-27.35
-29.60
-30.33
-29.56
-27.52
-24.53
-20.88
-16.60
-11.71
-6.18
-0.26
5.65
11.05
15.53
18.95
21.38
23.00
23.77
23.40
21.47
17.71
12.30
6.00
-0.16
-5.22
-8.78
-11.10
-12.90
-15.01
-17.97
-21.83
-26.10
-30.00
-32.61
-33.09
-30.85
-25.67
-17.84
-8.18
2.13
11.80
19.67
25.03
27.69
27.99
26.63
24.43
22.10
20.10
18.61
17.53
16.64
15.66
14.33
12.51
10.16
7.44
4.66
2.20
0.40
-0.51
-0.59
-0.05
0.79
1.63
2.30
2.80
3.11
3.25
3.20
2.96
2.61
2.33
2.34
2.75
3.55
4.51
5.34
5.74
5.59
5.01
4.29
3.81
3.89
4.69
6.25
8.45
11.19
14.41
18.09
22.19
26.53
30.74
34.32
36.81
37.91
37.66
36.34
34.41
32.26
30.16
28.18
26.32
24.55
22.77
20.94
19.00
16.86
14.52
12.12
9.92
8.30
7.61
7.98
9.45
11.83
14.82
17.98
20.74
22.36
22.10
19.30
13.57
4.98
-5.96
-18.32
-30.92
-42.54
-52.15
-59.08
-63.17
-64.74
-64.39
-62.79
-60.34
-57.12
-53.00
-47.90
-41.85
-35.14
-28.20
-21.50
-15.52
-10.69
-7.43
-6.02
-6.54
-8.67
-11.78
-15.05
-17.73
-19.29
-19.57
-18.68
-16.84
-14.33
-11.40
-8.30
-5.26
-2.52
-0.28
1.33
2.30
2.75
2.91
3.02
3.29
3.71
4.11
4.19
3.64
2.33
0.29
-2.29
-5.17
-8.14
-11.07
-13.87
-16.51
-18.91
-20.95
-22.43
-23.13
-22.83
-21.41
-18.92
-15.58
-11.79
-7.96
-4.53
-1.73
0.26
1.42
1.79
1.38
0.29
-1.37
-3.35
-5.37
-7.06
-8.17
-8.56
-8.30
-7.68
-7.03
-6.65
-6.66
-6.99
-7.42
-7.78
-8.06
-8.51
-9.60
-11.82
-15.46
-20.45
-26.23
-31.94
-36.67
-39.81
-41.32
-41.88
-42.51
-44.26
-47.74
-52.74
-58.38
-63.48
-66.98
-68.21
-67.05
-63.91
-59.76
-56.11
-54.64
-56.65
-62.08
-69.01
-73.81
-72.25
-61.12
-39.66
-9.98
23.68
56.47
84.49
105.71
119.91
128.06
131.68
132.27
131.15
129.39
127.64
126.08
124.29
121.34
116.10
107.60
95.31
79.47
61.07
41.72
23.46
8.29
-2.34
-7.86
-8.90
-7.15
-4.86
-4.14
-6.22
-11.07
-17.47
-23.63
-27.90
-29.39
-28.23
-25.21
-21.35
-17.44
-13.77
-10.30
-6.91
-3.65
-0.69
1.69
3.31
4.13
4.20
3.67
2.69
1.46
0.21
-0.77
-1.35
-1.43
-1.08
-0.38
0.61
1.83
3.15
4.28
4.84
4.50
3.12
0.91
-1.69
-4.17
-6.15
-7.55
-8.57
-9.57
-10.94
-12.92
-15.53
-18.61
-21.81
-24.75
-26.99
-28.10
-27.79
-25.99
-22.97
-19.39
-16.06
-13.69
-12.49
-12.03
-11.44
-9.85
-6.81
-2.64
1.79
5.38
7.30
7.26
5.57
2.89
0.05
-2.28
-3.68
-4.11
-3.94
-3.83
-4.45
-6.13
-8.62
-11.21
-13.12
-14.05
-14.41
-15.28
-17.70
-22.07
-27.74
-33.20
-36.82
-37.51
-35.31
-31.30
-27.11
-24.12
-23.14
-24.25
-27.02
-30.69
-34.12
-35.67
-33.28
-24.85
-8.99
14.10
42.32
72.15
99.71
122.06
137.91
147.62
152.40
153.31
150.50
143.31
130.90
113.06
90.88
66.83
44.31
26.82
16.92
15.49
21.53
32.43
44.69
54.95
60.85
61.55
57.67
50.85
42.98
35.54
29.08
23.11
16.33
7.18
-5.52
-22.04
-41.39
-61.58
-80.05
-94.43
-103.25
-106.23
-104.24
-98.89
-91.95
-84.85
-78.46
-73.07
-68.55
-64.64
-61.16
-58.10
-55.49
-53.35
-51.53
-49.74
-47.56
-44.50
-40.01
-33.46
-24.25
-11.92
3.46
21.07
39.20
55.70
68.40
75.93
78.01
75.36
69.23
60.79
50.76
39.43
26.97
13.91
1.27
-9.52
-17.15
-21.01
-21.48
-19.81
-17.70
-16.56
-17.04
-18.83
-20.93
-22.18
-21.85
-19.86
-16.64
-12.82
-8.79
-4.62
-0.16
4.65
9.63
14.42
18.66
22.21
25.13
27.41
28.69
28.19
24.96
18.26
8.04
-4.82
-18.76
-31.98
-42.96
-50.96
-56.07
-59.04
-60.82
-62.15
-63.31
-64.10
-64.11
-63.02
-60.74
-57.48
-53.62
-49.62
-45.98
-43.09
-41.17
-40.10
-39.40
-38.20
-35.65
-31.23
-24.93
-17.41
-9.67
-2.84
2.26
5.40
7.05
8.28
10.37
14.22
19.94
26.83
33.63
39.35
43.64
47.01
50.43
54.56
59.32
63.76
66.53
66.51
63.28
57.12
48.83
39.48
30.16
21.97
15.99
13.11
13.80
17.74
23.76
30.04
34.65
36.36
35.00
31.58
27.84
25.56
25.93
29.28
35.10
42.38
49.90
56.46
61.02
62.75
61.31
57.01
51.01
45.06
41.05
40.24
42.77
47.29
51.40
52.43
48.41
38.73
24.30
7.19
-10.09
-25.33
-37.07
-44.74
-48.50
-49.02
-47.30
-44.47
-41.62
-39.54
-38.61
-38.76
-39.57
-40.56
-41.34
-41.69
-41.45
-40.46
-38.44
-35.13
-30.52
-25.01
-19.38
-14.53
-11.18
-9.57
-9.46
-10.23
-11.21
-11.86
-11.83
-10.94
-8.97
-5.75
-1.25
4.25
10.03
14.97
17.90
17.97
15.01
9.57
2.72
-4.36
-10.72
-15.92
-19.88
-22.77
-24.69
-25.69
-25.77
-25.04
-23.80
-22.37
-21.13
-20.26
-19.71
-19.32
-18.93
-18.56
-18.44
-18.97
-20.47
-23.08
-26.50
-30.14
-33.38
-35.82
-37.51
-38.83
-40.14
-41.46
-42.41
-42.36
-40.81
-37.66
-33.13
-27.50
-20.77
-12.67
-2.96
8.13
19.72
30.42
38.79
43.95
45.78
44.84
41.98
37.96
33.30
28.40
23.76
20.02
17.88
17.94
20.30
24.51
29.61
34.45
38.15
40.47
41.82
42.95
44.34
45.73
46.05
43.79
37.72
27.57
14.25
-0.46
-14.70
-27.30
-37.98
-47.09
-54.85
-60.69
-63.13
-60.45
-51.70
-37.64
-20.95
-5.48
5.01
8.32
4.41
-4.79
-16.39
-27.71
-37.19
-44.42
-49.63
-53.18
-55.05
-55.10
-53.41
-50.61
-47.85
-46.08
-45.45
-44.87
-42.42
-36.22
-25.50
-11.02
5.26
21.26
35.94
49.68
64.04
80.55
99.70
120.36
140.11
156.20
166.70
171.23
171.03
168.38
165.65
164.51
165.26
166.92
167.30
163.63
153.10
133.60
104.59
67.73
27.03
-11.90
-43.38
-63.65
-72.16
-71.80
-67.73
-65.29
-68.04
-76.75
-89.73
-104.00
-116.70
-125.80
-130.37
-130.19
-125.50
-116.82
-105.13
-92.00
-79.41
-69.39
-63.39
-61.71
-63.38
-66.38
-68.39
-67.56
-63.21
-55.93
-47.33
-39.30
-33.24
-29.64
-27.93
-26.93
-25.41
-22.67
-18.78
-14.46
-10.77
-8.58
-8.34
-9.88
-12.58
-15.52
-17.77
-18.51
-17.28
-14.04
-9.14
-3.36
2.39
7.28
10.81
12.89
13.79
13.93
13.64
13.11
12.36
11.46
10.59
10.10
10.39
11.74
14.12
17.23
20.52
23.42
25.56
26.79
27.29
27.34
27.26
27.25
27.32
27.25
26.68
25.15
22.32
18.02
12.38
5.81
-1.08
-7.61
-13.19
-17.37
-19.87
-20.66
-19.92
-17.94
-15.12
-11.78
-8.17
-4.35
-0.30
3.99
8.38
12.58
16.18
18.76
20.07
20.08
19.02
17.37
15.72
14.63
14.45
15.21
16.57
17.93
18.61
18.18
16.58
14.24
11.79
9.89
8.87
8.68
8.96
9.24
9.24
8.86
8.27
7.71
7.37
7.26
7.32
7.40
7.41
7.25
6.82
5.95
4.47
2.29
-0.51
-3.56
-6.35
-8.42
-9.52
-9.74
-9.33
-8.53
-7.43
-5.91
-3.77
-0.97
2.33
5.73
8.77
11.13
12.70
13.55
13.82
13.64
13.06
12.06
10.71
9.11
7.48
6.07
5.11
4.65
4.60
4.67
4.50
3.75
2.21
-0.06
-2.72
-5.17
-6.67
-6.61
-4.66
-0.99
3.86
9.05
13.68
17.07
18.78
18.69
16.77
13.13
7.94
1.57
-5.38
-12.05
-17.58
-21.34
-23.11
-23.25
-22.37
-21.16
-20.00
-18.90
-17.61
-15.85
-13.51
-10.77
-8.02
-5.63
-3.81
-2.49
-1.43
-0.43
0.56
1.34
1.61
1.14
-0.00
-1.43
-2.60
-2.97
-2.35
-0.87
1.02
2.81
4.13
4.88
5.19
5.31
5.46
5.68
5.91
5.96
5.65
4.90
3.74
2.29
0.69
-0.97
-2.70
-4.47
-6.26
-8.01
-9.66
-11.23
-12.83
-14.66
-16.84
-19.32
-21.73
-23.53
-24.12
-23.12
-20.49
-16.62
-12.22
-8.00
-4.52
-1.93
-0.10
1.34
2.74
4.26
5.87
7.34
8.51
9.30
9.78
10.10
10.41
10.82
11.35
11.97
12.64
13.26
13.74
13.98
13.91
13.51
12.85
12.01
11.10
10.15
9.17
8.15
7.05
5.89
4.68
3.46
2.24
1.08
-0.03
-1.09
-2.14
-3.29
-4.60
-6.11
-7.65
-8.88
-9.44
-9.07
-7.85
-6.12
-4.49
-3.49
-3.51
-4.65
-6.71
-9.26
-11.76
-13.62
-14.33
-13.60
-11.45
-8.21
-4.42
-0.66
2.65
5.31
7.26
8.51
9.01
8.78
7.85
6.36
4.56
2.71
1.11
-0.01
-0.45
-0.05
1.25
3.32
5.82
8.25
10.05
10.78
10.17
8.21
5.09
1.17
-3.02
-6.93
-9.98
-11.74
-12.05
-11.10
-9.41
-7.69
-6.57
-6.41
-7.21
-8.60
-10.09
-11.19
-11.53
-10.87
-9.12
-6.28
-2.49
1.94
6.54
10.76
14.12
16.32
17.34
17.37
16.69
15.62
14.42
13.30
12.40
11.77
11.41
11.25
11.27
11.46
11.88
12.57
13.44
14.24
14.62
14.31
13.23
11.59
9.71
7.94
6.41
5.01
3.50
1.75
-0.18
-2.03
-3.44
-4.20
-4.33
-4.10
-3.90
-3.99
-4.48
-5.20
-5.94
-6.48
-6.79
-6.98
-7.22
-7.73
-8.58
-9.81
-11.36
-13.19
-15.23
-17.35
-19.29
-20.66
-21.04
-20.15
-18.03
-15.08
-11.95
-9.25
-7.33
-6.18
-5.51
-4.91
-4.13
-3.13
-2.06
-1.11
-0.37
0.20
0.83
1.70
2.93
4.52
6.33
8.13
9.72
10.97
11.81
12.31
12.49
12.37
11.90
10.97
9.50
7.53
5.21
2.87
0.80
-0.78
-1.88
-2.60
-3.21
-3.89
-4.66
-5.40
-5.95
-6.18
-6.07
-5.79
-5.58
-5.63
-6.04
-6.82
-7.89
-9.26
-10.89
-12.71
-14.52
-15.93
-16.44
-15.64
-13.43
-10.09
-6.25
-2.61
0.36
2.49
3.95
4.98
5.76
6.30
6.52
6.40
6.11
5.91
6.05
6.65
7.59
8.66
9.67
10.51
11.14
11.61
11.97
12.22
12.36
12.34
12.15
11.73
11.02
9.91
8.33
6.33
4.06
1.78
-0.23
-1.78
-2.80
-3.41
-3.84
-4.34
-5.09
-6.18
-7.57
-9.16
-10.81
-12.32
-13.54
-14.36
-14.84
-15.19
-15.71
-16.61
-17.92
-19.41
-20.67
-21.32
-21.10
-20.06
-18.44
-16.56
-14.64
-12.80
-11.03
-9.18
-7.08
-4.46
-1.10
3.19
8.35
14.09
19.83
24.88
28.60
30.56
30.61
28.86
25.62
21.18
15.85
9.88
3.54
-2.81
-8.69
-13.60
-17.13
-19.11
-19.59
-18.76
-16.71
-13.31
-8.24
-1.22
7.68
17.81
27.94
36.58
42.39
44.59
43.12
38.55
31.81
23.83
15.42
7.10
-0.79
-8.04
-14.47
-19.98
-24.57
-28.25
-31.11
-33.08
-33.91
-33.18
-30.50
-25.69
-19.02
-11.25
-3.43
3.39
8.41
11.32
12.29
11.81
10.60
9.35
8.57
8.56
9.31
10.51
11.78
12.68
12.99
12.68
11.92
10.88
9.74
8.52
7.20
5.85
4.56
3.54
3.03
3.13
3.80
4.87
6.11
7.32
8.39
9.22
9.72
9.76
9.16
7.84
5.89
3.56
1.23
-0.72
-2.10
-2.90
-3.31
-3.62
-4.06
-4.74
-5.61
-6.52
-7.30
-7.85
-8.20
-8.46
-8.86
-9.59
-10.78
-12.43
-14.35
-16.17
-17.49
-17.91
-17.26
-15.62
-13.24
-10.50
-7.76
-5.22
-2.97
-0.98
0.78
2.31
3.56
4.48
5.03
5.23
5.21
5.11
5.09
5.21
5.45
5.76
6.15
6.63
7.31
8.25
9.45
10.79
12.09
13.12
13.65
13.56
12.76
11.29
9.32
7.10
4.93
3.08
1.63
0.54
-0.37
-1.29
-2.29
-3.34
-4.37
-5.28
-6.09
-6.90
-7.79
-8.76
-9.75
-10.65
-11.44
-12.19
-13.00
-13.96
-14.97
-15.76
-15.98
-15.34
-13.79
-11.47
-8.71
-5.85
-3.22
-1.03
0.55
1.42
1.50
0.91
-0.10
-1.15
-1.79
-1.67
-0.69
1.12
3.49
6.15
8.78
11.15
13.05
14.37
15.11
15.36
15.33
15.21
15.13
15.03
14.71
13.92
12.49
10.45
8.01
5.50
3.26
1.47
0.12
-0.98
-2.03
-3.17
-4.37
-5.52
-6.41
-7.00
-7.40
-7.83
-8.60
-9.90
-11.70
-13.80
-15.88
-17.59
-18.69
-19.07
-18.76
-17.96
-16.98
-16.13
-15.57
-15.13
-14.24
-12.17
-8.36
-2.92
3.20
8.36
10.85
9.59
4.79
-2.01
-8.30
-11.48
-9.77
-2.93
7.62
19.11
28.24
32.22
29.63
20.91
8.34
-4.68
-14.58
-18.76
-16.39
-8.60
1.84
11.51
17.50
18.31
14.30
7.35
0.10
-5.15
-7.12
-5.85
-2.41
1.75
5.31
7.48
7.89
6.58
3.77
-0.15
-4.60
-8.81
-12.05
-13.83
-14.01
-12.89
-11.02
-8.97
-7.08
-5.49
-4.08
-2.60
-0.79
1.53
4.33
7.36
10.22
12.50
13.88
14.35
14.13
13.58
13.07
12.80
12.77
12.85
12.84
12.61
12.15
11.60
11.19
11.16
11.60
12.46
13.54
14.55
15.27
15.64
15.63
15.26
14.48
13.21
11.45
9.32
7.03
4.84
2.89
1.12
-0.62
-2.40
-4.15
-5.60
-6.48
-6.69
-6.40
-6.01
-5.97
-6.61
-8.07
-10.32
-13.19
-16.42
-19.63
-22.39
-24.24
-24.84
-24.12
-22.27
-19.66
-16.66
-13.55
-10.41
-7.29
-4.27
-1.54
0.67
2.13
2.77
2.69
2.17
1.49
0.94
0.65
0.70
1.07
1.74
2.64
3.71
4.84
5.90
6.76
7.36
7.67
7.73
7.56
7.10
6.27
4.98
3.25
1.23
-0.88
-2.88
-4.66
-6.20
-7.52
-8.64
-9.51
-10.12
-10.56
-10.98
-11.56
-12.44
-13.61
-14.89
-15.98
-16.57
-16.37
-15.25
-13.23
-10.50
-7.41
-4.33
-1.59
0.60
2.20
3.28
3.95
4.32
4.42
4.26
3.90
3.47
3.10
2.94
3.09
3.53
4.21
5.02
5.86
6.67
7.45
8.15
8.75
9.18
9.31
9.07
8.42
7.39
6.10
4.62
3.00
1.26
-0.57
-2.47
-4.30
-5.89
-7.15
-8.02
-8.56
-8.84
-8.99
-9.05
-9.12
-9.29
-9.62
-10.11
-10.63
-10.90
-10.63
-9.52
-7.43
-4.51
-1.07
2.45
5.61
8.13
9.90
10.97
11.53
11.80
11.98
12.23
12.61
13.00
13.27
13.30
13.01
12.52
11.98
11.55
11.23
10.87
10.16
8.85
6.77
3.97
0.63
-2.99
-6.68
-10.23
-13.39
-15.83
-17.19
-17.24
-16.09
-14.25
-12.56
-11.92
-12.97
-15.95
-20.83
-27.52
-36.14
-46.85
-59.51
-73.38
-87.00
-98.46
-106.08
-108.90
-106.85
-100.47
-90.41
-76.95
-60.16
-40.13
-17.54
6.26
29.43
50.17
67.30
80.53
90.25
97.24
102.14
105.29
106.75
106.47
104.50
101.01
96.31
90.62
84.04
76.68
68.76
60.75
53.33
47.18
42.67
39.69
37.61
35.54
32.71
28.69
23.57
17.79
12.03
6.80
2.32
-1.51
-5.05
-8.71
-12.82
-17.48
-22.63
-27.96
-33.02
-37.29
-40.20
-41.41
-40.83
-38.78
-35.88
-32.82
-30.12
-27.87
-25.80
-23.40
-20.25
-16.21
-11.54
-6.69
-2.14
1.81
5.06
7.76
10.07
12.06
13.60
14.40
14.15
12.74
10.36
7.47
4.70
2.61
1.46
1.19
1.57
2.29
3.14
3.95
4.52
4.55
3.72
1.87
-0.82
-3.78
-6.25
-7.62
-7.68
-6.74
-5.41
-4.29
-3.69
-3.60
-3.84
-4.23
-4.74
-5.49
-6.55
-7.91
-9.50
-11.20
-13.01
-14.99
-17.21
-19.58
-21.78
-23.33
-23.77
-22.88
-20.72
-17.58
-13.90
-10.02
-6.14
-2.32
1.44
5.05
8.33
11.09
13.20
14.68
15.80
16.91
18.45
20.71
23.75
27.30
30.65
32.66
32.01
27.57
18.98
6.97
-6.57
-18.99
-27.66
-30.71
-27.62
-19.33
-7.79
4.51
15.21
22.44
25.20
23.28
17.41
8.98
-0.27
-8.58
-14.61
-17.66
-17.76
-15.49
-11.74
-7.48
-3.54
-0.50
1.35
1.94
1.38
-0.08
-2.12
-4.41
-6.58
-8.33
-9.43
-9.72
-9.23
-8.03
-6.28
-4.20
-1.99
0.11
1.88
3.16
3.90
4.11
3.91
3.53
3.19
3.09
3.36
3.99
4.86
5.70
6.28
6.39
6.05
5.45
4.89
4.71
5.09
6.06
7.40
8.79
9.88
10.39
10.20
9.31
7.88
6.09
4.13
2.17
0.30
-1.47
-3.17
-4.84
-6.55
-8.27
-9.95
-11.50
-12.87
-14.00
-14.99
-15.96
-17.04
-18.34
-19.84
-21.41
-22.81
-23.75
-23.93
-23.13
-21.29
-18.48
-14.93
-10.96
-6.85
-2.88
0.79
4.04
6.85
9.21
11.11
12.51
13.41
13.84
13.93
13.87
13.93
14.29
15.00
15.93
16.84
17.51
17.79
17.66
17.21
16.50
15.56
14.37
13.04
11.79
10.96
10.85
11.44
12.35
12.84
11.99
9.13
4.09
-2.73
-10.46
-18.07
-24.71
-29.88
-33.42
-35.43
-36.07
-35.52
-34.05
-31.98
-29.80
-28.08
-27.34
-27.85
-29.58
-32.13
-34.91
-37.29
-38.83
-39.43
-39.37
-39.15
-39.28
-40.16
-41.91
-44.44
-47.58
-51.16
-55.09
-59.24
-63.34
-66.88
-69.34
-70.42
-70.31
-69.79
-69.69
-70.32
-70.98
-69.94
-65.04
-54.44
-37.08
-12.75
18.24
55.21
96.97
141.35
184.95
223.48
252.79
270.21
275.31
269.79
256.55
238.38
217.00
192.84
165.53
134.59
100.09
62.99
24.98
-11.77
-45.00
-72.68
-93.24
-105.79
-110.19
-107.16
-98.20
-85.34
-70.79
-56.49
-43.74
-33.12
-24.54
-17.58
-11.81
-6.98
-3.06
-0.12
1.81
2.85
3.27
3.40
3.46
3.49
3.36
2.88
1.97
0.65
-0.88
-2.34
-3.52
-4.29
-4.64
-4.60
-4.27
-3.69
-2.97
-2.26
-1.83
-1.97
-2.95
-4.90
-7.68
-10.98
-14.34
-17.34
-19.70
-21.36
-22.36
-22.83
-22.92
-22.70
-22.21
-21.46
-20.42
-19.09
-17.49
-15.73
-13.95
-12.34
-11.06
-10.18
-9.69
-9.39
-9.10
-8.69
-8.13
-7.45
-6.75
-6.01
-5.10
-3.82
-2.01
0.33
3.00
5.69
8.07
9.91
11.11
11.70
11.77
11.42
10.69
9.58
8.02
5.88
3.03
-0.60
-4.91
-9.61
-14.17
-17.97
-20.43
-21.21
-20.33
-18.18
-15.45
-12.99
-11.64
-11.94
-14.05
-17.59
-21.74
-25.46
-27.70
-27.77
-25.48
-21.22
-15.81
-10.23
-5.40
-1.88
0.17
0.98
1.03
0.82
0.77
1.21
2.29
4.02
6.33
8.98
11.63
13.86
15.27
15.65
14.99
13.53
11.61
9.55
7.47
5.31
2.93
0.28
-2.40
-4.65
-5.89
-5.75
-4.18
-1.63
1.27
3.91
5.90
7.16
7.74
7.71
7.08
5.79
3.82
1.27
-1.70
-5.04
-8.78
-12.99
-17.64
-22.46
-26.83
-29.96
-31.07
-29.67
-25.68
-19.47
-11.73
-3.29
4.96
12.26
17.96
21.64
23.21
22.85
21.09
18.56
15.94
13.71
12.19
11.45
11.43
12.13
13.52
15.62
18.36
21.50
24.62
27.14
28.42
27.96
25.55
21.31
15.73
9.48
3.35
-2.03
-6.23
-9.12
-10.78
-11.43
-11.28
-10.48
-9.10
-7.21
-4.98
-2.60
-0.42
1.31
2.39
2.71
2.28
1.12
-0.78
-3.36
-6.40
-9.48
-11.86
-12.80
-11.77
-8.72
-4.15
0.98
5.58
8.87
10.57
11.01
10.95
11.15
12.02
13.32
14.13
13.19
9.44
2.52
-6.89
-17.35
-27.24
-35.23
-40.79
-44.11
-45.80
-46.54
-46.92
-47.49
-48.56
-49.92
-50.33
-47.49
-38.73
-22.25
1.64
30.08
58.39
81.87
97.41
104.33
103.94
98.27
88.89
76.58
61.67
44.96
28.09
13.28
2.48
-3.56
-5.58
-5.53
-5.70
-7.81
-12.33
-18.51
-24.75
-29.37
-31.24
-30.15
-26.70
-21.94
-16.84
-11.94
-7.36
-3.02
1.04
4.56
7.02
7.94
7.17
4.99
2.11
-0.57
-2.31
-2.70
-1.76
0.19
2.70
5.36
7.91
10.27
12.47
14.54
16.46
18.09
19.13
19.18
17.90
15.07
10.79
5.50
-0.20
-5.64
-10.36
-14.12
-16.93
-19.00
-20.60
-22.05
-23.54
-25.11
-26.60
-27.65
-27.93
-27.23
-25.69
-23.81
-22.32
-21.84
-22.64
-24.40
-26.27
-27.18
-26.11
-22.42
-16.03
-7.56
1.93
11.16
18.99
24.73
28.22
29.83
30.15
29.79
29.05
27.95
26.26
23.71
20.19
15.75
10.74
5.64
0.95
-2.94
-5.80
-7.53
-8.22
-8.07
-7.44
-6.78
-6.55
-7.08
-8.42
-10.29
-12.16
-13.48
-13.88
-13.34
-12.22
-11.07
-10.51
-10.91
-12.28
-14.35
-16.59
-18.45
-19.58
-19.88
-19.51
-18.74
-17.74
-16.50
-14.94
-12.88
-10.30
-7.31
-4.11
-0.87
2.29
5.30
8.05
10.33
11.83
12.27
11.50
9.62
6.96
4.06
1.46
-0.38
-1.18
-0.81
0.59
2.65
4.89
6.78
8.00
8.42
8.16
7.45
6.50
5.48
4.41
3.25
1.87
0.05
-2.42
-5.70
-9.77
-14.43
-19.27
-23.89
-27.94
-31.26
-33.69
-35.08
-35.26
-34.12
-31.83
-28.80
-25.58
-22.59
-19.89
-17.11
-13.67
-9.05
-3.08
3.92
11.37
18.50
24.63
29.13
31.37
30.74
26.85
19.73
10.11
-0.55
-10.40
-17.69
-21.27
-20.95
-17.48
-12.25
-6.80
-2.39
0.31
1.17
0.46
-1.36
-3.81
-6.35
-8.28
-8.92
-7.65
-4.33
0.56
6.02
10.89
14.29
15.94
16.11
15.34
14.00
12.12
9.37
5.20
-0.80
-8.79
-18.46
-28.92
-38.75
-46.16
-49.48
-47.62
-40.43
-28.76
-14.26
1.20
15.94
28.86
39.43
47.63
53.76
58.23
61.48
63.88
65.69
66.93
67.47
67.02
65.28
62.06
57.34
51.31
44.33
36.82
29.26
22.00
15.38
9.59
4.68
0.48
-3.37
-7.34
-11.80
-16.92
-22.56
-28.33
-33.75
-38.41
-42.11
-44.77
-46.41
-47.03
-46.69
-45.49
-43.54
-41.01
-37.97
-34.38
-30.15
-25.30
-20.10
-14.97
-10.41
-6.60
-3.37
-0.24
3.23
7.12
11.06
14.25
15.86
15.34
12.68
8.37
3.25
-1.72
-5.75
-8.35
-9.39
-8.97
-7.29
-4.42
-0.30
5.21
12.09
19.94
27.99
35.34
41.36
45.91
49.35
52.19
54.70
56.65
57.36
56.08
52.46
46.72
39.67
32.18
24.83
17.57
9.94
1.46
-7.91
-17.61
-26.53
-33.55
-37.89
-39.38
-38.39
-35.65
-31.96
-27.94
-24.08
-20.68
-18.03
-16.32
-15.69
-16.08
-17.24
-18.72
-19.91
-20.21
-19.17
-16.63
-12.81
-8.18
-3.32
1.29
5.35
8.76
11.45
13.30
14.12
13.72
12.12
9.54
6.54
3.74
1.67
0.51
0.05
-0.22
-0.93
-2.58
-5.39
-9.22
-13.65
-18.17
-22.34
-26.02
-29.24
-32.20
-35.02
-37.67
-39.85
-41.18
-41.40
-40.35
-38.20
-35.21
-31.89
-28.88
-27.05
-27.14
-29.55
-33.80
-38.33
-40.83
-38.93
-31.14
-17.40
0.95
21.81
43.20
63.76
82.86
100.20
115.40
127.82
136.55
140.72
139.54
132.52
119.61
101.47
79.67
56.60
35.12
17.67
5.68
-0.92
-3.48
-4.11
-5.04
-8.00
-13.95
-22.83
-33.59
-44.38
-53.05
-57.91
-58.45
-55.57
-51.34
-48.16
-47.76
-50.66
-56.00
-61.92
-66.19
-66.82
-62.54
-53.04
-39.05
-22.27
-4.97
10.56
22.65
30.65
35.00
36.83
37.26
36.72
34.79
30.50
23.05
12.45
-0.10
-12.58
-22.79
-29.14
-31.20
-29.61
-25.68
-20.80
-16.00
-11.86
-8.68
-6.60
-5.73
-6.03
-7.26
-8.87
-10.19
-10.54
-9.48
-6.89
-2.97
1.85
7.09
12.34
17.31
21.75
25.33
27.67
28.27
26.77
23.15
17.87
11.83
6.09
1.55
-1.35
-2.61
-2.55
-1.42
0.63
3.64
7.67
12.66
18.35
24.33
30.14
35.32
39.51
42.42
43.95
44.19
43.36
41.75
39.58
36.92
33.80
30.41
27.20
24.75
23.63
24.15
26.18
29.23
32.69
35.98
38.51
39.41
37.56
32.07
23.02
12.14
2.46
-2.76
-1.63
5.29
15.03
23.69
28.17
27.45
22.54
15.33
7.34
-0.97
-9.72
-18.66
-26.38
-30.69
-29.71
-23.10
-12.47
-0.87
8.63
14.35
16.54
16.94
17.57
19.48
22.16
23.92
22.89
18.13
10.28
1.26
-6.52
-11.25
-12.35
-10.50
-7.24
-4.21
-2.57
-2.81
-4.85
-8.38
-13.11
-18.88
-25.56
-32.87
-40.22
-46.73
-51.48
-53.80
-53.45
-50.76
-46.55
-41.71
-36.99
-32.73
-28.91
-25.41
-22.24
-19.74
-18.40
-18.57
-20.06
-22.10
-23.55
-23.39
-21.14
-17.07
-12.01
-6.93
-2.57
0.77
3.15
4.83
5.91
6.30
5.77
4.14
1.48
-1.87
-5.34
-8.33
-10.38
-11.35
-11.42
-11.00
-10.60
-10.69
-11.55
-13.19
-15.29
-17.29
-18.48
-18.17
-15.95
-11.77
-6.00
0.72
7.65
14.05
19.30
22.94
24.71
24.67
23.09
20.42
17.07
13.37
9.50
5.46
1.29
-2.87
-6.72
-9.85
-11.91
-12.67
-12.14
-10.52
-8.21
-5.78
-3.81
-2.84
-3.17
-4.86
-7.59
-10.89
-14.22
-17.18
-19.66
-21.80
-23.89
-26.18
-28.74
-31.42
-33.84
-35.66
-36.55
-36.35
-35.13
-33.13
-30.63
-28.01
-25.55
-23.54
-22.20
-21.66
-21.98
-23.06
-24.67
-26.46
-28.14
-29.64
-31.23
-33.44
-36.96
-42.25
-49.33
-57.58
-65.94
-73.22
-78.57
-81.93
-84.13
-86.65
-91.05
-98.25
-107.91
-118.23
-126.03
-127.53
-119.42
-99.90
-69.39
-30.54
12.56
55.54
95.03
129.45
159.33
186.88
215.20
246.84
282.41
319.59
353.12
376.13
382.31
368.25
334.77
286.83
231.86
177.61
130.42
94.35
71.39
61.86
64.75
77.70
97.16
118.74
138.18
152.34
159.91
161.22
157.75
151.03
141.80
129.76
113.76
92.70
66.16
34.97
0.99
-33.40
-66.09
-95.86
-122.77
-148.04
-173.50
-200.60
-229.38
-257.89
-282.49
-299.07
-304.69
-298.85
-283.74
-263.32
-241.72
-221.80
-204.51
-189.38
-175.45
-162.14
-149.53
-137.96
-127.53
-117.80
-107.99
-97.44
-85.99
-74.06
-62.51
-52.14
-43.31
-35.86
-29.14
-22.52
-15.60
-8.46
-1.64
4.19
8.53
11.25
12.59
12.99
12.84
12.27
11.15
9.23
6.30
2.43
-1.97
-6.37
-10.25
-13.32
-15.64
-17.57
-19.57
-22.03
-25.19
-28.91
-32.89
-36.63
-39.68
-41.76
-42.78
-42.85
-42.16
-40.95
-39.49
-38.10
-37.32
-37.76
-40.04
-44.42
-50.64
-57.88
-64.77
-69.68
-70.83
-66.48
-55.35
-37.08
-12.56
15.77
44.33
69.21
87.14
96.33
96.72
89.78
77.86
63.67
49.80
38.52
31.58
30.05
34.10
42.90
54.83
67.83
80.00
90.12
97.85
103.73
108.82
114.30
120.95
128.87
137.33
144.91
149.93
151.09
147.98
141.31
132.77
124.29
117.26
111.96
107.51
102.39
95.19
85.36
73.71
62.54
55.21
55.17
64.56
83.02
107.14
131.10
148.32
153.46
143.94
120.17
84.86
41.56
-6.25
-55.46
-102.95
-145.32
-179.09
-201.50
-211.32
-209.27
-197.64
-179.58
-158.20
-136.01
-114.76
-95.53
-78.99
-65.49
-55.11
-47.74
-43.20
-41.18
-41.23
-42.64
-44.41
-45.43
-44.86
-42.39
-38.36
-33.59
-28.93
-24.92
-21.55
-18.41
-15.03
-11.15
-6.92
-2.84
0.43
2.35
2.64
1.43
-0.88
-3.71
-6.55
-9.01
-10.92
-12.14
-12.52
-11.79
-9.70
-6.07
-0.93
5.41
12.50
19.65
25.92
30.08
30.96
27.84
21.15
12.58
4.70
0.03
-0.17
3.56
9.07
13.65
15.19
13.07
8.12
2.01
-3.62
-7.82
-10.36
-11.51
-11.61
-10.92
-9.50
-7.44
-4.93
-2.32
-0.12
1.21
1.29
0.05
-2.17
-4.65
-6.44
-6.61
-4.63
-0.58
4.88
10.69
15.76
19.28
20.82
20.32
17.93
13.96
8.70
2.58
-3.81
-9.72
-14.21
-16.37
-15.65
-12.13
-6.69
-0.91
3.56
5.54
4.76
1.87
-1.98
-5.75
-8.92
-11.45
-13.51
-15.20
-16.39
-16.90
-16.55
-15.19
-12.65
-8.65
-2.96
4.25
12.26
19.77
25.35
28.00
27.51
24.50
20.01
15.05
10.35
6.40
3.58
2.36
3.12
5.95
10.31
15.12
18.99
20.76
19.81
16.39
11.32
5.74
0.68
-3.26
-6.05
-8.01
-9.67
-11.42
-13.34
-15.25
-16.81
-17.75
-18.12
-18.31
-18.95
-20.58
-23.38
-27.04
-30.71
-33.37
-34.16
-32.84
-29.88
-26.38
-23.61
-22.51
-23.29
-25.44
-28.04
-30.24
-31.70
-32.61
-33.47
-34.67
-36.24
-37.86
-39.30
-40.57
-41.80
-42.92
-43.14
-41.01
-34.99
-24.32
-9.68
7.02
23.55
38.40
51.24
62.29
71.18
75.82
72.67
58.34
31.97
-3.02
-39.11
-66.82
-78.06
-68.87
-40.32
2.67
53.64
106.68
157.32
202.07
237.75
261.27
270.29
264.39
245.73
218.79
189.09
161.64
139.86
125.07
116.73
112.80
110.18
105.22
94.48
75.40
46.89
9.58
-34.34
-81.42
-127.38
-167.54
-197.54
-214.18
-216.37
-205.48
-185.21
-160.41
-135.88
-115.12
-99.85
-90.24
-85.41
-84.05
-84.87
-86.72
-88.60
-89.70
-89.35
-87.04
-82.39
-75.31
-65.97
-54.87
-42.74
-30.41
-18.76
-8.58
-0.56
4.67
6.75
5.76
2.27
-2.65
-7.72
-11.81
-14.17
-14.40
-12.38
-8.08
-1.72
6.15
14.45
21.88
27.39
30.66
32.29
33.43
35.09
37.47
39.73
40.25
37.30
29.77
17.55
1.62
-16.33
-34.17
-49.84
-61.73
-68.91
-71.36
-69.88
-65.78
-60.50
-55.22
-50.64
-47.02
-44.30
-42.36
-41.08
-40.35
-39.88
-39.11
-37.33
-33.89
-28.59
-21.97
-15.44
-10.91
-10.18
-14.10
-22.05
-31.89
-40.40
-44.07
-39.86
-25.63
-0.48
34.97
78.47
126.11
172.81
213.26
243.16
260.30
264.95
259.46
247.10
230.99
213.30
195.00
176.10
156.00
133.65
107.75
76.83
39.57
-4.69
-55.34
-109.86
-163.85
-211.54
-247.16
-266.56
-268.48
-255.06
-231.00
-202.21
-173.83
-148.82
-127.35
-107.21
-84.92
-57.26
-22.71
17.75
60.54
100.36
131.71
150.50
155.17
147.03
129.48
106.74
82.76
60.29
40.62
23.85
9.35
-3.63
-15.54
-26.34
-35.74
-43.48
-49.78
-55.26
-60.50
-65.40
-68.84
-69.04
-64.41
-54.61
-41.05
-26.37
-13.13
-2.43
6.59
16.31
29.26
46.70
68.03
90.97
112.55
130.23
142.60
149.19
150.04
144.98
133.37
114.59
88.77
57.64
24.70
-5.58
-29.12
-43.74
-49.76
-49.67
-46.64
-43.07
-39.72
-36.05
-31.16
-24.75
-17.62
-11.16
-6.72
-4.84
-5.17
-6.75
-8.57
-10.10
-11.34
-12.63
-14.39
-16.77
-19.66
-22.88
-26.57
-31.42
-38.61
-49.25
-63.64
-80.63
-97.63
-111.26
-118.50
-117.75
-109.17
-94.51
-76.19
-56.62
-37.57
-20.22
-5.27
6.92
16.22
22.80
27.11
29.74
31.28
32.16
32.62
32.78
32.77
32.75
32.91
33.43
34.38
35.77
37.54
39.49
41.37
42.97
44.14
44.95
45.57
46.29
47.40
49.02
51.06
53.11
54.54
54.59
52.62
48.39
42.17
34.75
27.21
20.55
15.39
11.75
9.06
6.37
2.76
-2.33
-8.88
-16.25
-23.35
-28.98
-32.17
-32.41
-29.85
-25.11
-19.19
-13.11
-7.71
-3.50
-0.61
1.12
2.09
2.75
3.52
4.67
6.35
8.59
11.25
14.06
16.66
18.75
20.14
20.88
21.29
21.83
22.92
24.73
27.10
29.59
31.65
32.82
32.93
32.09
30.70
29.15
27.73
26.47
25.17
23.49
21.07
17.66
12.98
6.74
-1.38
-11.67
-24.11
-38.22
-52.93
-66.80
-78.24
-86.04
-89.56
-88.87
-84.60
-77.71
-69.21
-60.04
-50.96
-42.53
-35.13
-28.91
-23.81
-19.48
-15.35
-10.83
-5.50
0.72
7.47
14.05
19.66
23.62
25.63
25.88
24.92
23.55
22.48
22.20
22.77
23.89
25.05
25.70
25.52
24.47
22.83
21.03
19.54
18.64
18.40
18.56
18.68
18.18
16.55
13.53
9.06
3.31
-3.51
-11.21
-19.69
-28.88
-38.65
-48.67
-58.30
-66.66
-72.78
-75.95
-75.87
-72.84
-67.65
-61.33
-54.91
-49.08
-44.14
-40.06
-36.66
-33.83
-31.59
-30.09
-29.31
-29.01
-28.61
-27.41
-24.90
-21.07
-16.50
-12.14
-8.84
-6.89
-5.94
-5.10
-3.50
-0.65
3.39
8.18
13.26
18.34
23.40
28.40
33.10
36.86
38.93
38.68
35.97
31.15
24.92
18.06
11.27
5.09
0.06
-3.18
-4.04
-2.11
2.47
9.05
16.57
23.93
30.30
35.32
38.98
41.47
42.92
43.33
42.66
41.00
38.58
35.85
33.26
31.20
29.85
29.15
28.86
28.63
28.13
27.13
25.56
23.44
20.90
18.09
15.10
12.03
9.05
6.37
4.29
3.15
3.09
4.03
5.64
7.44
8.94
9.85
10.02
9.48
8.28
6.48
4.15
1.46
-1.30
-3.62
-4.97
-4.89
-3.15
0.16
4.61
9.51
14.14
17.79
20.00
20.63
19.80
17.86
15.22
12.29
9.38
6.71
4.42
2.61
1.38
0.80
0.89
1.57
2.59
3.49
3.80
3.11
1.31
-1.45
-4.82
-8.38
-11.78
-14.81
-17.33
-19.32
-20.69
-21.43
-21.52
-21.09
-20.26
-19.17
-17.98
-16.82
-15.80
-14.98
-14.26
-13.37
-11.96
-9.75
-6.79
-3.60
-1.07
-0.25
-2.04
-6.87
-14.70
-25.01
-36.97
-49.46
-61.08
-70.14
-74.86
-73.72
-65.99
-51.96
-33.07
-11.61
9.66
28.09
41.57
48.90
50.05
46.11
39.07
31.33
24.98
21.34
20.62
22.07
24.30
25.80
25.42
22.62
17.60
11.22
4.68
-0.80
-4.44
-6.12
-6.47
-6.58
-7.67
-10.61
-15.60
-22.10
-28.96
-34.67
-37.84
-37.58
-33.71
-26.97
-18.74
-10.68
-4.33
-0.58
0.39
-0.80
-3.15
-5.50
-6.97
-7.15
-6.06
-4.15
-1.98
-0.06
1.33
2.08
2.35
2.32
2.20
2.18
2.41
3.07
4.31
6.19
8.59
11.13
13.20
14.16
13.48
10.92
6.62
1.06
-5.06
-11.03
-16.22
-20.25
-22.96
-24.38
-24.74
-24.40
-23.75
-23.13
-22.74
-22.51
-22.11
-21.12
-19.06
-15.69
-11.05
-5.48
0.46
6.16
11.05
14.73
16.98
17.80
17.39
16.12
14.34
12.40
10.51
8.79
7.33
6.16
5.35
4.92
4.84
4.99
5.23
5.40
5.43
5.25
4.76
3.80
2.11
-0.51
-4.05
-8.18
-12.19
-15.20
-16.52
-15.85
-13.49
-10.14
-6.64
-3.64
-1.50
-0.28
0.08
-0.44
-1.91
-4.39
-7.73
-11.47
-14.84
-16.95
-17.08
-14.90
-10.59
-4.78
1.68
7.94
13.38
17.73
20.95
23.15
24.42
24.86
24.56
23.69
22.48
21.22
20.12
19.27
18.58
17.88
16.98
15.77
14.32
12.82
11.45
10.34
9.41
8.44
7.10
5.20
2.72
-0.13
-2.96
-5.41
-7.32
-8.71
-9.80
-10.80
-11.82
-12.83
-13.73
-14.45
-14.98
-15.47
-16.06
-16.93
-18.18
-19.87
-21.99
-24.51
-27.25
-29.90
-31.88
-32.53
-31.21
-27.57
-21.76
-14.43
-6.59
0.77
6.99
11.84
15.55
18.57
21.21
23.53
25.40
26.55
26.83
26.31
25.26
24.02
22.95
22.17
21.71
21.45
21.27
21.04
20.67
20.10
19.29
18.21
16.87
15.33
13.67
11.97
10.29
8.60
6.81
4.87
2.76
0.52
-1.61
-3.43
-4.77
-5.57
-5.93
-6.09
-6.34
-6.93
-8.00
-9.53
-11.34
-13.20
-14.88
-16.25
-17.33
-18.29
-19.39
-20.86
-22.84
-25.25
-27.76
-29.84
-30.86
-30.28
-27.78
-23.26
-16.91
-9.10
-0.39
8.50
16.79
23.69
28.56
30.98
30.94
28.77
25.07
20.56
15.97
11.92
8.82
6.85
5.94
5.90
6.45
7.39
8.62
10.15
12.04
14.21
16.42
18.17
18.86
17.97
15.29
11.06
6.04
1.22
-2.52
-4.77
-5.69
-5.88
-6.07
-6.79
-8.14
-9.92
-11.77
-13.45
-14.81
-15.82
-16.48
-16.73
-16.62
-16.33
-16.29
-17.04
-19.01
-22.28
-26.41
-30.50
-33.40
-34.06
-31.87
-26.82
-19.49
-10.91
-2.15
5.84
12.45
17.45
20.91
23.07
24.22
24.57
24.28
23.49
22.32
20.93
19.48
18.13
17.00
16.14
15.60
15.38
15.43
15.66
15.88
15.90
15.50
14.59
13.15
11.34
9.31
7.24
5.22
3.27
1.38
-0.49
-2.33
-4.13
-5.80
-7.28
-8.50
-9.44
-10.10
-10.53
-10.84
-11.19
-11.79
-12.74
-14.08
-15.71
-17.46
-19.18
-20.80
-22.33
-23.72
-24.76
-25.07
-24.06
-21.22
-16.24
-9.31
-1.11
7.29
14.68
20.02
22.74
22.86
20.98
18.07
15.07
12.71
11.33
10.89
11.16
11.81
12.61
13.40
14.10
14.69
15.25
15.96
17.01
18.61
20.79
23.37
25.99
28.14
29.35
29.36
28.15
25.97
23.23
20.25
17.26
14.27
11.14
7.73
3.93
-0.19
-4.45
-8.61
-12.50
-16.00
-19.06
-21.67
-23.76
-25.22
-25.92
-25.80
-24.88
-23.39
-21.69
-20.23
-19.43
-19.55
-20.64
-22.53
-24.76
-26.71
-27.63
-26.80
-23.75
-18.51
-11.68
-4.38
2.06
6.44
8.08
6.98
3.71
-0.68
-5.04
-8.30
-9.61
-8.47
-4.73
1.35
8.98
17.00
24.03
28.76
30.26
28.23
23.03
15.73
7.79
0.82
-3.78
-5.22
-3.53
0.40
5.01
8.57
9.66
7.61
2.68
-4.13
-11.42
-17.69
-21.88
-23.35
-22.10
-18.67
-13.99
-9.20
-5.37
-3.25
-3.11
-4.76
-7.73
-11.43
-15.33
-19.05
-22.25
-24.61
-25.74
-25.36
-23.34
-19.86
-15.35
-10.35
-5.40
-0.86
3.06
6.27
8.73
10.38
11.20
11.21
10.62
9.73
8.94
8.57
8.77
9.48
10.42
11.27
11.72
11.67
11.14
10.32
9.37
8.45
7.65
6.93
6.27
5.52
4.53
3.17
1.40
-0.60
-2.54
-4.12
-5.19
-5.76
-6.11
-6.57
-7.38
-8.61
-10.17
-11.87
-13.58
-15.30
-17.08
-18.99
-20.96
-22.77
-24.12
-24.68
-24.23
-22.66
-19.95
-16.17
-11.46
-6.12
-0.56
4.72
9.23
12.64
14.87
16.08
16.54
16.52
16.27
15.91
15.52
15.12
14.73
14.34
13.95
13.55
13.13
12.73
12.43
12.24
12.13
11.97
11.62
10.97
9.96
8.60
6.89
4.87
2.61
0.22
-2.10
-4.17
-5.86
-7.19
-8.29
-9.35
-10.47
-11.63
-12.72
-13.65
-14.46
-15.32
-16.41
-17.84
-19.55
-21.23
-22.50
-22.90
-22.12
-20.01
-16.63
-12.25
-7.25
-2.10
2.80
7.18
10.92
14.01
16.47
18.24
19.32
19.66
19.39
18.74
18.00
17.41
17.08
16.94
16.81
16.54
16.06
15.46
14.91
14.56
14.51
14.66
14.79
14.53
13.61
11.85
9.31
6.26
3.12
0.33
-1.78
-3.09
-3.76
-4.15
-4.74
-5.84
-7.49
-9.38
-10.97
-11.76
-11.54
-10.60
-9.62
-9.53
-11.12
-14.64
-19.66
-24.94
-28.71
-29.20
-25.40
-17.56
-7.43
2.20
8.46
9.40
4.93
-3.18
-11.85
-17.74
-18.45
-13.18
-3.10
9.05
19.66
25.41
24.30
16.51
4.41
-8.11
-16.94
-19.18
-14.13
-3.51
9.27
20.30
26.49
26.51
21.00
12.26
3.31
-3.11
-5.38
-3.41
1.53
7.33
11.82
13.49
11.82
7.29
1.07
-5.36
-10.69
-14.10
-15.43
-15.11
-14.00
-12.99
-12.76
-13.57
-15.15
-16.90
-17.99
-17.69
-15.51
-11.41
-5.78
0.70
7.17
12.88
17.27
20.08
21.31
21.21
20.14
18.45
16.50
14.58
12.86
11.50
10.59
10.21
10.28
10.55
10.59
9.92
8.22
5.55
2.33
-0.75
-3.08
-4.40
-4.95
-5.36
-6.33
-8.37
-11.47
-15.12
-18.48
-20.65
-20.97
-19.24
-15.77
-11.33
-6.92
-3.60
-2.15
-2.95
-5.82
-10.07
-14.61
-18.27
-20.09
-19.62
-16.94
-12.57
-7.26
-1.71
3.61
8.41
12.53
15.83
18.16
19.37
19.38
18.21
16.00
13.02
9.71
6.60
4.33
3.42
4.15
6.46
9.88
13.68
17.10
19.59
20.95
21.43
21.47
21.51
21.68
21.69
20.93
18.79
14.94
9.56
3.33
-2.94
-8.54
-13.19
-17.04
-20.40
-23.56
-26.57
-29.23
-31.24
-32.34
-32.43
-31.64
-30.26
-28.58
-26.81
-24.92
-22.68
-19.74
-15.84
-10.93
-5.27
0.61
6.12
10.78
14.29
16.69
18.15
18.92
19.20
19.07
18.57
17.80
16.85
15.99
15.48
15.50
16.05
16.90
17.73
18.22
18.22
17.74
16.96
16.07
15.17
14.28
13.37
12.38
11.29
10.13
8.90
7.61
6.25
4.79
3.28
1.76
0.26
-1.15
-2.49
-3.76
-4.99
-6.23
-7.45
-8.69
-9.91
-11.14
-12.39
-13.64
-14.83
-15.91
-16.84
-17.70
-18.58
-19.63
-20.86
-22.09
-22.92
-22.77
-21.18
-17.98
-13.45
-8.28
-3.31
0.69
3.30
4.55
4.83
4.79
5.07
6.15
8.24
11.17
14.46
17.30
18.84
18.43
15.92
11.78
7.10
3.20
1.27
1.98
5.36
10.79
17.26
23.62
28.82
32.13
33.11
31.82
28.60
24.11
19.18
14.54
10.73
7.84
5.62
3.43
0.48
-3.98
-10.42
-18.91
-28.98
-39.69
-49.78
-57.98
-63.33
-65.39
-64.37
-60.95
-55.96
-50.06
-43.45
-36.01
-27.40
-17.41
-6.13
5.95
18.11
29.54
39.54
47.58
53.37
56.86
58.16
57.61
55.62
52.65
49.06
45.05
40.58
35.45
29.39
22.17
13.75
4.30
-5.83
-16.18
-26.25
-35.54
-43.52
-49.60
-53.18
-53.77
-51.17
-45.61
-37.81
-28.82
-19.79
-11.68
-5.18
-0.58
2.23
3.62
4.24
4.86
6.18
8.66
12.24
16.32
19.83
21.61
20.80
17.27
11.69
5.34
-0.26
-3.85
-4.76
-3.07
0.49
4.80
8.68
11.12
11.45
9.44
5.23
-0.72
-7.69
-14.88
-21.49
-26.77
-30.23
-31.53
-30.55
-27.45
-22.59
-16.53
-9.96
-3.53
2.26
7.17
11.27
14.81
18.14
21.55
25.19
28.95
32.50
35.39
37.10
37.23
35.59
32.29
27.66
22.20
16.44
10.80
5.46
0.40
-4.62
-9.97
-15.95
-22.64
-29.82
-36.95
-43.28
-48.15
-51.15
-52.20
-51.52
-49.46
-46.30
-42.18
-37.09
-30.98
-23.84
-15.78
-7.05
1.99
10.83
18.92
25.71
30.75
33.86
35.15
34.98
33.83
32.07
29.93
27.41
24.38
20.70
16.32
11.43
6.37
1.61
-2.37
-5.18
-6.64
-6.73
-5.57
-3.37
-0.37
3.17
6.97
10.76
14.34
17.54
20.24
22.36
23.80
24.46
24.28
23.24
21.38
18.82
15.71
12.20
8.45
4.59
0.72
-3.13
-6.93
-10.73
-14.57
-18.54
-22.74
-27.23
-31.98
-36.72
-40.95
-43.99
-45.10
-43.77
-39.93
-33.97
-26.71
-19.15
-12.16
-6.24
-1.51
2.25
5.44
8.35
11.17
13.87
16.24
18.01
18.93
18.78
17.43
14.95
11.59
7.85
4.38
1.85
0.78
1.32
3.22
5.91
8.63
10.73
11.83
11.89
11.15
9.99
8.81
7.88
7.35
7.24
7.43
7.72
7.84
7.60
6.88
5.69
4.13
2.31
0.20
-2.29
-5.32
-8.94
-13.00
-17.14
-20.88
-23.74
-25.41
-25.79
-24.97
-23.11
-20.37
-16.87
-12.74
-8.16
-3.41
1.16
5.25
8.65
11.28
13.14
14.27
14.69
14.46
13.74
12.77
11.88
11.35
11.36
11.94
12.95
14.23
15.57
16.75
17.50
17.56
16.71
14.90
12.32
9.32
6.37
3.82
1.78
0.17
-1.24
-2.65
-4.13
-5.60
-6.93
-8.09
-9.19
-10.43
-11.96
-13.87
-16.06
-18.39
-20.68
-22.82
-24.73
-26.33
-27.54
-28.22
-28.22
-27.43
-25.73
-23.02
-19.18
-14.13
-7.89
-0.68
7.02
14.53
21.03
25.78
28.30
28.55
26.91
24.12
21.04
18.37
16.50
15.44
14.93
14.62
14.28
13.86
13.45
13.20
13.18
13.43
13.93
14.61
15.43
16.26
16.96
17.31
17.11
16.29
14.87
12.96
10.79
8.57
6.42
4.44
2.61
0.86
-0.89
-2.74
-4.76
-6.99
-9.42
-12.05
-14.80
-17.52
-20.04
-22.16
-23.78
-25.00
-26.04
-27.21
-28.71
-30.56
-32.57
-34.47
-35.93
-36.73
-36.68
-35.66
-33.60
-30.52
-26.56
-22.02
-17.29
-12.74
-8.68
-5.30
-2.74
-1.08
-0.25
0.06
0.40
1.43
3.63
7.09
11.39
15.75
19.42
21.93
23.32
23.94
24.28
24.66
25.15
25.61
25.87
25.75
25.18
24.12
22.57
20.63
18.48
16.48
14.98
14.20
14.09
14.37
14.62
14.49
13.75
12.36
10.25
7.41
3.89
-0.15
-4.29
-7.96
-10.64
-12.03
-12.08
-10.99
-8.96
-6.11
-2.43
2.03
7.09
12.28
17.04
20.90
23.56
25.02
25.33
24.58
22.71
19.62
15.32
10.14
4.60
-0.60
-4.90
-8.10
-10.29
-11.80
-12.96
-13.94
-14.67
-14.91
-14.31
-12.63
-9.79
-5.92
-1.46
3.01
6.78
9.24
9.94
8.76
5.86
1.65
-3.29
-8.38
-12.98
-16.62
-19.06
-20.33
-20.69
-20.58
-20.44
-20.52
-20.96
-21.67
-22.46
-23.15
-23.53
-23.45
-22.73
-21.32
-19.16
-16.38
-13.19
-9.80
-6.44
-3.23
-0.33
2.17
4.11
5.37
5.86
5.62
4.88
3.95
3.21
2.90
3.07
3.58
4.17
4.61
4.79
4.79
4.74
4.78
4.93
5.10
5.14
4.90
4.30
3.33
2.06
0.57
-1.07
-2.85
-4.72
-6.62
-8.44
-10.04
-11.28
-12.09
-12.51
-12.68
-12.85
-13.24
-14.00
-15.04
-16.08
-16.74
-16.62
-15.42
-13.10
-9.76
-5.73
-1.40
2.80
6.54
9.58
11.82
13.28
14.02
14.11
13.61
12.64
11.36
9.99
8.84
8.10
7.90
8.22
8.84
9.52
10.01
10.14
9.87
9.32
8.72
8.25
8.04
7.98
7.76
7.00
5.44
3.08
0.25
-2.56
-4.81
-6.23
-6.82
-6.89
-6.95
-7.51
-9.01
-11.57
-15.08
-19.05
-22.77
-25.42
-26.31
-25.16
-22.22
-18.38
-14.83
-12.75
-12.81
-14.87
-17.95
-20.61
-21.41
-19.50
-14.82
-7.98
0.01
8.16
15.81
22.63
28.50
33.35
37.10
39.70
41.23
41.89
41.91
41.42
40.28
38.05
34.22
28.36
20.39
10.71
0.16
-10.22
-19.36
-26.44
-30.99
-32.98
-32.73
-30.82
-27.89
-24.53
-21.10
-17.77
-14.57
-11.52
-8.73
-6.41
-4.79
-3.99
-3.90
-4.15
-4.28
-3.80
-2.46
-0.19
2.78
6.09
9.35
12.19
14.37
15.75
16.28
15.96
14.87
13.14
10.94
8.51
6.13
4.08
2.51
1.47
0.86
0.51
0.27
0.04
-0.16
-0.20
0.10
0.83
1.93
3.10
3.93
4.04
3.40
2.39
1.84
2.69
5.56
10.39
16.31
21.78
25.03
24.53
19.49
9.99
-2.88
-17.34
-31.20
-42.45
-49.62
-52.18
-50.51
-45.69
-39.02
-31.60
-24.06
-16.56
-8.98
-1.18
6.79
14.65
21.89
27.94
32.19
34.14
33.55
30.48
25.39
19.05
12.44
6.55
2.25
0.19
0.86
4.43
10.83
19.57
29.76
40.18
49.45
56.30
59.79
59.57
55.92
49.72
42.29
34.92
28.58
23.53
19.38
15.23
10.14
3.55
-4.59
-13.73
-23.08
-31.71
-38.63
-42.78
-43.14
-39.06
-30.64
-19.09
-6.60
4.21
11.12
12.98
10.03
3.60
-4.41
-12.18
-18.38
-22.24
-23.52
-22.37
-19.25
-14.83
-9.85
-5.01
-0.88
2.14
3.87
4.26
3.48
1.85
-0.14
-2.03
-3.49
-4.37
-4.79
-5.03
-5.45
-6.39
-8.14
-10.84
-14.39
-18.47
-22.41
-25.35
-26.41
-24.96
-20.78
-14.20
-5.95
3.11
12.19
20.71
28.30
34.68
39.58
42.67
43.60
42.08
38.02
31.55
23.13
13.50
3.69
-5.16
-12.04
-16.36
-18.18
-18.11
-17.16
-16.33
-16.35
-17.52
-19.67
-22.36
-24.98
-27.00
-28.00
-27.73
-26.11
-23.28
-19.56
-15.42
-11.39
-7.91
-5.26
-3.52
-2.50
-1.84
-1.13
-0.07
1.47
3.34
5.22
6.78
7.81
8.31
8.45
8.48
8.49
8.46
8.26
7.76
6.94
5.85
4.57
3.15
1.62
-0.01
-1.67
-3.29
-4.79
-6.13
-7.31
-8.32
-9.09
-9.48
-9.38
-8.82
-7.98
-7.24
-6.98
-7.45
-8.62
-10.20
-11.62
-12.29
-11.75
-9.77
-6.49
-2.29
2.25
6.54
10.14
12.82
14.57
15.60
16.21
16.76
17.48
18.45
19.53
20.44
20.82
20.36
18.89
16.50
13.48
10.27
7.35
5.13
3.80
3.38
3.70
4.43
5.23
5.75
5.79
5.22
4.04
2.21
-0.34
-3.69
-7.82
-12.52
-17.35
-21.71
-25.09
-27.16
-28.02
-28.01
-27.58
-27.03
-26.39
-25.50
-24.12
-22.06
-19.26
-15.84
-11.94
-7.73
-3.35
1.05
5.29
9.08
12.12
14.11
14.90
14.50
13.18
11.33
9.44
7.85
6.77
6.24
6.15
6.40
6.87
7.47
8.08
8.54
8.70
8.50
7.95
7.15
6.25
5.29
4.27
3.12
1.80
0.33
-1.17
-2.56
-3.80
-4.87
-5.86
-6.85
-7.91
-9.11
-10.47
-12.00
-13.67
-15.39
-16.90
-17.91
-18.09
-17.22
-15.27
-12.39
-8.84
-4.96
-1.04
2.67
5.97
8.75
10.94
12.57
13.67
14.31
14.55
14.47
14.14
13.62
12.99
12.30
11.65
11.13
10.87
10.90
11.24
11.79
12.38
12.86
13.09
13.03
12.72
12.20
11.51
10.66
9.60
8.34
6.92
5.44
4.04
2.81
1.84
1.18
0.78
0.56
0.44
0.34
0.24
0.15
0.12
0.20
0.44
0.83
1.37
2.11
3.17
4.81
7.27
10.79
15.46
21.13
27.34
33.31
37.85
39.53
36.95
29.16
16.12
-1.10
-20.40
-39.20
-55.08
-66.45
-72.81
-74.58
-72.72
-68.27
-62.02
-54.54
-46.20
-37.35
-28.46
-20.17
-13.20
-8.33
-6.08
-6.56
-9.31
-13.34
-17.32
-20.01
-20.54
-18.62
-14.52
-8.87
-2.41
4.07
9.91
14.52
17.47
18.54
17.89
16.04
13.81
12.00
11.20
11.49
12.49
13.44
13.68
12.82
11.04
8.93
7.26
6.57
6.98
8.18
9.49
10.30
10.17
9.04
7.17
5.04
3.16
2.02
1.94
3.10
5.48
8.89
12.91
17.02
20.67
23.42
25.08
25.77
25.80
25.48
24.96
24.05
22.38
19.52
15.16
9.25
2.07
-5.88
-13.90
-21.25
-27.21
-31.20
-32.84
-32.10
-29.25
-24.88
-19.75
-14.61
-10.12
-6.67
-4.27
-2.58
-1.05
0.95
3.78
7.40
11.39
15.10
17.92
19.40
19.44
18.15
15.75
12.51
8.70
4.59
0.51
-3.23
-6.42
-8.93
-10.74
-11.87
-12.28
-11.93
-10.77
-8.83
-6.21
-3.13
0.15
3.40
6.49
9.33
11.84
13.92
15.46
16.33
16.43
15.76
14.32
12.23
9.61
6.59
3.28
-0.22
-3.82
-7.44
-10.93
-14.20
-17.07
-19.33
-20.80
-21.25
-20.55
-18.62
-15.52
-11.42
-6.65
-1.61
3.29
7.69
11.29
13.96
15.65
16.43
16.42
15.83
14.91
13.87
12.85
11.95
11.12
10.25
9.23
8.04
6.75
5.49
4.40
3.49
2.77
2.18
1.64
1.12
0.60
0.02
-0.65
-1.47
-2.46
-3.57
-4.71
-5.74
-6.58
-7.17
-7.50
-7.65
-7.68
-7.69
-7.80
-8.17
-8.91
-10.08
-11.63
-13.32
-14.77
-15.52
-15.22
-13.76
-11.31
-8.25
-5.10
-2.29
-0.07
1.47
2.46
3.09
3.55
3.95
4.32
4.64
4.89
5.09
5.29
5.61
6.16
7.02
8.22
9.73
11.44
13.12
14.40
14.80
13.88
11.34
7.31
2.34
-2.84
-7.48
-11.19
-14.07
-16.57
-19.21
-22.30
-25.74
-29.05
-31.62
-32.94
-32.81
-31.37
-29.01
-26.08
-22.81
-19.21
-15.20
-10.74
-5.94
-1.05
3.65
7.92
11.66
14.88
17.64
19.97
21.85
23.17
23.84
23.79
23.06
21.76
20.10
18.31
16.58
15.01
13.63
12.44
11.40
10.50
9.70
8.87
7.79
6.22
3.92
0.81
-2.95
-7.10
-11.22
-14.85
-17.63
-19.31
-19.80
-19.12
-17.49
-15.18
-12.59
-10.19
-8.41
-7.58
-7.84
-9.09
-11.03
-13.21
-15.15
-16.44
-16.77
-15.90
-13.72
-10.25
-5.71
-0.54
4.67
9.35
13.09
15.70
17.23
17.82
17.63
16.81
15.51
13.96
12.43
11.21
10.39
9.93
9.62
9.25
8.73
8.12
7.68
7.63
8.08
8.91
9.86
10.55
10.67
10.11
8.98
7.61
6.30
5.30
4.60
4.06
3.46
2.64
1.62
0.47
-0.71
-1.91
-3.13
-4.42
-5.77
-7.16
-8.56
-10.05
-11.78
-13.90
-16.41
-19.05
-21.38
-22.83
-22.99
-21.73
-19.24
-15.95
-12.30
-8.65
-5.16
-1.86
1.31
4.38
7.27
9.83
11.90
13.35
14.15
14.43
14.38
14.23
14.22
14.44
14.87
15.40
15.83
16.03
15.97
15.66
15.11
14.29
13.09
11.37
9.13
6.51
3.79
1.30
-0.78
-2.38
-3.61
-4.67
-5.74
-6.91
-8.16
-9.46
-10.68
-11.72
-12.49
-12.95
-13.15
-13.23
-13.39
-13.79
-14.49
-15.41
-16.31
-16.80
-16.50
-15.08
-12.38
-8.50
-3.79
1.22
5.99
10.08
13.29
15.59
17.05
17.82
18.01
17.75
17.18
16.45
15.64
14.75
13.67
12.29
10.59
8.69
6.83
5.29
4.19
3.47
2.92
2.31
1.56
0.71
-0.08
-0.68
-1.07
-1.34
-1.70
-2.28
-3.19
-4.37
-5.74
-7.18
-8.61
-9.99
-11.33
-12.60
-13.79
-14.89
-15.88
-16.78
-17.61
-18.38
-19.14
-19.91
-20.65
-21.22
-21.45
-21.12
-20.04
-18.04
-15.16
-11.54
-7.46
-3.31
0.51
3.66
6.01
7.64
8.76
9.68
10.65
11.79
13.11
14.47
15.80
17.04
18.18
19.22
20.11
20.78
21.14
21.08
20.54
19.48
17.91
15.94
13.75
11.55
9.54
7.84
6.48
5.42
4.59
3.87
3.21
2.54
1.83
1.04
0.14
-0.91
-2.15
-3.63
-5.43
-7.51
-9.83
-12.19
-14.41
-16.29
-17.76
-18.85
-19.67
-20.45
-21.30
-22.29
-23.22
-23.65
-23.09
-21.07
-17.35
-11.98
-5.37
1.79
8.62
14.23
17.91
19.33
18.71
16.68
14.28
12.50
12.09
13.34
16.07
19.81
23.79
27.24
29.35
29.50
27.48
23.66
18.97
14.66
11.91
11.30
12.69
15.24
17.83
19.54
19.95
19.17
17.69
15.94
14.19
12.44
10.43
7.86
4.48
0.17
-4.91
-10.36
-15.47
-19.39
-21.28
-20.67
-17.67
-13.08
-8.25
-4.68
-3.65
-5.74
-10.73
-17.61
-24.83
-30.68
-33.68
-32.97
-28.51
-21.12
-12.39
-4.32
1.11
2.44
-0.83
-8.12
-17.87
-27.90
-36.02
-40.58
-40.80
-36.84
-29.55
-20.19
-10.06
-0.33
8.02
14.24
17.83
18.56
16.66
12.69
7.63
2.59
-1.30
-3.18
-2.64
0.13
4.36
8.98
12.86
15.21
15.72
14.57
12.23
9.25
6.06
2.95
0.04
-2.63
-5.05
-7.22
-9.17
-11.01
-12.85
-14.74
-16.61
-18.18
-19.07
-18.98
-17.77
-15.61
-12.85
-9.85
-6.77
-3.52
0.17
4.47
9.28
14.13
18.35
21.30
22.67
22.58
21.47
19.78
17.73
15.19
11.89
7.70
2.89
-1.77
-5.30
-6.87
-6.14
-3.37
0.71
5.33
9.83
13.88
17.47
20.68
23.52
25.83
27.26
27.35
25.86
22.76
18.45
13.60
8.95
5.00
1.90
-0.58
-2.88
-5.37
-8.16
-11.05
-13.65
-15.57
-16.58
-16.69
-16.04
-14.86
-13.28
-11.38
-9.20
-6.86
-4.59
-2.68
-1.37
-0.74
-0.66
-0.82
-0.93
-0.79
-0.38
0.13
0.53
0.71
0.73
0.80
1.10
1.70
2.45
3.09
3.27
2.70
1.20
-1.23
-4.48
-8.31
-12.37
-16.30
-19.78
-22.60
-24.72
-26.26
-27.39
-28.33
-29.25
-30.26
-31.35
-32.43
-33.23
-33.40
-32.57
-30.47
-27.07
-22.53
-17.22
-11.60
-6.05
-0.89
3.66
7.41
10.17
11.69
11.91
10.99
9.38
7.75
6.79
7.02
8.62
11.39
14.87
18.40
21.24
22.74
22.53
20.72
18.00
15.39
13.95
14.27
16.26
19.15
21.93
23.66
23.85
22.53
20.10
17.09
14.01
11.12
8.41
5.63
2.38
-1.64
-6.44
-11.62
-16.53
-20.46
-22.86
-23.46
-22.23
-19.24
-14.68
-8.86
-2.35
4.13
9.73
13.77
15.92
16.23
15.12
13.18
11.02
9.15
7.90
7.35
7.35
7.58
7.70
7.48
6.84
5.94
4.97
4.12
3.47
2.97
2.46
1.79
0.87
-0.34
-1.81
-3.48
-5.25
-7.06
-8.84
-10.53
-12.13
-13.60
-15.00
-16.33
-17.62
-18.86
-19.92
-20.65
-20.79
-20.08
-18.34
-15.55
-11.88
-7.65
-3.28
0.87
4.54
7.55
9.83
11.34
12.07
12.10
11.57
10.72
9.83
9.12
8.68
8.46
8.35
8.17
7.85
7.41
6.93
6.59
6.53
6.80
7.28
7.75
7.90
7.53
6.57
5.16
3.51
1.83
0.21
-1.40
-3.09
-4.91
-6.74
-8.32
-9.44
-10.08
-10.51
-11.22
-12.69
-15.09
-18.01
-20.69
-22.20
-21.86
-19.45
-15.17
-9.54
-3.13
3.46
9.69
14.95
18.72
20.67
20.93
20.11
19.13
18.89
19.84
21.79
23.96
25.24
24.70
21.84
16.80
10.26
3.25
-3.24
-8.37
-11.66
-12.96
-12.37
-10.23
-7.05
-3.46
-0.10
2.52
4.14
4.84
4.97
4.99
5.26
5.91
6.82
7.76
8.47
8.75
8.53
7.69
6.18
3.96
1.10
-2.11
-5.32
-8.08
-10.06
-11.10
-11.30
-10.93
-10.44
-10.29
-10.80
-12.09
-13.97
-15.97
-17.45
-17.78
-16.56
-13.79
-9.86
-5.36
-0.95
2.96
6.19
8.82
11.05
13.13
15.17
17.16
18.95
20.27
20.84
20.37
18.76
16.14
12.88
9.53
6.65
4.64
3.64
3.50
3.95
4.70
5.53
6.35
7.04
7.50
7.59
7.13
6.06
4.47
2.64
0.98
-0.10
-0.34
0.19
1.12
1.83
1.70
0.33
-2.41
-6.23
-10.66
-15.20
-19.39
-22.96
-25.72
-27.51
-28.28
-28.06
-27.06
-25.65
-24.30
-23.36
-22.97
-23.01
-23.05
-22.59
-21.23
-18.81
-15.41
-11.35
-7.03
-2.76
1.26
5.01
8.56
11.96
15.20
18.08
20.29
21.53
21.58
20.41
18.29
15.73
13.33
11.73
11.38
12.52
15.03
18.55
22.39
25.79
28.10
28.93
28.26
26.46
24.02
21.42
18.93
16.59
14.39
12.32
10.49
9.20
8.70
9.11
10.32
11.94
13.42
14.20
13.90
12.40
9.91
6.81
3.59
0.69
-1.61
-3.19
-4.14
-4.69
-5.20
-5.99
-7.25
-8.90
-10.59
-11.76
-11.91
-10.72
-8.21
-4.65
-0.54
3.54
7.00
9.31
10.11
9.24
6.89
3.43
-0.60
-4.72
-8.59
-11.97
-14.71
-16.64
-17.62
-17.63
-16.81
-15.46
-13.96
-12.59
-11.47
-10.54
-9.68
-8.84
-8.00
-7.20
-6.48
-5.78
-5.00
-4.03
-2.91
-1.78
-0.88
-0.43
-0.52
-1.13
-2.09
-3.26
-4.47
-5.68
-6.85
-8.02
-9.14
-10.16
-11.04
-11.67
-12.00
-11.93
-11.41
-10.36
-8.76
-6.63
-4.10
-1.32
1.50
4.15
6.49
8.40
9.91
11.07
12.00
12.79
13.47
14.06
14.48
14.71
14.67
14.33
13.70
12.82
11.80
10.82
10.12
9.84
10.04
10.61
11.30
11.79
11.81
11.17
9.84
7.92
5.59
3.07
0.50
-2.10
-4.78
-7.55
-10.30
-12.73
-14.45
-15.21
-15.07
-14.49
-14.27
-15.20
-17.75
-21.80
-26.66
-31.11
-33.79
-33.57
-29.89
-23.04
-14.14
-4.97
2.52
6.73
6.95
3.60
-1.88
-7.45
-11.07
-11.44
-8.38
-2.97
2.78
6.61
6.81
2.84
-4.49
-13.18
-20.74
-24.91
-24.32
-18.87
-9.76
0.84
10.23
15.86
16.07
10.52
0.49
-11.44
-22.11
-28.72
-29.66
-24.92
-15.99
-5.31
4.47
11.04
13.04
10.20
3.39
-5.63
-14.64
-21.47
-24.61
-23.56
-18.84
-11.76
-3.98
2.98
8.10
11.02
11.99
11.67
10.94
10.62
11.21
12.87
15.33
18.12
20.67
22.54
23.50
23.56
22.93
21.84
20.48
18.97
17.36
15.70
14.09
12.64
11.42
10.46
9.77
9.36
9.24
9.39
9.67
9.82
9.48
8.34
6.24
3.27
-0.24
-3.85
-7.17
-9.90
-11.91
-13.22
-13.96
-14.27
-14.27
-14.13
-14.02
-14.13
-14.60
-15.41
-16.37
-17.10
-17.15
-16.15
-14.02
-11.00
-7.56
-4.22
-1.36
0.81
2.32
3.26
3.81
4.10
4.29
4.50
4.78
5.13
5.48
5.72
5.76
5.55
5.13
4.66
4.29
4.14
4.28
4.65
5.13
5.54
5.77
5.72
5.42
4.92
4.33
3.71
3.01
2.17
1.09
-0.27
-1.85
-3.54
-5.17
-6.63
-7.79
-8.64
-9.23
-9.67
-10.09
-10.72
-11.67
-12.95
-14.35
-15.52
-16.14
-16.03
-15.27
-14.15
-12.92
-11.64
-10.03
-7.62
-3.95
1.04
6.94
12.84
17.73
20.76
21.60
20.57
18.53
16.67
16.17
17.88
22.07
28.34
35.60
42.28
46.67
47.32
43.52
35.45
24.15
11.20
-1.60
-12.61
-20.67
-25.14
-26.03
-23.89
-19.82
-15.10
-11.00
-8.42
-7.68
-8.58
-10.56
-13.06
-15.62
-18.01
-20.13
-21.91
-23.22
-23.90
-23.79
-22.78
-20.83
-17.96
-14.26
-9.97
-5.42
-1.08
2.57
5.18
6.67
7.22
7.20
7.08
7.22
7.83
8.92
10.34
11.79
12.98
13.64
13.66
13.05
11.99
10.68
9.28
7.91
6.55
5.17
3.74
2.31
0.94
-0.32
-1.42
-2.39
-3.21
-3.90
-4.39
-4.67
-4.73
-4.67
-4.60
-4.61
-4.68
-4.70
-4.54
-4.20
-3.84
-3.80
-4.43
-5.93
-8.28
-11.20
-14.18
-16.69
-18.22
-18.39
-17.05
-14.23
-10.23
-5.61
-1.04
2.86
5.65
7.24
7.79
7.64
7.18
6.69
6.33
6.11
5.93
5.68
5.29
4.74
4.15
3.65
3.40
3.47
3.85
4.44
5.10
5.77
6.40
6.99
7.51
7.88
8.01
7.78
7.15
6.12
4.77
3.19
1.52
-0.13
-1.64
-2.95
-4.13
-5.34
-6.75
-8.47
-10.43
-12.41
-14.06
-14.99
-14.95
-13.80
-11.59
-8.48
-4.78
-0.82
3.01
6.41
9.18
11.30
12.88
14.09
15.04
15.72
16.11
16.13
15.84
15.34
14.79
14.27
13.80
13.31
12.71
12.03
11.35
10.89
10.78
11.03
11.51
11.92
11.91
11.20
9.76
7.81
5.76
4.10
3.09
2.67
2.47
1.98
0.81
-1.05
-3.28
-5.40
-6.94
-7.76
-8.12
-8.52
-9.65
-12.06
-16.02
-21.28
-27.13
-32.33
-35.44
-35.12
-30.47
-21.39
-8.57
6.47
21.64
34.58
43.12
45.70
41.75
31.82
17.35
0.30
-17.26
-33.36
-46.12
-53.65
-54.29
-47.02
-32.12
-11.56
11.17
31.77
46.27
52.23
49.37
39.57
26.16
12.85
2.62
-3.02
-4.23
-2.43
0.48
2.88
4.03
3.99
3.44
3.03
3.14
3.70
4.36
4.75
4.60
3.81
2.36
0.26
-2.56
-6.11
-10.27
-14.69
-18.83
-22.11
-24.12
-24.76
-24.23
-22.92
-21.27
-19.48
-17.46
-14.93
-11.54
-7.14
-1.91
3.59
8.60
12.37
14.42
14.68
13.48
11.50
9.55
8.40
8.62
10.44
13.74
18.05
22.66
26.77
29.64
30.71
29.63
26.35
21.08
14.39
7.09
0.25
-5.14
-8.25
-8.81
-7.17
-4.23
-1.27
0.54
0.39
-1.86
-5.75
-10.38
-14.83
-18.35
-20.45
-21.00
-20.09
-17.94
-15.01
-11.90
-9.32
-7.97
-8.28
-10.24
-13.42
-17.00
-20.03
-21.72
-21.61
-19.64
-16.10
-11.54
-6.49
-1.48
3.17
7.19
10.47
12.94
14.63
15.63
16.07
16.05
15.66
14.97
14.01
12.81
11.40
9.82
8.15
6.48
4.97
3.75
2.96
2.64
2.66
2.84
2.95
2.84
2.46
1.86
1.06
0.10
-1.02
-2.26
-3.57
-4.88
-6.11
-7.29
-8.49
-9.81
-11.28
-12.85
-14.39
-15.78
-17.02
-18.17
-19.35
-20.54
-21.64
-22.39
-22.53
-21.84
-20.19
-17.54
-13.89
-9.32
-3.94
1.87
7.60
12.51
16.02
17.87
18.32
18.07
18.05
18.94
20.89
23.48
25.86
27.14
26.78
24.72
21.38
17.46
13.61
10.19
7.28
4.69
2.23
-0.15
-2.29
-3.93
-4.86
-5.17
-5.27
-5.70
-6.88
-8.83
-11.12
-13.08
-14.10
-13.89
-12.70
-11.11
-9.77
-9.18
-9.51
-10.64
-12.33
-14.35
-16.54
-18.80
-21.00
-22.88
-24.11
-24.32
-23.25
-20.77
-17.02
-12.29
-7.06
-1.87
2.77
6.44
8.92
10.31
10.88
11.05
11.20
11.49
11.89
12.27
12.45
12.43
12.31
12.25
12.38
12.69
13.02
13.23
13.21
12.95
12.49
11.86
10.99
9.75
8.02
5.74
3.05
0.22
-2.46
-4.74
-6.49
-7.76
-8.69
-9.43
-10.19
-11.11
-12.38
-14.11
-16.30
-18.79
-21.22
-23.12
-24.05
-23.77
-22.25
-19.67
-16.33
-12.55
-8.63
-4.78
-1.16
2.15
5.07
7.57
9.60
11.08
11.98
12.25
11.93
11.11
9.99
8.80
7.87
7.45
7.69
8.58
9.90
11.37
12.74
13.90
14.94
15.91
16.83
17.44
17.37
16.24
13.91
10.49
6.35
1.95
-2.29
-6.02
-9.04
-11.18
-12.44
-12.97
-13.16
-13.46
-14.32
-15.90
-17.94
-19.90
-21.16
-21.32
-20.26
-18.15
-15.23
-11.62
-7.38
-2.49
2.83
8.16
12.94
16.65
19.06
20.34
20.90
21.21
21.60
22.11
22.64
23.02
23.13
22.96
22.55
22.02
21.54
21.34
21.65
22.65
24.26
26.11
27.58
28.07
27.16
24.87
21.60
17.97
14.59
11.85
9.84
8.37
7.10
5.54
3.28
0.03
-4.26
-9.32
-14.66
-19.66
-23.78
-26.76
-28.67
-29.83
-30.67
-31.50
-32.43
-33.34
-33.87
-33.63
-32.22
-29.32
-24.84
-19.01
-12.34
-5.67
0.04
3.95
5.55
4.85
2.27
-1.43
-5.39
-8.78
-10.94
-11.47
-10.29
-7.67
-4.14
-0.32
3.24
6.24
8.58
10.20
11.02
10.78
9.25
6.40
2.64
-1.30
-4.49
-6.16
-5.98
-4.13
-1.24
1.84
4.33
5.66
5.58
4.20
1.86
-0.85
-3.26
-4.80
-5.18
-4.40
-2.77
-0.78
1.11
2.53
3.30
3.38
2.78
1.52
-0.49
-3.31
-6.95
-11.26
-15.90
-20.33
-23.95
-26.22
-26.77
-25.50
-22.52
-18.17
-12.86
-7.11
-1.44
3.67
7.87
11.06
13.35
14.95
16.18
17.27
18.33
19.38
20.38
21.28
22.06
22.73
23.28
23.71
23.96
23.99
23.82
23.45
22.87
22.05
20.89
19.22
16.95
14.08
10.87
7.75
5.14
3.33
2.28
1.67
1.09
0.26
-0.85
-1.97
-2.72
-2.91
-2.59
-2.15
-2.08
-2.84
-4.65
-7.44
-10.97
-14.87
-18.79
-22.46
-25.70
-28.44
-30.61
-32.19
-33.16
-33.53
-33.30
-32.47
-31.04
-29.07
-26.72
-24.31
-22.27
-21.07
-20.90
-21.52
-22.22
-22.06
-20.29
-16.61
-11.35
-5.27
0.84
6.41
11.22
15.34
18.98
22.35
25.61
28.84
32.05
35.12
37.82
39.82
40.86
40.84
39.79
37.85
35.14
31.66
27.43
22.52
17.17
11.65
6.26
1.13
-3.78
-8.52
-13.14
-17.48
-21.26
-24.10
-25.75
-26.08
-25.23
-23.45
-21.07
-18.47
-15.91
-13.54
-11.36
-9.25
-7.07
-4.72
-2.19
0.51
3.34
6.27
9.22
11.98
14.28
15.80
16.37
16.06
15.25
14.42
14.03
14.30
15.11
16.02
16.44
15.75
13.51
9.68
4.67
-0.58
-4.88
-7.07
-6.46
-3.09
2.22
8.01
12.59
14.49
12.79
7.45
-0.65
-9.85
-18.12
-23.55
-24.95
-22.20
-16.27
-8.91
-2.07
2.73
4.73
4.02
1.37
-2.17
-5.54
-7.91
-8.85
-8.33
-6.73
-4.81
-3.43
-3.30
-4.71
-7.28
-10.10
-11.99
-11.89
-9.24
-4.18
2.59
9.95
16.73
22.01
25.25
26.31
25.46
23.19
20.18
17.06
14.27
12.03
10.27
8.73
7.09
5.14
2.86
0.51
-1.48
-2.69
-2.92
-2.25
-1.09
0.00
0.53
0.24
-0.81
-2.34
-4.01
-5.59
-7.01
-8.34
-9.71
-11.13
-12.68
-14.38
-16.27
-18.39
-20.69
-22.98
-24.94
-26.18
-26.35
-25.28
-22.98
-19.70
-15.80
-11.66
-7.62
-3.89
-0.64
2.11
4.34
6.10
7.40
8.28
8.75
8.84
8.57
8.01
7.30
6.62
6.14
5.96
6.10
6.47
6.95
7.40
7.71
7.79
7.56
6.93
5.91
4.56
3.07
1.66
0.45
-0.53
-1.40
-2.34
-3.48
-4.87
-6.39
-7.89
-9.28
-10.54
-11.75
-13.05
-14.47
-15.99
-17.48
-18.77
-19.63
-19.83
-19.12
-17.26
-14.04
-9.42
-3.56
3.02
9.59
15.33
19.59
22.14
23.23
23.41
23.36
23.47
23.77
23.94
23.48
22.01
19.42
15.89
11.89
8.00
4.75
2.52
1.49
1.55
2.31
3.24
3.81
3.66
2.66
0.96
-1.12
-3.19
-4.85
-5.86
-6.17
-5.94
-5.54
-5.40
-5.85
-6.96
-8.59
-10.46
-12.39
-14.39
-16.70
-19.55
-22.93
-26.38
-29.02
-29.82
-27.93
-23.01
-15.36
-5.87
4.18
13.43
20.62
24.77
25.24
21.89
15.11
5.91
-4.13
-13.23
-19.73
-22.57
-21.52
-17.12
-10.45
-2.71
5.05
12.22
18.54
24.03
28.76
32.68
35.53
36.87
36.27
33.46
28.56
22.04
14.69
7.30
0.53
-5.17
-9.53
-12.50
-14.18
-14.79
-14.78
-14.69
-14.96
-15.90
-17.49
-19.43
-21.27
-22.58
-23.06
-22.61
-21.28
-19.18
-16.45
-13.18
-9.53
-5.68
-1.94
1.43
4.16
6.14
7.42
8.10
8.35
8.23
7.76
6.96
6.01
5.22
5.01
5.70
7.24
9.13
10.48
10.35
8.22
4.18
-1.07
-6.61
-11.66
-15.88
-19.25
-21.87
-23.66
-24.32
-23.52
-21.16
-17.57
-13.40
-9.53
-6.56
-4.74
-3.85
-3.41
-2.93
-2.03
-0.50
1.77
4.80
8.61
13.07
17.75
21.95
24.75
25.36
23.48
19.51
14.48
9.85
6.97
6.83
9.77
15.35
22.53
29.91
36.12
40.20
41.86
41.42
39.55
36.94
33.88
30.37
26.23
21.43
16.24
11.13
6.53
2.66
-0.56
-3.40
-6.01
-8.29
-9.87
-10.27
-9.19
-6.78
-3.66
-0.73
1.07
1.17
-0.49
-3.52
-7.15
-10.63
-13.37
-15.09
-15.76
-15.45
-14.25
-12.23
-9.46
-6.13
-2.59
0.70
3.21
4.58
4.71
3.80
2.24
0.46
-1.23
-2.84
-4.55
-6.54
-8.87
-11.35
-13.63
-15.33
-16.25
-16.36
-15.77
-14.60
-12.85
-10.55
-7.76
-4.74
-1.84
0.57
2.23
3.11
3.38
3.38
3.45
3.90
4.79
5.89
6.69
6.60
5.34
3.29
1.48
1.31
3.92
9.58
17.48
26.04
33.46
38.41
40.39
39.69
37.11
33.52
29.64
25.71
21.57
16.59
9.89
0.60
-11.70
-26.66
-43.03
-58.89
-72.10
-80.83
-84.08
-81.78
-74.77
-64.47
-52.50
-40.42
-29.48
-20.55
-14.10
-10.19
-8.48
-8.28
-8.57
-8.18
-6.07
-1.67
4.81
12.40
19.57
24.74
26.80
25.37
20.88
14.24
6.62
-0.94
-7.52
-12.44
-15.21
-15.56
-13.59
-9.71
-4.59
0.94
6.12
10.34
13.19
14.52
14.41
13.20
11.53
10.15
9.75
10.71
12.91
15.84
18.68
20.74
21.60
21.19
19.69
17.35
14.37
10.84
6.91
2.84
-0.98
-4.05
-5.95
-6.47
-5.66
-3.86
-1.63
0.47
1.94
2.54
2.32
1.64
1.06
1.21
2.59
5.38
9.50
14.52
19.86
24.92
29.25
32.65
35.15
36.97
38.34
39.44
40.29
40.72
40.52
39.44
37.37
34.34
30.61
26.45
22.06
17.20
11.07
2.41
-10.09
-27.00
-47.58
-69.50
-89.31
-103.27
-108.63
-104.40
-91.56
-72.62
-50.90
-29.64
-11.51
1.66
9.05
10.79
7.97
2.39
-3.82
-8.82
-11.44
-11.45
-9.53
-6.88
-4.83
-4.44
-6.21
-10.00
-15.05
-20.18
-24.16
-25.97
-25.13
-21.75
-16.47
-10.24
-4.00
1.43
5.62
8.43
9.98
10.59
10.62
10.49
10.52
10.89
11.65
12.80
14.34
16.32
18.86
22.01
25.67
29.53
33.04
35.70
37.22
37.64
37.31
36.64
35.78
34.46
32.13
28.18
22.30
14.69
6.05
-2.68
-10.54
-16.73
-20.73
-22.25
-21.37
-18.51
-14.64
-11.15
-9.59
-11.15
-16.24
-24.21
-33.52
-42.27
-48.74
-51.88
-51.47
-47.91
-41.92
-34.38
-26.15
-18.02
-10.70
-4.69
-0.11
3.25
5.74
7.69
9.11
9.77
9.35
7.77
5.39
2.96
1.39
1.57
4.03
8.93
15.99
24.59
33.80
42.51
49.65
54.28
55.84
54.12
49.27
41.71
32.10
21.19
9.83
-1.07
-10.68
-18.22
-23.17
-25.22
-24.44
-21.24
-16.46
-11.16
-6.38
-3.02
-1.57
-2.12
-4.50
-8.30
-13.00
-17.97
-22.53
-26.01
-27.92
-28.01
-26.34
-23.17
-18.87
-13.78
-8.21
-2.43
3.22
8.37
12.68
15.97
18.26
19.78
20.88
21.84
22.83
23.89
24.93
25.83
26.52
26.89
26.87
26.33
25.17
23.41
21.16
18.71
16.33
14.24
12.48
10.93
9.36
7.56
5.45
3.09
0.58
-2.00
-4.64
-7.45
-10.49
-13.72
-16.93
-19.72
-21.67
-22.38
-21.62
-19.42
-16.00
-11.79
-7.26
-2.95
0.76
3.57
5.42
6.35
6.55
6.23
5.63
4.96
4.33
3.82
3.42
3.10
2.78
2.39
1.91
1.34
0.75
0.20
-0.24
-0.60
-0.93
-1.38
-2.06
-3.07
-4.41
-6.00
-7.68
-9.27
-10.63
-11.73
-12.61
-13.38
-14.20
-15.22
-16.56
-18.23
-20.13
-22.09
-23.80
-24.91
-25.05
-23.93
-21.46
-17.79
-13.25
-8.32
-3.46
0.99
4.83
8.02
10.55
12.40
13.50
13.83
13.47
12.61
11.56
10.61
9.92
9.55
9.44
9.52
9.73
10.04
10.37
10.63
10.67
10.34
9.58
8.36
6.73
4.73
2.39
-0.23
-3.01
-5.76
-8.27
-10.40
-12.18
-13.84
-15.71
-18.01
-20.77
-23.72
-26.39
-28.27
-28.89
-28.01
-25.62
-21.86
-17.05
-11.56
-5.83
-0.28
4.65
8.63
11.50
13.34
14.40
15.01
15.48
15.99
16.58
17.14
17.53
17.59
17.27
16.63
15.81
15.05
14.54
14.37
14.50
14.72
14.75
14.37
13.46
12.05
10.26
8.21
5.93
3.40
0.59
-2.47
-5.69
-8.91
-11.94
-14.63
-16.92
-18.86
-20.53
-21.99
-23.22
-24.05
-24.23
-23.50
-21.72
-18.84
-14.99
-10.35
-5.16
0.30
5.64
10.44
14.31
17.00
18.59
19.39
19.87
20.40
21.17
22.10
22.95
23.56
23.85
23.97
24.15
24.55
25.24
26.11
26.95
27.56
27.78
27.55
26.93
25.97
24.67
22.92
20.54
17.35
13.23
8.21
2.45
-3.74
-9.97
-15.83
-20.95
-25.05
-27.98
-29.78
-30.63
-30.78
-30.51
-29.98
-29.26
-28.36
-27.45
-26.83
-26.96
-28.29
-31.04
-35.03
-39.66
-44.06
-47.31
-48.74
-48.19
-46.08
-43.26
-40.70
-39.12
-38.57
-38.35
-37.12
-33.43
-26.41
-16.41
-5.07
5.10
11.88
14.40
13.62
12.09
12.59
16.73
24.01
32.19
38.49
41.19
40.71
39.50
41.23
49.60
67.59
96.93
137.44
186.07
236.26
278.38
301.84
298.74
267.24
212.85
146.82
81.94
27.93
-11.36
-37.75
-56.09
-70.76
-83.65
-94.08
-100.39
-101.95
-100.08
-97.51
-97.06
-100.30
-106.83
-114.80
-122.15
-127.63
-131.40
-134.60
-138.39
-143.04
-147.47
-149.76
-148.13
-141.91
-131.84
-119.69
-107.25
-95.42
-83.93
-71.79
-58.05
-42.50
-25.76
-8.86
7.06
21.12
32.69
41.30
46.71
49.10
49.24
48.22
47.00
45.87
44.36
41.62
37.03
30.68
23.48
16.86
12.20
10.56
12.62
18.62
28.54
41.97
58.12
75.81
93.69
110.35
124.61
135.68
143.14
147.11
148.17
147.26
145.31
143.03
140.59
137.62
133.37
126.95
117.69
105.42
90.49
73.79
56.56
40.07
25.33
12.80
2.33
-6.59
-14.59
-22.03
-28.88
-34.91
-39.90
-43.92
-47.33
-50.76
-54.84
-60.03
-66.62
-74.70
-84.16
-94.64
-105.46
-115.63
-124.19
-130.42
-134.16
-135.76
-135.63
-133.90
-130.16
-123.68
-113.79
-100.61
-85.00
-68.38
-52.08
-36.92
-22.99
-10.00
2.28
13.71
23.79
31.83
37.34
40.23
40.95
40.31
39.28
38.62
38.59
38.68
37.80
34.73
28.87
20.90
12.86
7.41
6.71
11.33
19.93
29.94
38.76
44.85
48.25
50.07
51.62
53.50
55.43
56.49
55.86
53.27
49.00
43.53
37.06
29.31
19.84
8.56
-3.79
-15.66
-25.10
-30.51
-31.21
-27.62
-20.91
-12.48
-3.47
5.48
14.00
21.69
27.97
32.19
34.07
34.12
33.70
34.66
38.67
46.57
58.10
72.00
86.34
98.98
107.92
111.51
108.81
99.82
85.58
68.11
49.88
33.31
20.26
11.72
7.73
7.43
9.19
10.81
10.10
5.31
-4.31
-18.40
-35.67
-54.33
-72.42
-88.16
-100.35
-108.67
-113.97
-118.14
-123.17
-130.16
-138.51
-146.10
-150.47
-150.16
-145.50
-138.22
-130.24
-122.41
-114.28
-104.91
-94.03
-82.64
-72.48
-64.78
-59.23
-54.12
-47.47
-38.54
-28.33
-18.89
-11.60
-5.81
1.09
12.03
27.94
46.54
62.83
71.37
68.98
56.35
37.68
18.63
4.00
-3.95
-5.56
-2.81
2.06
7.24
11.75
15.23
17.46
18.17
17.06
14.10
9.83
5.43
2.05
0.89
2.60
6.97
12.77
18.03
21.02
21.23
19.81
18.35
18.34
20.37
24.07
28.53
33.12
37.91
43.24
48.94
51.90
48.42
36.39
16.57
-7.65
-31.79
-51.86
-65.45
-71.03
-71.25
-68.07
-61.18
-48.67
-29.49
-4.82
22.96
51.32
79.98
103.36
116.48
116.48
103.00
76.84
39.61
-5.37
-53.57
-97.98
-140.74
-184.94
-231.45
-278.06
-321.90
-361.83
-398.73
-436.13
-435.21
-376.21
-266.41
-136.60
-17.51
76.52
146.01
198.17
228.35
246.34
251.33
241.45
218.78
189.77
161.39
137.00
126.36
130.57
149.56
174.51
197.44
214.70
227.18
237.31
246.08
252.33
251.93
242.49
218.06
175.41
116.00
45.34
-29.64
-103.19
-171.70
-234.70
-291.67
-345.41
-398.98
-454.28
-511.16
-566.99
-616.65
-653.10
-670.15
-663.52
-634.68
-589.98
-538.23
-487.40
-442.27
-403.73
-370.02
-339.04
-309.34
-280.88
-254.08
-228.65
-203.31
-176.13
-145.61
-111.44
-74.71
-37.49
-1.85
30.85
60.38
87.42
113.00
137.80
161.52
182.86
199.78
210.27
213.00
207.93
196.40
180.73
163.62
147.35
133.21
121.41
111.31
102.11
93.49
85.79
80.05
77.45
78.67
83.62
91.55
101.51
112.67
123.94
133.79
140.17
141.18
136.21
126.93
117.08
110.94
111.11
116.87
124.35
128.53
125.79
115.59
100.21
82.93
65.83
48.83
30.12
8.00
-17.71
-45.26
-71.76
-94.51
-112.20
-125.12
-134.45
-141.34
-146.11
-148.23
-146.77
-140.97
-130.99
-117.95
-103.61
-89.76
-77.55
-67.12
-57.66
-47.84
-36.49
-23.16
-8.31
6.82
20.80
32.52
41.62
48.66
54.83
61.58
69.99
80.59
93.33
107.64
122.75
137.95
152.71
167.10
182.21
200.44
224.91
257.84
298.51
341.77
378.54
398.30
392.82
358.98
299.60
222.02
135.72
50.18
-26.18
-86.26
-124.76
-139.02
-130.11
-103.00
-65.29
-24.71
13.40
47.19
77.43
105.46
131.48
153.74
169.41
176.37
174.39
165.46
152.85
139.54
127.15
115.64
104.17
92.29
80.69
71.01
64.81
62.39
62.27
61.66
57.68
48.74
35.23
19.40
4.38
-6.93
-12.69
-12.50
-7.02
2.44
14.46
27.73
40.98
52.90
62.26
68.08
69.91
68.13
63.73
58.04
52.33
47.50
43.98
41.81
40.84
40.81
41.39
42.21
42.86
42.97
42.34
41.06
39.43
37.90
36.70
35.70
34.34
31.92
27.98
22.51
16.08
9.46
3.30
-2.05
-6.62
-10.63
-14.25
-17.56
-20.67
-23.69
-26.81
-30.10
-33.27
-35.60
-36.00
-33.51
-27.62
-18.70
-7.88
3.19
12.87
19.96
24.04
25.44
24.89
23.13
20.61
17.42
13.45
8.78
3.86
-0.51
-3.36
-4.02
-2.46
0.71
4.38
7.37
8.88
8.74
7.42
5.82
4.99
5.77
8.62
13.32
18.75
22.84
22.94
16.73
3.46
-15.29
-35.81
-53.43
-64.34
-66.94
-62.26
-53.06
-42.52
-32.96
-25.53
-20.45
-17.62
-16.88
-17.88
-19.82
-21.38
-21.06
-17.81
-11.44
-2.65
7.21
16.73
24.75
30.62
34.15
35.47
34.87
32.78
29.74
26.46
23.78
22.43
22.81
24.84
27.93
31.29
34.26
36.39
37.57
37.83
37.26
