1564669062.00
64.000000
-0.00
-0.00
-0.00
-0.00
-0.00
-0.00
-0.00
-0.00
-0.00
-0.00
0.00
0.01
0.01
-0.00
-0.03
-0.05
-0.05
0.00
0.13
0.36
0.66
1.01
1.37
1.72
2.06
2.40
2.79
3.24
3.80
4.43
5.07
5.69
6.26
6.79
7.34
7.99
8.79
9.84
11.05
12.33
13.54
14.64
15.68
16.82
18.26
20.16
22.74
25.81
29.09
32.30
35.27
38.08
41.07
44.67
49.21
55.08
61.92
69.23
76.43
83.18
89.58
96.13
103.56
112.41
123.25
135.56
148.55
161.35
173.41
184.80
196.19
208.92
221.75
236.96
255.16
276.43
299.59
321.74
338.58
345.53
339.24
318.91
286.95
247.23
204.01
160.48
118.12
77.15
37.39
-0.88
-36.84
-69.14
-97.14
-120.93
-141.09
-158.19
-172.42
-183.58
-191.12
-194.70
-194.19
-190.38
-184.46
-177.77
-171.45
-165.77
-160.53
-155.11
-148.91
-141.50
-133.06
-124.23
-115.95
-109.11
-104.32
-101.69
-100.79
-100.88
-101.24
-101.62
-102.26
-103.93
-107.55
-113.85
-122.83
-133.62
-144.73
-154.57
-162.08
-166.91
-169.70
-171.56
-173.64
-176.27
-178.81
-180.06
-178.83
-174.78
-168.60
-162.22
-158.48
-160.92
-173.34
-199.02
-239.81
-294.50
-358.16
-422.30
-477.61
-515.55
-532.75
-531.29
-517.04
-496.50
-473.90
-452.15
-430.65
-407.82
-382.82
-356.09
-328.48
-299.67
-268.79
-234.79
-197.37
-157.16
-115.96
-76.12
-39.56
-6.90
22.64
50.60
78.57
107.47
137.49
167.83
197.24
224.53
249.13
271.27
292.05
313.33
337.20
365.11
396.67
428.98
457.21
476.28
482.88
476.74
460.39
437.56
411.20
382.37
350.77
316.32
280.47
246.28
216.95
193.94
176.09
160.36
143.78
125.35
106.56
90.20
78.58
71.97
68.58
65.85
62.03
57.03
52.10
48.51
46.24
43.51
37.61
26.45
10.23
-8.05
-23.65
-32.40
-32.86
-27.37
-21.05
-19.28
-24.85
-36.43
-49.31
-57.88
-58.61
-51.80
-40.97
-30.69
-23.96
-20.93
-19.47
-17.15
-13.09
-8.68
-6.58
-8.87
-15.48
-23.78
-29.81
-30.36
-24.67
-14.89
-4.79
2.22
4.94
4.81
4.82
7.47
13.12
19.56
23.19
21.15
13.10
1.63
-9.01
-15.04
-14.99
-10.28
-4.19
0.09
1.24
0.36
0.07
2.69
8.59
15.78
20.91
21.27
16.39
8.49
1.38
-1.61
0.61
6.29
11.83
13.78
10.76
4.28
-2.15
-4.97
-2.54
3.83
10.63
14.01
11.89
5.07
-3.21
-8.92
-9.22
-3.77
5.57
16.00
25.48
33.57
41.09
48.78
55.87
59.80
57.03
45.20
24.83
-0.07
-23.38
-39.28
-44.71
-40.45
-30.24
-18.70
-8.97
-1.70
4.33
10.53
16.96
21.88
22.77
18.04
8.49
-2.79
-11.73
-15.27
-12.88
-6.82
-0.89
1.42
-1.19
-7.28
-13.45
-16.23
-13.84
-7.12
0.90
6.79
8.44
6.23
2.59
0.40
1.17
4.10
6.68
6.29
1.98
-4.91
-11.50
-15.13
-14.86
-12.00
-9.21
-8.93
-11.87
-16.58
-20.26
-20.26
-15.57
-7.27
1.93
9.09
12.40
11.95
9.42
7.00
6.10
6.56
6.86
5.20
0.72
-5.68
-11.77
-15.16
-14.73
-11.26
-7.01
-4.34
-4.25
-5.81
-6.83
-5.36
-1.13
4.22
8.09
8.56
5.56
0.98
-2.58
-3.31
-1.26
1.82
3.46
2.02
-2.57
-8.62
-13.65
-15.63
-13.89
-9.51
-4.58
-1.13
-0.08
-0.78
-1.59
-1.04
1.10
3.52
4.08
1.21
-4.95
-12.34
-17.98
-19.51
-16.49
-10.63
-4.85
-1.67
-1.94
-4.57
-7.35
-8.31
-6.88
-4.04
-1.58
-0.89
-2.04
-3.78
-4.38
-2.75
0.94
5.35
8.77
10.21
9.96
9.54
10.89
15.30
22.83
32.38
42.43
52.01
61.13
70.60
81.30
93.14
104.81
114.38
120.54
123.76
126.53
132.33
143.98
162.41
186.17
211.97
236.19
256.17
270.94
281.62
289.63
295.64
298.93
297.47
288.76
270.99
243.67
208.57
168.94
128.36
89.49
53.22
18.60
-16.68
-55.49
-100.45
-152.84
-211.30
-270.58
-321.47
-352.92
-356.29
-329.92
-281.23
-224.92
-177.32
-149.90
-145.44
-158.55
-179.89
-201.34
-218.93
-232.42
-243.35
-253.15
-262.81
-273.35
-285.76
-299.44
-310.52
-311.83
-295.36
-256.64
-198.17
-129.92
-65.72
-17.84
7.52
11.38
-0.38
-21.02
-45.79
-72.30
-98.79
-122.37
-138.58
-143.31
-135.22
-117.53
-97.15
-81.77
-76.49
-81.95
-94.70
-109.03
-119.34
-121.90
-115.34
-100.24
-78.47
-52.46
-23.86
6.10
37.21
70.25
106.29
145.50
186.55
226.48
261.74
289.63
309.11
320.91
326.55
327.23
323.43
315.20
302.75
286.72
268.61
250.10
232.73
217.39
203.99
191.64
179.29
165.89
150.71
133.42
113.82
91.78
67.70
40.83
10.19
-24.66
-63.51
-105.52
-149.30
-193.06
-234.92
-273.00
-305.66
-331.64
-349.49
-357.89
-355.83
-342.80
-318.94
-285.19
-243.17
-193.23
-138.45
-82.55
-29.13
18.92
59.60
91.93
115.83
131.84
140.96
144.15
142.78
138.26
131.81
124.40
116.69
109.06
101.71
94.68
87.68
80.72
73.88
67.30
61.09
55.31
50.00
45.11
40.56
36.17
31.88
27.74
23.83
20.21
16.93
14.01
11.40
9.03
6.75
4.52
2.35
0.30
-1.55
-3.14
-4.44
-5.48
-6.35
-7.15
-7.93
-8.70
-9.40
-9.95
-10.27
-10.37
-10.14
-9.80
-9.52
-9.41
-9.46
-9.60
-9.66
-9.49
-9.04
-8.40
-7.87
-7.72
-8.15
-9.14
-10.39
-11.47
-11.98
-11.76
-11.05
-10.42
-10.51
-11.76
-14.11
-17.01
-19.59
-21.07
-21.14
-20.22
-19.28
-19.45
-21.45
-25.22
-29.90
-34.11
-36.80
-37.51
-36.70
-35.48
-35.02
-36.25
-39.76
-45.87
-54.33
-63.71
-71.02
-72.10
-63.18
-42.88
-13.61
18.89
47.59
67.16
75.95
76.08
71.64
66.33
61.85
57.88
53.43
48.09
42.66
38.54
36.74
37.07
38.29
38.80
37.29
33.59
28.55
23.65
20.30
19.23
20.22
22.24
23.90
24.08
22.39
19.30
15.95
13.60
13.17
14.79
17.83
21.07
23.30
23.76
22.51
20.46
18.89
19.03
21.40
25.65
30.59
34.75
37.18
37.60
36.68
35.64
35.62
37.40
41.43
47.86
56.39
65.61
72.63
73.58
65.01
45.80
18.45
-11.47
-37.35
-54.31
-61.04
-59.74
-54.33
-48.17
-42.76
-37.71
-32.09
-25.66
-19.25
-14.25
-11.53
-10.93
-11.31
-11.37
-10.13
-7.64
-4.74
-2.62
-2.21
-3.59
-6.11
-8.60
-9.94
-9.49
-7.42
-4.54
-1.96
-0.71
-1.22
-3.45
-6.88
-10.89
-14.89
-18.61
-21.90
-24.21
-25.92
-26.90
-26.90
-26.28
-24.62
-22.01
-18.81
-15.55
-12.71
-10.70
-9.67
-9.61
-9.65
-10.24
-11.31
-12.70
-14.16
-15.41
-16.27
-16.54
-16.21
-15.44
-14.57
-13.86
-13.48
-13.37
-13.33
-13.03
-12.21
-10.89
-9.36
-8.10
-7.55
-7.95
-9.17
-10.98
-12.44
-12.97
-12.38
-11.05
-9.73
-9.24
-10.11
-12.29
-15.14
-17.84
-19.43
-19.44
-17.91
-15.45
-13.14
-12.51
-15.12
-21.56
-30.66
-38.90
-41.21
-32.97
-12.26
18.97
55.36
90.03
116.69
131.18
131.82
119.02
94.87
62.91
27.85
-4.97
-30.84
-47.06
-53.63
-52.89
-48.32
-43.15
-39.50
-38.62
-40.83
-45.75
-52.38
-59.13
-64.32
-66.88
-66.95
-65.66
-64.88
-66.37
-71.42
-80.53
-92.89
-106.02
-115.95
-118.15
-109.29
-89.16
-61.32
-32.14
-8.39
5.42
8.63
4.03
-4.23
-12.83
-20.58
-28.03
-36.04
-44.74
-53.02
-59.13
-61.76
-60.64
-56.44
-50.17
-42.67
-33.65
-22.35
-7.98
9.84
30.54
52.69
74.29
93.43
108.03
117.99
123.92
126.73
127.42
126.67
124.73
121.53
117.08
111.97
106.30
100.49
95.06
90.37
86.47
83.23
80.22
77.10
73.59
69.56
64.95
59.73
53.84
47.16
39.98
31.87
22.84
13.07
2.86
-7.37
-17.22
-26.31
-34.28
-40.86
-45.95
-49.41
-51.22
-51.55
-50.57
-48.57
-45.86
-42.79
-39.69
-36.93
-34.66
-33.04
-32.18
-32.14
-32.96
-34.61
-37.04
-40.15
-43.85
-47.78
-51.59
-55.10
-58.09
-60.47
-62.21
-63.41
-64.32
-65.30
-66.28
-67.35
-68.72
-70.53
-72.95
-76.11
-80.09
-84.98
-90.92
-97.22
-103.40
-109.12
-114.11
-118.23
-121.48
-124.03
-126.20
-128.54
-130.59
-132.19
-133.26
-133.65
-133.11
-131.13
-126.67
-117.84
-109.21
-101.95
-96.52
-92.86
-90.58
-89.12
-87.88
-86.46
-84.65
-82.60
-79.48
-74.87
-68.47
-60.10
-49.76
-37.73
-24.58
-11.14
1.61
13.66
25.05
36.05
47.09
58.49
70.28
82.05
93.01
102.22
109.59
115.40
120.48
126.00
133.05
142.23
153.51
166.35
180.08
194.61
210.33
228.13
249.26
275.04
306.62
344.73
389.00
437.41
486.14
529.87
562.91
580.72
580.96
563.65
530.55
484.14
427.29
363.47
297.23
234.01
179.29
137.13
108.87
92.71
84.31
77.94
67.80
49.20
19.77
-19.44
-63.75
-105.74
-137.52
-153.51
-152.48
-137.80
-115.96
-94.01
-77.35
-68.66
-68.17
-74.39
-84.96
-97.05
-107.86
-115.32
-118.84
-119.78
-120.85
-124.76
-132.88
-144.95
-159.45
-174.41
-187.96
-198.26
-203.75
-203.94
-200.65
-198.96
-206.74
-232.37
-280.97
-351.15
-433.94
-514.91
-578.72
-613.96
-616.32
-588.73
-539.03
-476.34
-408.26
-339.10
-270.24
-201.12
-130.82
-59.16
12.57
81.57
143.83
194.84
230.67
249.03
250.20
237.34
215.69
191.21
169.11
152.70
143.48
140.97
143.23
147.57
151.28
152.25
149.38
142.81
133.82
124.75
118.14
115.90
118.60
125.40
134.10
141.88
146.23
145.62
140.38
132.11
122.53
112.73
102.99
92.69
80.37
64.28
42.92
17.19
-11.49
-41.96
-73.17
-102.96
-127.46
-141.76
-141.63
-125.40
-92.25
-46.55
2.37
43.96
72.01
87.49
97.09
108.75
127.52
158.36
199.93
244.87
283.92
311.59
327.92
336.11
338.99
337.93
340.45
352.89
377.48
411.65
450.39
487.52
515.84
528.01
478.84
351.48
168.39
-21.35
-177.16
-284.84
-349.79
-384.27
-400.04
-405.17
-398.55
-380.32
-355.65
-332.74
-316.64
-305.65
-293.19
-273.29
-242.13
-195.78
-137.32
-77.59
-31.31
-10.02
-17.67
-51.05
-103.67
-166.75
-228.11
-277.30
-307.69
-316.80
-304.72
-273.47
-220.74
-151.63
-74.50
2.41
70.44
120.91
146.69
144.85
118.52
76.67
30.16
-10.52
-38.65
-53.41
-58.73
-59.79
-59.42
-56.87
-49.30
-35.41
-16.11
5.16
23.96
36.98
43.44
45.20
45.27
46.19
48.19
49.73
48.47
42.52
31.50
16.67
0.44
-14.74
-27.16
-36.48
-43.12
-47.77
-51.19
-54.44
-59.52
-69.35
-86.84
-112.98
-145.36
-177.92
-202.88
-213.93
-209.24
-192.48
-171.04
-152.46
-141.10
-136.70
-135.54
-133.13
-126.92
-117.31
-106.96
-98.55
-93.05
-88.98
-83.24
-72.70
-55.77
-33.16
-7.50
17.96
40.74
59.81
75.49
88.67
100.03
109.56
116.86
121.64
124.13
125.21
126.04
127.26
128.08
125.81
116.44
96.65
66.11
28.90
-7.20
-33.40
-43.45
-35.77
-13.42
18.05
53.13
87.70
118.81
143.57
158.75
161.51
151.00
129.29
101.18
72.39
47.57
28.94
16.17
7.10
-0.98
-10.23
-21.55
-34.37
-46.94
-57.13
-63.32
-65.08
-63.16
-58.77
-52.92
-46.11
-38.58
-30.62
-22.81
-15.67
-9.20
-2.77
4.46
12.91
22.08
30.71
37.46
41.58
43.20
42.99
41.67
39.80
37.77
36.11
35.51
36.63
39.69
44.17
48.93
52.50
53.58
51.33
45.71
37.38
27.58
17.78
9.27
2.79
-1.64
-4.63
-7.13
-10.09
-14.17
-19.68
-26.49
-34.03
-41.20
-46.39
-47.79
-44.02
-34.69
-20.75
-4.36
11.84
25.55
35.45
41.43
44.24
44.97
44.55
43.51
42.03
40.15
38.00
35.82
33.88
32.32
31.09
29.98
28.82
27.50
26.09
24.73
23.50
22.41
21.37
20.30
19.12
17.79
16.30
14.66
12.90
11.10
9.41
7.85
6.38
4.74
2.65
-0.05
-3.22
-6.47
-9.35
-11.65
-13.65
-16.01
-19.44
-24.22
-29.84
-34.99
-37.98
-37.36
-32.46
-23.69
-12.35
-0.18
11.23
20.77
27.95
32.79
35.57
36.63
36.34
35.09
33.28
31.30
29.42
27.79
26.39
25.15
23.95
22.76
21.58
20.43
19.31
18.20
17.02
15.63
13.90
11.73
9.10
6.06
2.75
-0.67
-4.06
-7.30
-10.25
-12.86
-15.06
-16.91
-18.55
-20.25
-22.31
-24.97
-28.42
-32.64
-37.41
-42.19
-46.12
-48.12
-47.11
-42.42
-34.11
-23.13
-11.06
0.32
9.58
16.01
19.71
21.31
21.62
21.35
20.91
20.51
20.24
20.17
20.39
20.92
21.71
22.61
23.43
24.09
24.58
24.99
25.40
25.75
25.78
25.15
23.53
20.78
17.05
12.76
8.42
4.40
0.85
-2.37
-5.52
-8.79
-12.15
-15.27
-17.75
-19.28
-19.86
-19.85
-19.88
-20.58
-22.49
-25.76
-30.18
-35.07
-39.35
-41.71
-40.99
-36.46
-28.19
-17.07
-4.62
7.41
17.59
25.10
29.81
32.11
32.66
32.08
30.89
29.39
27.78
26.16
24.53
22.87
21.13
19.29
17.39
15.55
13.96
12.84
12.35
12.57
13.40
14.52
15.50
15.86
15.31
13.81
11.61
9.09
6.62
4.36
2.20
-0.13
-2.88
-6.16
-9.78
-13.38
-16.51
-18.84
-20.28
-21.02
-21.45
-22.10
-23.45
-25.84
-29.29
-33.39
-37.26
-39.75
-39.69
-36.32
-29.65
-20.49
-10.23
-0.46
7.57
13.20
16.38
17.48
17.04
15.57
13.50
11.24
9.17
7.60
6.77
6.70
7.26
8.12
9.00
9.70
10.21
10.62
11.09
11.69
12.33
12.80
12.80
12.13
10.70
8.66
6.26
3.82
1.56
-0.48
-2.43
-4.46
-6.71
-9.13
-11.48
-13.50
-14.98
-15.95
-16.74
-17.78
-19.53
-22.20
-25.67
-29.38
-32.48
-33.90
-32.64
-27.99
-19.83
-8.79
3.84
16.39
27.31
35.51
40.64
42.97
43.18
42.04
40.22
38.27
36.64
35.73
35.76
36.81
38.80
41.50
44.76
48.52
52.85
57.82
63.30
68.88
73.92
77.71
79.81
80.21
79.28
77.51
74.94
70.95
64.33
53.67
38.12
17.91
-5.53
-30.02
-52.97
-71.45
-82.06
-81.03
-65.47
-34.31
10.43
63.21
115.70
158.94
185.93
193.97
185.43
166.13
143.70
125.59
117.89
124.78
148.38
187.97
239.63
295.87
345.87
378.96
388.30
373.29
339.38
295.79
251.23
211.47
178.17
147.41
114.86
79.10
42.20
7.28
-23.18
-50.41
-76.93
-105.35
-142.02
-190.27
-247.33
-305.45
-356.46
-393.84
-418.12
-431.91
-438.81
-450.05
-474.48
-513.18
-559.61
-605.07
-639.97
-661.85
-668.91
-660.77
-649.44
-647.78
-661.97
-690.02
-726.56
-763.17
-798.59
-830.67
-793.49
-651.65
-422.97
-168.25
56.29
204.11
298.61
359.59
398.43
419.18
419.14
394.96
352.43
304.99
264.68
239.72
225.49
224.30
236.15
251.65
260.94
260.61
254.41
247.92
247.20
251.03
257.89
265.60
267.66
259.06
240.20
216.49
194.20
179.16
171.36
169.33
170.38
169.67
163.43
151.11
135.04
118.18
103.52
91.30
81.34
73.00
64.92
55.83
45.09
32.89
19.89
7.95
-0.54
-2.19
6.01
25.43
54.84
90.70
128.14
162.12
188.41
203.02
201.62
181.21
141.29
84.60
17.18
-52.82
-117.21
-170.03
-209.00
-235.39
-252.47
-264.06
-272.89
-280.01
-284.93
-286.35
-283.00
-274.24
-260.22
-241.65
-219.71
-195.87
-171.69
-148.66
-128.12
-111.13
-98.28
-89.62
-84.55
-82.24
-81.84
-82.80
-84.65
-86.74
-87.91
-86.42
-80.40
-68.56
-51.02
-29.54
-7.07
13.22
29.06
39.84
46.53
51.10
55.55
61.09
67.86
75.18
82.08
87.79
91.99
94.69
96.01
95.98
94.55
91.71
87.57
82.33
76.03
68.31
58.39
45.48
29.31
10.68
-8.53
-25.79
-38.78
-46.12
-47.83
-45.11
-39.71
-33.22
-26.68
-20.45
-14.43
-8.37
-1.96
5.03
12.77
21.08
29.22
35.78
38.89
36.85
28.86
15.55
-0.96
-17.52
-30.93
-38.85
-40.46
-36.53
-28.97
-20.10
-11.76
-4.83
0.98
6.77
13.76
22.47
32.36
41.82
48.86
51.94
50.54
45.36
37.95
30.11
23.50
19.39
18.57
21.32
27.20
34.91
42.52
47.89
49.49
46.90
40.96
33.32
25.83
19.97
16.72
16.63
19.87
26.23
34.96
44.67
53.46
59.33
60.71
56.85
48.03
35.38
20.56
5.36
-8.70
-20.46
-29.26
-34.82
-37.25
-36.99
-34.95
-32.40
-30.89
-31.88
-36.28
-44.08
-54.16
-64.54
-72.84
-76.94
-75.49
-68.29
-56.31
-41.37
-25.61
-10.87
1.73
12.03
20.47
27.74
34.29
40.15
44.99
48.55
50.79
52.00
52.66
53.19
53.82
54.54
55.22
55.77
56.17
56.49
56.81
57.14
57.35
57.20
56.45
55.06
53.16
51.10
49.23
47.73
46.49
45.16
43.35
40.80
37.44
33.38
28.84
24.06
19.30
14.81
10.68
6.75
2.56
-2.43
-8.55
-15.53
-22.39
-27.60
-29.68
-27.68
-21.61
-12.48
-1.88
8.45
17.14
23.51
27.58
29.82
30.83
31.10
30.92
30.44
29.82
29.25
28.96
29.07
29.53
30.05
30.32
30.05
29.19
27.97
26.76
25.99
25.90
26.37
26.96
27.02
25.96
23.56
20.12
16.39
13.26
11.30
10.47
10.09
9.14
6.75
2.60
-2.87
-8.84
-14.48
-19.46
-24.11
-29.14
-35.07
-41.65
-47.65
-51.15
-50.32
-44.06
-32.46
-16.68
1.54
20.29
37.66
51.71
60.49
62.41
56.98
45.47
30.95
17.50
8.71
6.17
8.88
13.83
17.65
18.41
16.71
15.17
16.87
23.42
33.96
45.56
54.85
59.85
60.82
59.69
58.49
57.83
56.28
51.23
40.33
22.87
0.15
-25.16
-50.20
-72.79
-91.77
-106.59
-116.83
-122.00
-121.68
-116.05
-106.26
-94.36
-82.72
-73.21
-66.51
-62.09
-58.62
-54.80
-49.98
-44.18
-37.76
-30.82
-23.10
-14.20
-4.19
5.96
14.57
19.82
20.73
17.58
11.85
5.49
0.15
-3.30
-4.71
-4.27
-2.04
2.18
8.65
17.22
27.08
36.71
44.30
48.26
47.65
42.31
32.80
20.23
6.03
-8.08
-20.27
-28.73
-32.02
-29.53
-21.86
-10.87
0.67
9.80
14.29
13.25
7.15
-2.46
-13.63
-24.43
-33.15
-38.25
-38.36
-32.57
-20.82
-4.32
14.59
32.92
47.92
57.78
62.02
61.24
56.65
49.58
41.13
32.23
23.78
16.84
12.65
12.43
17.08
26.79
40.83
57.43
73.99
87.63
95.85
97.10
91.15
79.06
62.70
44.19
25.31
7.26
-9.39
-24.38
-37.62
-49.00
-58.43
-65.81
-70.96
-73.48
-72.86
-68.74
-61.27
-51.28
-40.22
-29.74
-21.23
-15.62
-13.16
-13.51
-15.72
-18.26
-19.19
-16.58
-9.16
3.08
18.70
35.09
49.25
58.75
62.34
60.09
53.16
43.22
31.88
20.39
9.56
-0.21
-8.62
-15.39
-20.17
-22.67
-22.89
-21.16
-18.19
-14.80
-11.67
-9.06
-6.76
-4.22
-0.82
3.77
9.31
15.06
20.03
23.41
24.84
24.56
23.17
21.40
19.84
18.96
19.11
20.47
23.03
26.42
29.89
32.50
33.42
32.24
29.18
25.00
20.71
17.17
14.77
13.37
12.48
11.56
10.32
8.85
7.49
6.65
6.49
6.96
7.86
9.05
10.53
12.28
14.12
15.44
15.43
13.33
8.78
1.99
-6.27
-15.05
-23.46
-30.95
-37.27
-42.40
-46.42
-49.31
-50.99
-51.33
-50.27
-47.92
-44.62
-40.90
-37.40
-34.80
-33.81
-35.03
-38.98
-45.90
-55.59
-67.24
-79.43
-90.24
-97.74
-100.42
-97.72
-90.16
-79.16
-66.57
-54.10
-42.89
-33.35
-25.30
-18.28
-11.90
-6.00
-0.74
3.58
6.68
8.50
9.21
9.28
9.27
9.83
11.50
14.73
19.87
27.18
36.74
48.29
61.01
73.44
83.85
90.57
92.62
89.90
83.23
73.90
63.25
52.39
42.06
32.74
24.85
18.64
14.22
11.30
9.20
6.94
3.59
-1.53
-8.51
-16.86
-25.58
-33.36
-38.92
-41.33
-40.23
-35.96
-29.38
-21.62
-13.73
-6.43
-0.04
5.38
9.95
13.71
16.60
18.45
19.09
18.44
16.55
13.70
10.27
6.67
3.23
0.10
-2.66
-5.10
-7.24
-9.11
-10.73
-12.17
-13.51
-14.76
-15.84
-16.53
-16.62
-15.96
-14.65
-12.93
-11.21
-9.85
-9.04
-8.71
-8.55
-8.10
-6.89
-4.65
-1.53
1.89
4.77
6.24
5.79
3.52
0.09
-3.44
-6.02
-6.98
-6.22
-4.15
-1.53
0.83
2.30
2.52
1.46
-0.56
-2.82
-4.38
-4.42
-2.66
0.39
3.55
5.44
5.26
3.10
-0.09
-3.12
-5.27
-6.62
-7.86
-9.63
-11.94
-13.97
-14.55
-12.88
-9.15
-4.59
-0.90
0.55
-0.67
-3.78
-7.21
-9.36
-9.21
-6.63
-2.22
3.03
8.25
12.80
16.37
18.74
19.71
18.98
16.16
10.89
2.99
-7.39
-19.48
-31.96
-43.09
-51.22
-55.20
-54.71
-50.24
-42.77
-33.43
-23.22
-12.96
-3.39
4.80
11.14
15.50
18.24
20.10
21.98
24.56
28.03
32.07
35.96
38.83
39.91
38.76
35.33
29.96
23.23
15.80
8.28
1.18
-5.18
-10.56
-14.89
-18.17
-20.46
-21.80
-22.16
-21.41
-19.33
-15.75
-10.68
-4.30
2.98
10.62
17.98
24.41
29.24
31.86
31.88
29.23
24.24
17.50
9.79
1.83
-5.87
-13.03
-19.54
-25.35
-30.37
-34.42
-37.21
-38.35
-37.44
-34.09
-28.15
-19.82
-9.75
1.01
11.28
19.99
26.49
30.65
32.74
33.20
32.44
30.66
27.86
24.06
19.40
14.25
9.08
4.39
0.57
-2.21
-4.00
-4.98
-5.38
-5.40
-5.20
-4.84
-4.38
-3.86
-3.33
-2.86
-2.50
-2.28
-2.19
-2.21
-2.34
-2.60
-3.02
-3.64
-4.44
-5.37
-6.32
-7.23
-8.06
-8.86
-9.69
-10.67
-11.84
-13.21
-14.70
-16.18
-17.55
-18.70
-19.59
-20.25
-20.71
-21.03
-21.18
-20.98
-20.12
-18.22
-15.03
-10.61
-5.39
-0.10
4.42
7.59
9.25
9.74
9.64
9.50
9.51
9.52
9.17
8.26
6.85
5.34
4.13
3.45
3.19
2.98
2.41
1.26
-0.35
-2.08
-3.54
-4.51
-5.00
-5.22
-5.55
-6.29
-7.66
-9.63
-11.89
-13.92
-15.07
-14.80
-12.87
-9.57
-5.70
-2.37
-0.68
-1.32
-4.25
-8.59
-12.87
-15.32
-14.45
-9.46
-0.53
11.18
23.80
35.25
43.75
48.30
48.77
45.85
40.64
34.28
27.60
20.97
14.42
7.92
1.56
-4.26
-8.92
-11.83
-12.64
-11.42
-8.69
-5.19
-1.67
1.28
3.31
4.26
4.10
2.93
0.99
-1.31
-3.41
-4.77
-5.07
-4.30
-2.85
-1.31
-0.37
-0.44
-1.69
-3.92
-6.70
-9.58
-12.14
-14.13
-15.52
-16.39
-16.88
-17.13
-17.19
-17.13
-16.98
-16.81
-16.71
-16.73
-16.91
-17.22
-17.65
-18.21
-18.89
-19.53
-19.78
-19.15
-17.11
-13.35
-8.02
-1.76
4.45
9.60
12.99
14.48
14.40
13.38
12.03
10.80
9.85
9.18
8.77
8.63
8.80
9.26
9.89
10.44
10.67
10.45
9.82
9.00
8.17
7.54
7.08
6.73
6.36
5.84
5.07
3.98
2.58
0.91
-0.83
-2.44
-3.74
-4.67
-5.33
-5.96
-6.74
-7.75
-8.87
-9.88
-10.61
-10.99
-11.15
-11.33
-11.83
-12.85
-14.44
-16.45
-18.51
-20.05
-20.43
-19.12
-15.96
-11.27
-5.81
-0.49
3.91
7.04
9.01
10.17
10.85
11.22
11.23
10.77
9.81
8.48
7.00
5.54
4.15
2.79
1.47
0.22
-0.86
-1.67
-2.19
-2.46
-2.53
-2.40
-2.10
-1.62
-1.04
-0.49
-0.13
-0.07
-0.40
-1.18
-2.40
-4.00
-5.79
-7.43
-8.60
-9.11
-9.01
-8.64
-8.43
-8.72
-9.56
-10.68
-11.67
-12.15
-11.96
-11.31
-10.60
-10.28
-10.67
-11.78
-13.29
-14.66
-15.21
-14.38
-11.88
-7.76
-2.42
3.53
9.45
14.78
19.16
22.37
24.43
25.39
25.36
24.50
22.95
20.97
18.86
16.95
15.51
14.65
14.29
14.17
14.07
13.81
13.39
12.86
12.32
11.79
11.24
10.57
9.66
8.37
6.54
4.06
0.97
-2.38
-5.38
-7.33
-7.74
-6.59
-4.40
-2.05
-0.40
0.01
-0.92
-2.89
-5.46
-8.25
-10.97
-13.49
-15.71
-17.54
-18.95
-19.95
-20.57
-20.83
-20.59
-19.57
-17.49
-14.15
-9.71
-4.66
0.26
4.32
7.06
8.47
9.01
9.44
10.47
12.50
15.42
18.70
21.61
23.56
24.25
23.75
22.36
20.44
18.36
16.49
15.15
14.59
14.87
15.68
16.36
16.07
14.13
10.31
4.94
-1.25
-7.35
-12.62
-16.58
-19.07
-20.15
-19.97
-18.75
-16.78
-14.42
-12.06
-10.08
-8.66
-7.77
-7.13
-6.40
-5.42
-4.30
-3.58
-3.97
-6.16
-10.50
-16.70
-23.83
-30.52
-35.24
-36.80
-34.68
-29.16
-21.25
-12.31
-3.68
3.69
9.35
13.35
15.98
17.64
18.62
19.15
19.31
19.17
18.72
17.94
16.80
15.28
13.40
11.20
8.79
6.40
4.26
2.64
1.66
1.33
1.49
1.94
2.52
3.17
3.95
4.92
6.08
7.19
7.88
7.74
6.43
3.89
0.31
-3.87
-8.12
-11.99
-15.27
-18.09
-20.78
-23.79
-27.39
-31.46
-35.51
-38.80
-40.71
-41.08
-40.32
-39.49
-39.98
-42.85
-48.31
-55.52
-62.84
-68.39
-70.61
-68.84
-63.69
-56.94
-50.94
-47.48
-46.72
-46.71
-43.48
-31.86
-6.76
35.04
92.99
162.42
235.21
301.61
352.64
382.55
390.33
379.54
356.60
327.26
296.00
265.75
238.23
214.08
193.20
174.98
158.49
142.59
124.03
100.67
72.91
43.51
15.60
-8.84
-29.59
-47.88
-65.65
-88.04
-118.32
-155.41
-194.32
-229.15
-255.98
-273.94
-284.81
-291.90
-303.06
-323.67
-353.60
-387.86
-420.48
-447.89
-469.57
-486.95
-473.72
-415.33
-317.44
-203.19
-95.61
-6.70
60.81
108.90
142.07
166.54
184.46
196.78
206.73
217.04
228.10
237.62
242.75
242.22
236.90
225.40
207.06
182.89
156.05
130.19
107.80
90.15
77.59
69.65
62.97
54.44
43.08
30.18
18.17
9.11
4.15
3.30
5.39
7.19
5.32
-2.21
-15.36
-32.34
-50.59
-67.60
-81.71
-92.52
-101.20
-109.38
-118.17
-127.82
-137.95
-147.94
-156.82
-163.14
-164.75
-159.11
-144.20
-119.28
-85.57
-46.02
-4.35
36.12
73.33
106.50
135.77
161.45
183.66
202.30
217.14
228.12
235.28
238.59
237.71
232.10
221.34
205.49
185.34
162.19
137.55
112.75
88.86
66.82
47.55
32.03
21.04
14.76
12.60
13.19
14.90
16.33
16.76
16.21
15.14
14.07
13.21
12.39
11.20
9.27
6.71
4.25
3.08
4.27
8.23
14.42
21.45
27.73
32.11
34.29
34.68
33.96
32.60
30.80
28.52
25.72
22.19
17.22
9.41
-2.95
-20.98
-44.41
-71.25
-98.45
-123.04
-143.24
-158.89
-171.04
-181.08
-189.91
-197.81
-204.58
-210.03
-214.16
-217.15
-219.24
-220.57
-221.23
-221.29
-221.04
-220.94
-221.43
-222.47
-223.12
-221.57
-215.65
-203.96
-186.73
-166.10
-145.33
-127.57
-114.60
-106.38
-101.71
-99.10
-97.36
-95.50
-92.62
-88.01
-81.78
-75.20
-70.21
-68.04
-67.47
-64.46
-53.64
-31.43
1.49
39.77
75.95
104.43
124.39
139.59
155.12
173.53
192.76
207.34
211.90
204.65
188.56
169.84
154.81
146.96
146.03
148.95
151.93
152.27
148.99
142.66
134.52
125.61
116.21
105.96
94.35
81.58
69.11
59.65
56.06
59.91
70.41
84.47
97.98
107.67
112.60
114.40
116.23
120.91
129.46
140.48
150.63
156.07
153.68
142.04
121.47
93.83
62.07
29.81
0.88
-21.49
-35.56
-41.75
-42.47
-40.98
-39.91
-39.97
-39.93
-37.57
-31.31
-21.28
-9.42
1.39
8.51
10.33
6.49
-2.42
-15.11
-29.87
-44.69
-57.82
-68.19
-75.89
-82.13
-88.60
-96.59
-106.50
-117.87
-129.70
-140.96
-150.70
-158.25
-163.21
-165.58
-166.06
-165.73
-165.71
-166.37
-167.19
-166.90
-163.99
-157.54
-147.41
-134.41
-119.81
-104.95
-90.77
-77.88
-66.64
-57.24
-49.67
-43.32
-36.95
-28.61
-16.19
1.90
26.05
55.10
86.53
117.08
143.78
164.41
177.69
182.97
180.16
169.85
153.73
134.49
115.28
98.77
86.21
77.20
70.05
62.78
54.07
43.88
33.34
23.99
16.84
11.55
6.50
-0.38
-10.53
-23.94
-39.17
-54.06
-66.94
-77.29
-85.63
-92.63
-98.31
-101.81
-102.17
-99.25
-94.39
-90.01
-88.44
-90.85
-96.75
-104.66
-113.12
-121.46
-129.70
-137.88
-145.26
-150.26
-151.06
-146.75
-138.09
-127.66
-118.75
-113.98
-114.05
-117.39
-120.91
-121.55
-117.60
-109.31
-98.45
-87.20
-77.19
-68.97
-62.03
-55.24
-47.26
-36.59
-21.73
-1.35
24.97
56.07
88.87
118.90
141.60
153.78
154.83
146.83
133.79
119.99
108.39
99.69
92.54
84.58
73.70
58.97
40.77
20.23
-1.47
-23.33
-44.42
-63.45
-78.55
-87.80
-89.94
-85.05
-74.53
-60.43
-44.70
-28.57
-12.53
3.37
18.92
33.50
46.15
55.87
61.85
63.49
60.44
52.50
40.23
24.56
6.75
-11.35
-27.45
-39.42
-46.21
-48.37
-47.98
-46.93
-47.00
-49.13
-52.87
-56.37
-57.13
-53.15
-43.55
-28.62
-8.15
16.95
44.65
72.65
99.48
124.64
148.24
170.46
191.17
211.46
230.95
247.46
258.13
261.05
255.94
244.19
228.39
200.81
161.45
117.17
76.32
42.75
15.83
-6.29
-24.62
-39.21
-50.32
-57.57
-62.21
-67.82
-77.34
-90.88
-105.32
-115.81
-117.92
-109.32
-88.88
-57.90
-18.88
24.25
67.51
106.87
137.57
154.06
151.38
128.21
87.14
34.29
-22.28
-74.85
-118.22
-150.67
-172.88
-186.19
-190.80
-186.43
-173.47
-153.94
-131.24
-109.28
-91.07
-77.67
-67.99
-59.42
-49.59
-37.54
-24.12
-11.27
-0.99
5.60
8.67
9.51
9.91
11.52
15.24
21.04
28.03
34.62
38.89
39.25
35.21
28.03
20.90
18.31
24.67
42.66
71.82
108.11
144.87
174.52
190.68
189.75
171.70
139.85
99.85
58.19
20.43
-9.91
-31.82
-46.23
-54.89
-59.40
-60.81
-59.98
-58.02
-56.47
-56.66
-58.78
-61.24
-60.98
-55.05
-42.36
-24.65
-6.08
8.61
16.18
16.20
10.86
3.74
-1.90
-4.07
-2.26
3.00
10.61
19.23
27.44
33.92
37.83
39.10
38.61
37.76
37.85
39.34
41.61
43.32
43.19
40.66
36.20
31.01
26.35
22.93
20.70
19.10
17.53
15.74
13.99
12.70
12.10
12.06
12.09
11.63
10.37
8.31
5.72
2.85
-0.26
-3.99
-9.07
-16.25
-25.92
-37.57
-49.67
-60.04
-66.65
-68.55
-66.25
-61.23
-54.94
-47.91
-39.66
-29.44
-17.23
-4.28
7.43
16.27
21.92
25.55
29.03
33.85
40.33
47.77
55.14
61.91
68.41
75.41
83.45
92.38
101.35
109.28
115.32
119.07
120.67
120.61
119.59
118.46
118.03
118.99
121.62
125.61
130.08
133.88
135.92
135.64
133.00
128.35
122.14
114.66
106.03
96.30
85.66
74.53
63.39
52.63
42.35
32.38
22.31
11.79
0.65
-11.02
-22.90
-34.38
-44.52
-52.19
-56.25
-56.01
-51.60
-44.15
-35.53
-27.82
-22.63
-20.61
-21.56
-24.64
-28.91
-33.64
-38.38
-42.93
-47.19
-51.18
-55.02
-59.03
-63.48
-68.39
-73.31
-77.29
-79.19
-78.11
-73.73
-66.42
-57.13
-46.90
-36.64
-26.99
-18.35
-10.94
-4.86
0.12
4.53
9.16
14.75
21.72
29.91
38.63
46.93
53.95
59.19
62.73
65.07
66.93
68.98
71.48
74.29
76.78
78.10
77.35
73.85
67.34
58.00
46.58
34.30
22.68
13.20
6.92
4.14
4.28
5.95
7.44
7.23
4.41
-1.14
-8.72
-17.35
-26.02
-34.16
-41.62
-48.56
-55.16
-61.46
-67.39
-72.94
-78.26
-83.63
-89.23
-94.94
-100.26
-104.51
-107.23
-108.41
-108.37
-107.57
-106.28
-104.36
-101.42
-97.17
-91.80
-85.91
-80.37
-75.79
-72.30
-69.47
-66.73
-63.78
-60.96
-59.18
-59.34
-61.66
-65.40
-69.10
-71.29
-71.21
-69.12
-66.12
-63.55
-62.40
-62.78
-63.90
-64.10
-61.12
-52.59
-36.78
-13.35
16.30
49.22
81.70
110.32
132.56
147.18
153.98
153.44
146.40
134.05
117.96
100.01
82.09
65.48
50.67
37.30
24.48
11.32
-2.34
-15.81
-27.69
-36.65
-42.57
-46.37
-49.81
-54.46
-61.21
-69.71
-79.04
-88.27
-97.07
-106.42
-117.06
-128.87
-140.72
-151.40
-160.37
-167.98
-174.60
-179.49
-181.48
-177.78
-165.30
-142.46
-110.99
-75.63
-42.20
-15.25
3.49
13.63
17.06
16.76
15.52
14.38
12.65
8.80
1.27
-1.18
5.76
20.97
39.10
55.51
68.25
77.33
83.56
87.61
89.63
87.91
81.79
71.85
62.38
57.78
60.62
70.38
83.48
94.77
98.64
92.17
75.71
51.93
23.62
-6.53
-34.64
-55.67
-64.53
-58.97
-40.74
-15.81
7.90
23.42
27.68
22.08
10.56
-3.22
-17.92
-33.98
-51.63
-69.00
-82.15
-86.60
-79.78
-62.89
-40.84
-20.24
-6.52
-1.70
-4.16
-10.06
-15.76
-19.35
-21.06
-22.06
-23.06
-23.57
-22.60
-19.73
-15.96
-13.12
-12.58
-14.01
-15.36
-14.02
-8.48
0.73
11.38
20.83
27.44
31.16
33.07
34.34
35.40
35.90
35.26
33.39
30.99
29.13
28.64
29.67
31.71
34.04
36.19
38.27
40.71
43.83
47.41
50.71
52.88
53.51
52.96
52.24
52.48
54.19
56.83
59.00
59.16
56.48
51.21
44.45
37.33
30.28
22.68
13.26
0.94
-14.39
-31.54
-48.24
-61.76
-69.60
-70.22
-63.42
-50.58
-34.40
-18.32
-5.58
1.67
2.95
-0.65
-6.93
-13.39
-17.75
-18.47
-14.80
-6.97
3.84
15.68
26.23
33.49
36.39
35.09
30.81
25.33
20.42
17.57
17.90
22.22
30.91
43.68
59.15
74.80
87.43
94.05
93.00
84.65
71.31
56.35
42.87
32.56
25.42
20.15
15.17
9.55
3.35
-2.45
-6.65
-8.56
-8.58
-8.18
-9.52
-14.70
-24.82
-39.50
-56.88
-74.00
-87.82
-96.11
-98.05
-94.33
-87.24
-80.31
-78.03
-84.61
-102.26
-129.54
-160.58
-186.08
-196.12
-183.56
-146.86
-90.93
-25.78
36.46
84.88
112.71
118.41
105.36
80.48
52.21
28.31
14.15
11.79
20.14
36.16
55.69
74.23
87.81
93.95
92.43
85.44
76.89
70.73
69.93
74.64
82.32
89.13
91.96
89.82
83.90
76.68
70.53
68.00
69.53
73.26
75.80
74.09
66.77
54.63
39.95
25.29
14.86
10.33
10.14
10.91
10.15
7.97
6.49
8.29
15.06
31.38
59.24
97.00
140.31
184.60
226.97
265.82
300.24
329.64
359.27
392.40
427.64
459.22
480.70
488.37
482.18
465.30
408.76
303.70
165.23
24.40
-93.86
-182.07
-244.97
-290.07
-322.64
-345.03
-353.05
-344.99
-324.41
-298.93
-275.89
-259.21
-249.31
-244.43
-242.07
-235.99
-222.22
-201.07
-176.49
-153.09
-133.86
-119.78
-110.47
-104.89
-99.20
-90.62
-79.02
-66.50
-55.49
-47.32
-41.96
-38.68
-36.87
-35.44
-33.68
-32.57
-33.66
-37.39
-42.43
-46.41
-47.27
-44.45
-38.64
-31.61
-25.62
-22.50
-23.39
-28.82
-38.77
-52.37
-67.58
-81.42
-90.78
-93.77
-90.33
-82.03
-71.07
-59.20
-47.21
-35.21
-23.38
-12.46
-3.66
2.05
4.78
5.69
6.22
7.39
9.40
11.86
14.26
16.37
18.35
20.97
24.90
29.94
34.91
38.20
38.63
35.93
30.77
24.29
18.07
13.15
9.36
5.48
0.17
-7.41
-17.42
-29.25
-41.71
-52.23
-57.57
-55.08
-43.74
-24.42
0.06
25.30
47.41
59.27
56.05
39.58
17.18
-2.98
-15.12
-17.28
-11.19
-1.10
7.94
12.86
12.75
9.03
2.86
-4.93
-13.79
-22.72
-30.03
-33.35
-29.79
-17.31
3.83
30.92
60.13
86.07
103.88
110.41
104.75
88.47
64.80
37.28
8.64
-19.43
-46.06
-70.40
-91.26
-107.28
-117.58
-122.72
-124.94
-127.38
-132.33
-140.15
-148.96
-155.85
-158.29
-155.17
-146.78
-134.10
-117.97
-98.67
-76.26
-51.20
-24.89
0.36
21.92
37.62
46.36
48.34
44.94
38.21
30.56
24.39
21.98
25.23
35.10
50.80
69.15
84.67
91.00
83.27
60.48
26.71
-9.50
-37.98
-50.50
-43.81
-20.47
12.66
47.46
77.49
99.61
113.62
120.73
121.97
117.56
107.40
92.20
74.22
56.89
43.54
35.88
33.24
33.06
32.16
28.14
20.14
8.85
-4.11
-16.92
-28.17
-36.94
-42.82
-45.63
-45.26
-41.52
-34.22
-23.43
-9.74
5.51
20.40
32.88
41.41
45.45
45.52
42.92
39.17
35.63
33.20
32.31
32.87
34.37
35.85
36.19
34.52
30.63
25.02
18.73
12.92
8.60
6.62
7.68
12.26
20.23
30.51
41.04
49.29
53.21
52.10
46.94
39.94
33.54
29.40
27.98
28.81
30.98
33.68
36.17
37.59
36.79
32.41
23.35
9.22
-9.42
-31.25
-54.77
-78.88
-103.24
-128.12
-154.00
-180.75
-207.30
-231.51
-250.70
-262.45
-265.46
-260.01
-247.90
-231.90
-214.84
-198.81
-184.80
-172.78
-162.16
-152.38
-143.30
-135.25
-128.71
-123.73
-119.68
-115.09
-107.97
-96.21
-78.07
-52.37
-18.64
22.64
69.64
118.79
165.15
203.34
229.14
240.84
239.76
229.45
214.14
197.25
180.52
164.38
148.75
133.89
120.54
109.45
100.78
93.80
87.15
79.46
69.93
58.64
46.55
35.24
26.47
21.76
21.97
27.06
36.04
47.26
58.81
69.04
76.89
81.87
83.99
83.57
81.02
76.89
71.91
66.99
63.12
61.11
61.36
63.68
67.32
71.29
74.72
77.23
79.03
80.73
82.84
85.29
87.41
88.21
87.00
83.74
78.92
73.13
66.58
58.87
49.24
37.12
22.40
5.57
-12.60
-31.32
-49.96
-67.87
-84.26
-98.21
-108.85
-115.67
-118.75
-118.83
-117.08
-114.82
-113.11
-112.33
-111.94
-110.54
-106.35
-97.92
-84.86
-68.07
-49.47
-31.31
-15.45
-2.86
6.39
12.78
16.98
19.65
21.30
22.43
23.46
24.79
26.60
28.89
31.42
33.84
35.86
37.24
37.91
37.89
37.32
36.37
35.21
33.98
32.71
31.31
29.57
27.26
24.19
20.38
16.03
11.50
7.15
3.18
-0.49
-4.20
-8.33
-13.13
-18.48
-23.95
-28.90
-32.80
-35.47
-37.17
-38.64
-40.82
-44.65
-50.72
-58.89
-68.13
-76.60
-81.96
-81.99
-75.27
-61.71
-42.70
-20.82
0.77
19.23
32.76
41.01
45.01
46.66
47.92
50.11
53.53
57.51
60.92
62.63
61.93
58.63
52.90
45.20
36.26
27.00
18.47
11.48
6.33
2.61
-0.68
-4.59
-9.77
-16.24
-23.50
-31.04
-38.38
-44.95
-49.72
-51.11
-47.44
-37.98
-23.78
-7.79
6.14
14.90
17.56
15.55
11.71
8.53
6.90
6.00
4.29
0.82
-4.02
-8.87
-12.42
-14.34
-15.28
-16.18
-17.17
-17.08
-13.94
-6.12
6.51
22.31
38.58
52.72
63.31
70.43
75.18
78.65
81.26
82.50
81.54
78.03
72.64
66.99
62.96
61.80
63.44
66.65
69.68
71.23
71.01
69.65
68.21
67.32
66.87
66.08
64.05
60.29
55.00
48.84
42.73
37.58
34.04
32.39
32.39
33.36
34.23
33.82
31.19
25.97
18.55
9.85
0.94
-7.38
-14.73
-21.25
-27.38
-33.82
-41.09
-49.14
-57.26
-64.33
-69.15
-70.91
-69.41
-65.19
-59.94
-55.47
-52.97
-52.66
-54.11
-56.58
-59.16
-60.75
-60.34
-58.37
-55.73
-53.13
-50.86
-49.14
-48.31
-48.47
-49.21
-49.68
-50.92
-54.16
-59.68
-66.70
-74.20
-81.62
-88.70
-95.23
-101.07
-108.84
-121.40
-139.85
-163.05
-188.78
-214.81
-239.18
-260.31
-262.09
-234.94
-182.04
-117.82
-57.30
-8.63
26.39
49.13
62.46
70.46
75.89
82.04
93.31
113.35
142.37
176.23
208.25
232.32
245.28
248.07
241.15
227.65
212.19
198.66
189.09
183.82
182.22
183.19
184.13
182.20
175.93
165.71
153.32
141.15
131.54
125.98
124.43
124.25
123.55
119.73
111.11
97.49
80.13
60.89
41.53
23.01
5.44
-11.41
-27.76
-43.60
-59.20
-75.42
-93.40
-113.82
-136.53
-160.51
-184.63
-208.61
-233.23
-260.14
-290.88
-325.92
-363.78
-400.83
-431.93
-451.51
-455.01
-439.82
-405.99
-356.18
-295.09
-228.56
-162.80
-103.83
-56.80
-25.25
-10.09
-9.21
-18.18
-31.71
-45.58
-57.67
-67.84
-76.83
-84.81
-90.73
-92.56
-88.25
-76.68
-58.14
-34.14
-6.79
21.95
50.92
79.82
108.99
138.76
168.70
197.25
221.90
240.08
250.13
252.13
247.75
239.42
229.25
218.24
206.22
192.34
175.86
156.69
135.46
113.23
91.17
70.48
52.35
38.09
28.86
25.14
26.21
29.94
33.31
33.56
29.47
21.90
13.46
7.24
5.38
8.24
14.54
22.19
29.34
34.86
38.23
39.04
36.64
30.31
19.64
5.14
-11.71
-28.97
-44.90
-58.57
-69.86
-79.11
-86.44
-91.40
-93.15
-91.20
-86.09
-79.65
-74.46
-72.77
-75.42
-81.48
-88.73
-94.76
-98.03
-98.23
-95.98
-92.06
-86.87
-80.30
-72.09
-62.19
-50.88
-38.44
-24.80
-9.35
8.71
29.80
53.48
78.24
101.89
122.17
137.40
146.77
150.39
149.11
144.12
136.74
128.10
118.98
109.79
100.55
91.08
81.13
70.56
59.44
47.97
36.48
25.33
14.82
5.24
-3.14
-10.04
-15.28
-18.84
-20.99
-22.25
-23.28
-24.70
-26.89
-29.94
-33.71
-37.98
-42.57
-47.41
-52.45
-57.62
-62.67
-67.31
-71.18
-74.10
-76.15
-77.69
-79.32
-81.62
-84.86
-88.62
-91.76
-92.60
-89.46
-81.27
-68.07
-51.03
-32.10
-13.44
3.22
16.86
27.28
34.80
40.11
43.91
46.83
49.37
51.84
54.34
56.79
58.94
60.49
61.10
60.48
58.48
55.11
50.54
45.07
38.95
32.31
25.07
17.04
8.12
-1.58
-11.69
-21.67
-30.90
-38.84
-45.00
-49.03
-50.85
-50.64
-48.96
-46.58
-44.28
-42.57
-41.50
-40.71
-39.72
-38.21
-36.29
-34.52
-33.70
-34.65
-37.87
-43.38
-50.56
-58.21
-64.79
-68.70
-68.73
-64.39
-56.00
-44.66
-31.88
-19.18
-7.68
2.00
9.78
15.84
20.46
23.79
25.83
26.52
25.92
24.32
22.30
20.58
19.86
20.62
22.98
26.80
31.72
37.33
43.21
48.95
54.13
58.32
61.15
62.44
62.26
60.91
58.81
56.37
53.80
51.03
47.81
43.78
38.70
32.55
25.60
18.32
11.18
4.45
-1.86
-8.00
-14.32
-21.08
-28.18
-35.02
-40.55
-43.53
-43.03
-38.71
-31.05
-21.19
-10.55
-0.42
8.27
15.04
19.73
22.41
23.35
23.02
22.05
21.03
20.35
19.96
19.50
18.47
16.55
13.81
10.72
7.88
5.77
4.57
4.07
3.87
3.56
2.83
1.62
0.02
-1.75
-3.46
-4.99
-6.28
-7.38
-8.39
-9.44
-10.63
-12.00
-13.55
-15.28
-17.19
-19.34
-21.86
-24.87
-28.53
-32.91
-38.01
-43.50
-48.67
-52.43
-53.50
-50.84
-44.04
-33.58
-20.68
-7.05
5.66
16.16
23.80
28.53
30.70
30.92
29.92
28.40
26.89
25.69
24.82
24.15
23.46
22.59
21.59
20.64
20.00
19.89
20.40
21.37
22.46
23.20
23.12
21.86
19.37
15.81
11.59
7.18
2.96
-0.83
-4.18
-7.18
-10.02
-12.86
-15.76
-18.71
-21.63
-24.51
-27.41
-30.62
-34.52
-39.44
-45.38
-51.85
-57.75
-61.63
-62.10
-58.27
-50.05
-38.26
-24.35
-9.96
3.45
14.89
23.88
30.31
34.36
36.29
36.48
35.38
33.55
31.51
29.70
28.39
27.58
27.09
26.71
26.31
25.90
25.60
25.48
25.47
25.36
24.80
23.52
21.42
18.65
15.53
12.37
9.36
6.46
3.48
0.17
-3.63
-7.86
-12.30
-16.57
-20.34
-23.42
-25.85
-27.90
-30.03
-32.73
-36.26
-40.43
-44.48
-47.09
-46.69
-41.92
-32.13
-17.69
0.01
18.90
36.76
51.81
62.97
69.98
73.20
73.30
71.06
67.11
61.98
56.01
49.52
42.75
35.89
29.06
22.34
15.79
9.48
3.56
-1.74
-6.18
-9.58
-11.90
-13.27
-13.94
-14.21
-14.37
-14.60
-14.97
-15.49
-16.14
-16.90
-17.82
-19.01
-20.61
-22.68
-25.22
-28.02
-30.90
-33.75
-36.72
-40.22
-44.69
-50.29
-56.62
-62.60
-66.68
-67.28
-63.36
-54.78
-42.43
-27.99
-13.46
-0.59
9.43
16.24
20.09
21.59
21.36
19.87
17.43
14.32
10.83
7.29
4.00
1.20
-0.92
-2.17
-2.34
-1.27
1.02
4.24
7.88
11.43
14.59
17.39
20.05
22.72
25.34
27.54
28.90
29.16
28.39
26.85
24.91
22.83
20.60
18.10
15.13
11.58
7.44
2.78
-2.29
-7.58
-12.67
-16.92
-19.42
-19.19
-15.45
-7.98
2.75
15.55
28.97
41.64
52.65
61.64
68.59
73.49
76.17
76.30
73.64
68.22
60.45
50.97
40.44
29.38
18.01
6.38
-5.48
-17.27
-28.28
-37.49
-43.90
-46.93
-46.83
-44.68
-42.06
-40.42
-40.42
-41.80
-43.57
-44.63
-44.36
-42.88
-40.89
-39.35
-39.09
-40.63
-44.19
-49.70
-56.82
-64.77
-72.28
-77.61
-78.91
-74.69
-64.41
-48.70
-29.25
-8.31
11.87
29.49
43.38
52.85
57.54
57.39
52.81
44.79
34.88
24.97
16.82
11.64
9.71
10.39
12.23
13.43
12.33
7.99
0.50
-8.95
-18.46
-26.18
-30.95
-32.71
-32.20
-30.32
-27.56
-23.84
-18.87
-12.75
-6.33
-0.93
2.30
3.11
2.28
1.10
0.44
0.17
-0.80
-3.74
-9.16
-16.24
-23.00
-27.15
-27.03
-22.17
-13.32
-2.01
10.13
21.79
32.24
41.27
48.99
55.69
61.55
66.49
69.98
71.18
69.29
63.98
55.84
46.42
37.73
31.54
28.67
28.62
29.89
30.80
30.17
27.81
24.34
20.59
16.97
13.22
8.59
2.39
-5.43
-14.22
-22.82
-30.10
-35.46
-38.84
-40.62
-41.20
-40.95
-40.22
-39.57
-39.62
-40.67
-42.29
-43.02
-40.67
-33.20
-19.74
-1.28
19.53
39.23
54.90
65.04
69.87
70.80
69.62
67.80
66.21
65.20
64.88
65.24
66.19
67.44
68.53
68.87
67.99
65.68
61.91
56.75
50.20
42.26
32.96
22.57
11.60
0.77
-9.23
-17.91
-25.02
-30.52
-34.48
-36.93
-37.87
-37.25
-35.12
-31.71
-27.38
-22.65
-18.09
-14.29
-11.88
-11.42
-13.18
-16.97
-21.93
-26.72
-29.88
-30.35
-27.94
-23.40
-18.11
-13.46
-10.15
-7.87
-5.50
-1.68
4.42
12.54
21.43
29.27
34.47
36.28
35.03
31.84
27.99
24.43
21.69
20.03
19.84
21.75
26.43
34.16
44.36
55.50
65.42
71.92
73.39
69.23
59.91
46.66
31.07
14.77
-0.81
-14.47
-25.34
-33.05
-37.88
-40.83
-43.41
-47.19
-53.17
-61.34
-70.54
-78.82
-84.08
-84.79
-80.43
-71.60
-59.70
-46.45
-33.45
-21.81
-12.09
-4.37
1.58
6.10
9.55
12.25
14.54
16.64
18.76
20.95
23.15
25.22
27.04
28.50
29.53
30.03
29.82
28.66
26.30
22.62
17.61
11.45
4.45
-3.03
-10.56
-17.77
-24.36
-30.11
-34.90
-38.75
-41.68
-43.73
-44.91
-45.23
-44.73
-43.61
-42.21
-40.96
-40.18
-39.81
-39.29
-37.64
-33.74
-26.78
-16.66
-4.12
9.40
22.17
32.71
40.08
44.12
45.20
44.01
41.32
37.76
33.72
29.38
24.80
20.03
15.24
10.67
6.66
3.54
1.52
0.73
1.15
2.74
5.32
8.65
12.35
15.95
19.05
21.35
22.78
23.43
23.42
22.76
21.38
19.10
15.79
11.43
6.21
0.57
-4.84
-9.26
-12.11
-13.24
-13.22
-13.25
-14.72
-18.62
-24.84
-32.09
-38.28
-41.36
-40.13
-34.71
-26.35
-16.90
-8.11
-1.11
3.66
6.31
7.26
6.98
5.91
4.41
2.79
1.31
0.21
-0.33
-0.23
0.48
1.65
3.03
4.40
5.64
6.77
7.86
8.91
9.78
10.24
10.06
9.18
7.80
6.18
4.50
2.66
0.34
-2.80
-6.87
-11.56
-16.14
-19.77
-21.82
-22.23
-21.52
-20.69
-20.74
-22.39
-25.81
-30.50
-35.44
-39.33
-40.99
-39.68
-35.30
-28.37
-19.82
-10.65
-1.67
6.59
13.83
19.91
24.73
28.26
30.66
32.28
33.56
34.83
36.17
37.47
38.70
40.04
41.87
44.55
48.10
52.09
55.72
58.25
59.20
58.53
56.36
52.74
47.49
40.39
31.45
21.17
10.46
0.33
-8.46
-15.64
-21.38
-26.03
-29.91
-33.29
-36.36
-39.46
-43.02
-47.56
-53.33
-60.09
-66.96
-72.51
-75.20
-73.88
-68.33
-59.44
-48.87
-38.44
-29.43
-22.17
-16.09
-10.18
-3.53
4.23
12.89
21.75
29.96
36.67
41.19
43.10
42.31
39.13
34.25
28.58
23.01
18.16
14.29
11.24
8.61
5.94
2.96
-0.36
-3.79
-7.00
-9.86
-12.55
-15.58
-19.60
-25.10
-32.09
-40.17
-48.60
-56.56
-63.36
-68.46
-71.34
-71.54
-68.70
-62.77
-54.32
-44.55
-34.99
-26.97
-20.93
-15.91
-9.80
-0.06
15.10
35.81
60.19
85.03
107.01
123.90
135.10
141.40
144.10
144.09
141.47
135.85
126.85
114.59
99.72
83.09
65.29
46.55
26.95
6.72
-13.39
-32.09
-47.94
-59.79
-67.17
-70.41
-70.52
-68.74
-66.31
-64.16
-62.88
-62.81
-64.08
-66.63
-70.17
-74.15
-77.84
-80.45
-81.33
-80.15
-76.96
-72.20
-66.62
-61.08
-56.38
-53.03
-51.01
-49.70
-48.01
-44.65
-38.66
-29.77
-18.57
-6.44
4.94
14.01
19.80
22.10
21.52
19.13
16.17
13.77
12.71
13.38
15.83
19.80
24.91
30.65
36.52
42.04
46.85
50.80
54.01
56.78
59.35
61.69
63.31
63.43
61.41
57.27
51.92
46.88
43.72
43.29
45.30
48.45
51.01
51.56
49.38
44.61
37.99
30.57
23.48
17.63
13.49
10.85
8.67
5.40
-0.52
-10.00
-22.84
-37.73
-52.59
-65.15
-73.55
-76.72
-74.67
-68.36
-59.48
-49.91
-41.21
-34.23
-28.92
-24.68
-20.74
-16.58
-12.14
-7.67
-3.54
-0.02
2.65
4.31
4.80
4.06
2.16
-0.53
-3.45
-5.97
-7.59
-8.16
-7.75
-6.59
-4.91
-2.73
-0.01
3.33
7.22
11.39
15.38
18.79
21.39
23.24
24.63
25.86
27.02
27.84
27.82
26.30
22.76
16.89
8.78
-1.07
-11.80
-22.31
-31.46
-38.24
-41.99
-42.36
-39.43
-33.55
-25.32
-15.57
-5.36
4.20
12.05
17.45
20.10
20.18
18.10
14.35
9.19
2.72
-5.02
-13.78
-22.90
-31.34
-37.91
-41.72
-42.37
-40.14
-35.71
-29.89
-23.36
-16.57
-9.86
-3.59
1.81
5.91
8.47
9.57
9.61
9.21
8.92
9.06
9.50
9.78
9.24
7.38
4.07
-0.33
-5.03
-9.14
-11.95
-13.20
-13.12
-12.29
-11.42
-11.01
-11.24
-11.92
-12.59
-12.71
-11.79
-9.49
-5.76
-0.81
4.88
10.58
15.56
19.18
21.09
21.37
20.41
18.77
17.01
15.53
14.52
13.99
13.75
13.53
13.00
11.88
10.05
7.61
4.94
2.61
1.18
1.06
2.29
4.52
7.16
9.59
11.40
12.54
13.24
13.83
14.52
15.22
15.60
15.25
13.94
11.72
8.86
5.70
2.53
-0.58
-3.78
-7.38
-11.70
-17.01
-23.32
-30.30
-37.23
-43.00
-46.34
-46.07
-41.44
-32.41
-19.74
-4.93
10.10
23.42
33.62
40.04
42.82
42.67
40.57
37.40
33.79
30.15
26.61
23.24
20.01
16.86
13.67
10.26
6.28
1.21
-5.47
-14.17
-24.88
-37.11
-49.83
-61.72
-71.53
-78.33
-81.77
-81.96
-79.37
-74.54
-67.93
-59.91
-50.78
-40.86
-30.45
-19.89
-9.51
0.31
9.01
15.64
18.89
17.45
10.62
-1.11
-15.92
-30.97
-43.21
-50.17
-50.60
-44.75
-34.17
-21.19
-8.40
2.04
8.80
11.47
10.35
6.11
-0.44
-8.35
-16.43
-23.20
-27.09
-26.94
-22.58
-14.95
-5.67
3.80
12.73
21.35
30.41
40.56
51.76
63.21
73.74
82.35
88.60
92.71
95.28
96.86
97.68
97.58
96.21
93.40
89.33
84.36
78.77
72.38
64.49
54.01
40.05
22.33
1.58
-20.54
-41.79
-59.98
-73.43
-81.32
-83.74
-81.45
-75.64
-67.68
-58.94
-50.73
-44.15
-39.90
-38.07
-38.13
-39.09
-39.81
-39.37
-37.27
-33.39
-27.87
-21.00
-13.30
-5.41
1.91
8.07
12.83
16.31
18.87
20.75
21.88
21.82
20.00
16.11
10.29
3.28
-3.89
-10.16
-14.81
-17.69
-19.12
-19.67
-19.89
-20.05
-20.22
-20.38
-20.65
-21.42
-23.10
-25.81
-29.06
-31.71
-32.33
-29.74
-23.44
-13.91
-2.41
9.38
19.87
27.91
32.92
34.73
33.54
29.69
23.78
16.66
9.41
3.10
-1.47
-4.01
-4.81
-4.51
-3.78
-3.05
-2.38
-1.51
-0.14
1.91
4.71
8.20
12.35
17.09
22.34
27.87
33.31
38.16
41.90
44.12
44.64
43.61
41.42
38.64
35.85
33.48
31.65
30.20
28.61
26.09
21.75
14.86
5.16
-6.79
-19.63
-31.44
-40.24
-44.75
-44.78
-41.26
-35.96
-30.80
-27.32
-26.32
-27.68
-30.42
-32.87
-33.08
-29.27
-20.50
-7.15
9.04
25.48
39.70
50.19
56.78
60.26
61.71
61.74
60.36
57.23
52.27
45.93
39.09
32.52
26.44
20.42
13.58
5.20
-4.86
-15.97
-26.92
-36.34
-43.18
-46.94
-47.84
-46.59
-44.08
-41.05
-37.91
-34.75
-31.57
-28.49
-25.87
-24.25
-24.04
-25.26
-27.43
-29.71
-31.22
-31.45
-30.41
-28.65
-26.92
-25.72
-24.99
-24.03
-21.85
-17.59
-10.99
-2.56
6.62
15.32
22.60
27.95
31.40
33.28
34.01
33.94
33.34
32.41
31.32
30.21
29.18
28.27
27.48
26.72
25.84
24.62
22.82
20.28
17.04
13.32
9.57
6.22
3.61
1.80
0.61
-0.26
-1.07
-1.89
-2.62
-3.10
-3.22
-2.99
-2.57
-2.19
-2.12
-2.54
-3.58
-5.27
-7.53
-10.21
-13.06
-15.64
-17.43
-17.79
-16.27
-12.73
-7.48
-1.30
4.78
9.69
12.69
13.53
12.53
10.40
8.00
5.94
4.54
3.74
3.32
3.13
3.25
3.88
5.21
7.21
9.57
11.79
13.44
14.37
14.69
14.63
14.31
13.66
12.49
10.75
8.62
6.53
4.86
3.81
3.32
3.16
3.09
3.03
3.02
3.08
3.12
2.94
2.35
1.29
-0.15
-1.77
-3.45
-5.17
-7.04
-9.21
-11.80
-14.91
-18.56
-22.77
-27.43
-32.24
-36.72
-40.25
-42.24
-42.39
-40.70
-37.45
-33.11
-28.05
-22.58
-16.91
-11.34
-6.23
-2.02
1.00
2.84
3.79
4.35
4.92
5.65
6.45
7.04
7.24
7.10
6.96
7.24
8.35
10.45
13.42
16.95
20.65
24.12
27.01
29.12
30.35
30.82
30.78
30.59
30.64
31.14
32.03
32.85
32.87
31.29
27.50
21.37
13.39
4.52
-4.18
-11.86
-18.25
-23.44
-27.78
-31.44
-34.23
-35.62
-34.94
-31.76
-26.09
-18.48
-9.83
-1.22
6.37
12.23
16.02
17.85
18.27
18.23
18.88
21.32
26.18
33.57
42.92
53.16
63.10
71.65
78.00
81.56
81.87
78.56
71.41
60.58
46.66
30.71
13.95
-2.43
-17.57
-30.92
-42.13
-50.89
-56.80
-59.46
-58.51
-53.84
-45.68
-34.67
-21.80
-8.43
3.93
13.66
19.41
20.44
16.75
9.07
-1.41
-13.39
-25.60
-36.83
-45.70
-50.83
-51.08
-46.19
-37.11
-25.89
-15.11
-6.97
-2.67
-2.04
-3.72
-5.61
-5.43
-1.32
7.66
21.18
37.59
54.40
69.08
79.80
85.90
87.81
86.54
83.07
77.95
71.30
62.97
52.65
40.04
25.00
7.67
-11.44
-31.41
-51.07
-69.27
-85.13
-98.04
-107.76
-114.28
-117.94
-119.36
-119.35
-118.69
-117.78
-116.53
-114.47
-111.16
-106.56
-101.20
-95.89
-91.38
-87.91
-85.20
-82.54
-79.12
-74.32
-67.82
-59.70
-50.32
-40.19
-29.84
-19.60
-9.66
-0.21
8.36
15.34
19.92
21.70
21.19
19.74
19.11
20.55
24.14
28.78
32.67
34.30
32.99
28.93
22.70
14.72
5.18
-5.49
-16.13
-24.69
-28.75
-26.60
-18.10
-4.94
10.08
24.23
36.05
45.70
54.56
64.17
75.23
87.06
97.88
105.56
108.30
105.24
96.45
82.66
64.81
43.88
20.92
-2.67
-24.93
-43.65
-56.86
-63.50
-63.78
-59.09
-51.37
-42.44
-33.49
-25.17
-17.83
-11.86
-7.70
-5.53
-5.04
-5.34
-5.31
-4.05
-1.21
2.97
8.02
13.55
19.36
25.26
30.81
35.18
37.38
36.57
32.51
25.60
16.81
7.37
-1.48
-8.63
-13.20
-14.60
-12.72
-7.99
-1.26
6.36
13.95
20.87
26.76
31.31
34.06
34.45
32.20
27.58
21.56
15.60
11.15
9.17
9.91
12.94
17.46
22.58
27.47
31.39
33.66
33.75
31.32
26.40
19.37
10.92
1.88
-6.89
-14.64
-20.79
-25.14
-27.95
-29.98
-32.38
-36.31
-42.59
-51.23
-61.39
-71.41
-79.32
-83.26
-82.09
-75.58
-64.39
-49.91
-33.82
-17.92
-3.88
6.90
13.46
15.43
13.30
8.31
2.35
-2.60
-5.00
-4.17
-0.40
5.28
11.60
17.51
22.45
26.34
29.43
31.98
34.10
35.61
36.18
35.41
33.13
29.42
24.66
19.39
14.11
9.18
4.80
1.09
-1.81
-3.79
-4.83
-5.16
-5.23
-5.58
-6.54
-8.15
-10.18
-12.52
-15.40
-19.42
-25.18
-32.77
-41.37
-49.21
-54.19
-54.48
-49.29
-39.08
-25.38
-10.18
4.64
17.45
27.14
33.04
34.99
33.44
29.53
24.70
20.25
16.79
14.11
11.60
8.78
5.78
3.32
2.42
3.82
7.70
13.58
20.55
27.50
33.29
36.85
37.31
34.31
28.34
21.05
15.40
14.94
22.79
40.18
65.59
95.02
123.04
144.76
157.43
161.16
158.24
151.77
144.20
136.67
129.21
121.44
113.23
104.84
96.74
89.18
81.95
74.24
64.85
52.45
36.02
15.24
-9.30
-36.20
-63.65
-89.78
-113.08
-132.46
-147.24
-156.98
-161.49
-160.91
-155.92
-147.69
-137.72
-127.42
-117.79
-109.09
-101.00
-92.89
-84.17
-74.64
-64.57
-54.57
-45.33
-37.48
-31.49
-27.59
-25.91
-26.34
-28.56
-32.00
-35.86
-39.26
-41.46
-41.99
-40.79
-38.24
-35.02
-31.98
-30.00
-29.83
-31.95
-36.45
-42.91
-50.33
-57.30
-62.20
-63.65
-60.88
-53.97
-43.85
-32.00
-20.12
-9.60
-1.31
4.55
8.32
10.63
12.14
13.32
14.36
15.26
15.93
16.38
16.77
17.39
18.52
20.34
22.80
25.77
29.04
32.39
35.60
38.38
40.40
41.31
40.86
38.99
35.85
31.71
26.86
21.54
15.93
10.29
4.92
0.16
-3.70
-6.60
-8.70
-10.29
-11.69
-13.06
-14.48
-16.02
-17.77
-19.82
-22.03
-23.90
-24.50
-22.73
-17.77
-9.47
1.40
13.36
24.57
33.43
38.98
41.09
40.31
37.63
34.11
30.58
27.55
25.23
23.63
22.66
22.31
22.57
23.44
24.80
26.40
27.95
29.17
29.94
30.27
30.31
30.25
30.29
30.57
31.10
31.71
32.04
31.54
29.47
25.16
18.21
8.73
-2.53
-14.31
-25.15
-33.86
-39.82
-43.09
-44.26
-44.19
-43.63
-43.07
-42.66
-42.22
-41.35
-39.47
-36.02
-30.61
-23.26
-14.46
-5.10
3.78
11.36
17.24
21.45
24.29
26.20
27.46
28.31
28.90
29.36
29.80
30.19
30.37
30.08
29.09
27.31
24.90
22.12
19.22
16.32
13.37
10.22
6.76
3.06
-0.66
-4.04
-6.75
-8.63
-9.69
-10.13
-10.20
-10.05
-9.68
-8.93
-7.59
-5.52
-2.73
0.53
3.77
6.39
7.73
7.19
4.39
-0.64
-7.40
-14.90
-21.79
-26.76
-28.78
-27.47
-23.12
-16.60
-9.09
-1.72
4.68
9.72
13.46
16.25
18.55
20.70
22.90
25.10
27.16
28.95
30.43
31.63
32.58
33.16
33.07
31.94
29.48
25.59
20.48
14.49
8.00
1.31
-5.35
-11.69
-17.29
-21.62
-24.24
-24.95
-23.92
-21.67
-18.84
-15.96
-13.33
-11.01
-8.93
-7.08
-5.56
-4.63
-4.59
-5.69
-8.07
-11.62
-15.97
-20.48
-24.31
-26.56
-26.54
-24.01
-19.23
-13.03
-6.44
-0.44
4.43
8.09
10.85
13.19
15.47
17.85
20.27
22.62
24.80
26.82
28.68
30.31
31.50
31.96
31.37
29.52
26.40
22.11
16.89
11.02
4.79
-1.45
-7.35
-12.48
-16.50
-19.13
-20.31
-20.18
-19.15
-17.87
-17.07
-17.39
-19.11
-21.98
-25.21
-27.79
-28.89
-28.28
-26.43
-24.25
-22.53
-21.53
-20.73
-19.16
-15.95
-10.89
-4.47
2.45
9.17
15.52
21.68
27.69
33.01
36.54
37.04
33.86
27.43
19.18
10.96
4.29
-0.14
-2.40
-2.93
-2.13
-0.31
2.07
4.07
4.30
1.30
-5.73
-16.29
-28.57
-40.01
-48.21
-51.87
-50.96
-46.37
-39.18
-30.23
-20.07
-9.35
1.07
10.29
17.82
24.00
29.91
36.73
44.89
53.70
61.65
67.28
70.09
70.86
71.20
72.67
75.93
80.43
84.69
86.97
85.82
80.47
70.92
57.77
42.11
25.17
8.15
-7.97
-22.56
-35.26
-45.85
-54.08
-59.72
-62.73
-63.53
-62.92
-61.85
-61.07
-60.75
-60.55
-59.86
-58.29
-55.85
-52.92
-49.97
-47.30
-44.93
-42.75
-40.62
-38.48
-36.34
-34.21
-32.11
-30.13
-28.37
-26.92
-25.56
-23.60
-20.07
-14.08
-5.45
5.10
16.02
25.63
32.86
37.64
40.83
43.60
46.77
50.45
54.14
57.07
58.64
58.62
57.07
54.24
50.46
46.15
41.76
37.64
33.94
30.47
26.69
22.02
15.98
8.47
-0.26
-9.76
-19.53
-29.17
-38.35
-46.76
-54.04
-59.76
-63.56
-65.22
-64.75
-62.37
-58.32
-52.70
-45.44
-36.31
-25.22
-12.28
2.02
16.95
31.71
45.50
57.56
67.16
73.61
76.36
75.22
70.41
62.60
52.70
41.61
30.11
18.69
7.65
-2.74
-12.05
-19.63
-24.68
-26.52
-25.02
-20.84
-15.42
-10.48
-7.41
-6.69
-7.88
-10.14
-12.84
-16.01
-20.20
-25.89
-32.80
-39.76
-45.01
-47.04
-45.23
-40.10
-32.96
-25.34
-18.48
-13.08
-9.30
-6.92
-5.44
-4.20
-2.56
-0.15
2.94
6.14
8.76
10.34
11.06
11.74
13.42
16.91
22.32
29.01
35.87
41.76
45.84
47.81
47.87
46.59
44.80
43.42
43.32
45.08
48.77
53.73
58.64
61.74
61.56
57.44
49.95
40.71
31.72
24.51
19.45
15.73
11.85
6.58
-0.43
-8.60
-16.87
-24.42
-31.03
-37.00
-42.70
-48.04
-52.42
-55.02
-55.33
-53.47
-50.19
-46.41
-42.82
-39.63
-36.81
-34.31
-32.20
-30.53
-28.97
-26.63
-22.28
-14.99
-4.76
7.23
18.96
28.49
34.69
37.61
38.10
37.17
35.50
33.40
31.12
29.15
28.17
28.61
30.15
31.61
31.36
28.12
21.64
12.87
3.49
-4.86
-11.20
-15.39
-17.92
-19.51
-20.77
-22.14
-23.96
-26.56
-30.15
-34.64
-39.49
-43.75
-46.41
-46.77
-44.88
-41.54
-38.04
-35.59
-34.87
-35.83
-37.87
-40.25
-42.39
-43.90
-44.54
-44.08
-42.34
-39.45
-36.01
-33.02
-31.34
-31.16
-31.70
-31.36
-28.49
-22.39
-13.83
-4.88
1.96
4.95
3.86
0.08
-4.13
-6.69
-6.49
-3.61
1.19
7.08
13.58
20.50
27.61
34.35
39.83
43.11
43.59
41.19
36.31
29.52
21.36
12.16
2.17
-8.29
-18.62
-27.85
-34.77
-38.17
-37.24
-31.82
-22.64
-11.09
1.13
12.55
22.18
29.66
35.01
38.47
40.41
41.34
41.86
42.54
43.62
44.86
45.59
44.95
42.34
37.74
31.66
24.95
18.46
12.89
8.70
6.25
5.74
7.15
10.08
13.78
17.44
20.62
23.51
26.87
31.59
38.04
45.84
53.90
60.94
66.01
68.73
69.15
67.43
63.69
58.07
51.03
43.48
36.63
31.53
28.58
27.24
26.24
24.05
19.36
11.56
0.78
-12.11
-25.74
-38.54
-49.13
-56.83
-61.90
-65.51
-69.24
-74.23
-80.56
-87.15
-92.46
-95.39
-96.09
-95.99
-97.00
-100.45
-106.42
-113.75
-120.60
-125.12
-125.92
-122.18
-113.74
-101.17
-85.78
-69.57
-54.80
-43.62
-37.58
-37.43
-43.03
-53.29
-66.10
-78.59
-87.60
-90.54
-86.27
-75.52
-60.62
-44.60
-30.14
-18.98
-11.83
-8.72
-9.17
-12.31
-16.78
-20.78
-22.26
-19.44
-11.32
2.11
19.80
39.96
60.46
79.39
95.28
107.33
115.22
118.91
118.58
114.51
107.23
97.50
86.30
74.65
63.37
53.05
44.13
36.98
31.94
29.04
27.73
26.75
24.37
19.06
10.35
-0.71
-11.76
-20.08
-23.68
-22.33
-17.59
-12.14
-8.65
-8.65
-12.00
-16.77
-19.82
-17.64
-7.58
11.17
37.01
66.20
94.03
116.36
130.94
137.79
138.52
135.11
128.84
120.12
109.11
96.60
84.35
74.65
69.20
68.28
70.50
73.49
74.92
73.37
68.60
61.19
52.00
41.74
30.87
19.92
9.60
0.93
-5.07
-7.68
-6.87
-3.35
1.48
5.82
7.95
6.67
1.74
-6.09
-15.28
-24.26
-32.04
-38.74
-45.42
-53.48
-63.85
-76.55
-90.82
-105.66
-120.31
-134.41
-147.86
-160.44
-171.72
-181.16
-188.58
-194.24
-198.66
-202.04
-203.81
-202.64
-197.02
-186.20
-170.76
-152.58
-134.05
-116.99
-101.98
-88.40
-75.10
-61.27
-46.76
-31.83
-16.32
0.95
22.07
49.20
83.31
123.22
165.45
204.92
236.20
254.94
258.86
248.22
225.60
195.27
162.14
130.68
104.14
84.08
70.45
62.00
56.93
53.24
49.13
43.26
35.00
24.62
13.32
2.95
-4.65
-8.37
-8.29
-5.75
-2.87
-1.84
-4.34
-11.18
-22.14
-36.10
-51.13
-64.75
-74.36
-77.85
-74.31
-64.23
-49.37
-32.01
-14.17
2.76
17.97
30.85
40.57
46.19
47.10
43.41
36.11
26.65
16.30
5.69
-5.11
-16.11
-26.86
-36.11
-42.22
-43.94
-40.96
-34.28
-25.90
-18.19
-13.19
-12.00
-14.33
-18.48
-21.56
-20.15
-11.27
6.62
32.73
63.54
93.24
115.09
122.93
112.94
84.62
41.12
-11.44
-65.22
-112.52
-147.24
-165.92
-167.84
-154.37
-127.99
-91.56
-48.01
-0.43
47.53
91.81
128.41
154.24
168.08
170.95
165.57
155.35
143.18
130.57
117.66
103.75
88.16
71.06
53.43
36.59
21.48
8.10
-4.56
-17.81
-32.49
-48.39
-64.33
-78.77
-90.71
-100.09
-107.67
-114.13
-119.42
-122.35
-121.20
-114.68
-102.95
-88.01
-73.17
-62.02
-57.19
-59.71
-68.91
-83.00
-99.71
-116.79
-132.24
-144.37
-151.90
-154.14
-151.26
-144.25
-134.45
-122.84
-109.20
-91.93
-68.67
-37.77
0.17
41.73
81.40
113.68
135.20
145.88
148.47
146.63
142.94
137.85
130.29
119.17
104.84
89.37
75.55
65.29
58.71
54.15
49.49
43.55
37.02
32.14
31.55
36.79
47.34
60.53
72.42
79.27
78.88
71.31
58.75
44.39
31.19
20.84
13.76
9.74
8.81
11.65
19.07
31.16
46.50
62.25
75.09
82.55
84.04
80.83
75.27
69.63
65.27
62.41
60.47
58.56
55.80
51.42
44.73
35.08
21.97
5.34
-14.24
-35.38
-56.16
-74.52
-88.90
-98.72
-104.44
-107.31
-108.82
-110.11
-111.74
-113.60
-115.28
-116.31
-116.30
-114.93
-111.95
-107.10
-100.25
-91.58
-81.63
-71.30
-61.66
-53.67
-47.95
-44.65
-43.47
-43.61
-43.79
-42.29
-37.11
-26.43
-9.29
13.86
41.01
68.89
93.68
111.87
120.83
119.24
107.15
85.87
57.89
26.53
-4.50
-31.76
-52.69
-65.99
-71.64
-70.65
-64.61
-55.30
-44.44
-33.43
-23.17
-14.14
-6.41
0.03
4.97
7.78
7.57
3.53
-4.65
-16.41
-30.35
-44.59
-57.30
-67.14
-73.47
-76.18
-75.43
-71.40
-64.24
-54.30
-42.23
-29.08
-16.13
-4.54
4.96
12.22
17.47
20.98
22.80
22.73
20.57
16.55
11.57
7.14
4.92
6.08
10.88
18.53
27.63
36.77
45.09
52.40
58.90
64.68
69.36
72.13
72.14
69.09
63.48
56.51
49.53
43.44
38.37
33.83
29.19
24.10
18.75
13.66
9.41
6.33
4.39
3.39
3.16
3.62
4.81
6.73
9.19
11.80
13.99
15.14
14.77
12.63
8.81
3.62
-2.42
-8.78
-14.91
-20.26
-24.19
-26.05
-25.35
-21.98
-16.37
-9.39
-2.17
4.31
9.38
12.73
14.29
14.13
12.40
9.46
5.91
2.52
0.09
-0.87
-0.23
1.75
4.56
7.52
10.01
11.50
11.65
10.45
8.20
5.46
2.82
0.62
-1.18
-2.99
-5.37
-8.81
-13.44
-19.11
-25.38
-31.73
-37.56
-42.22
-45.01
-45.22
-42.35
-36.30
-27.55
-17.09
-6.16
4.07
12.72
19.24
23.33
24.83
23.71
20.22
14.91
8.68
2.61
-2.25
-5.15
-5.71
-3.96
-0.27
4.70
10.16
15.32
19.55
22.54
24.25
24.92
24.80
24.09
22.82
20.93
18.35
15.09
11.25
7.00
2.48
-2.21
-7.03
-11.91
-16.70
-21.11
-24.79
-27.39
-28.79
-29.11
-28.74
-28.15
-27.80
-28.01
-28.95
-30.62
-32.88
-35.33
-37.38
-38.24
-37.21
-33.93
-28.60
-21.95
-15.02
-8.68
-3.41
0.90
4.74
8.63
12.76
17.02
20.97
24.20
26.64
28.58
30.49
32.70
35.04
36.72
36.54
33.59
27.87
20.54
13.51
8.54
6.35
6.44
7.44
7.90
6.96
4.40
0.34
-5.15
-12.11
-20.27
-28.60
-35.25
-38.18
-36.26
-29.89
-21.16
-13.02
-7.98
-7.29
-10.45
-15.56
-20.10
-21.84
-19.39
-12.35
-1.13
13.18
29.06
44.78
58.76
70.01
78.38
84.61
90.04
96.07
103.57
112.30
120.71
126.08
125.15
115.05
94.56
65.01
30.50
-3.16
-30.48
-48.48
-57.84
-62.18
-65.86
-71.57
-79.05
-85.60
-88.12
-85.12
-77.56
-68.28
-60.26
-55.13
-52.59
-51.14
-49.33
-46.78
-44.31
-43.37
-44.99
-48.99
-53.85
-57.19
-56.77
-51.36
-41.32
-28.33
-14.55
-1.47
10.76
23.25
37.39
53.58
70.53
85.52
95.54
98.75
95.33
87.51
78.50
71.23
67.27
66.65
68.25
70.55
72.33
72.77
71.38
67.58
60.60
49.55
33.96
14.28
-7.84
-29.71
-48.39
-61.70
-68.95
-71.06
-70.01
-67.74
-65.32
-62.63
-58.83
-53.26
-46.13
-38.71
-32.87
-30.21
-31.32
-35.46
-40.84
-45.17
-46.46
-43.49
-36.06
-24.84
-11.13
3.47
17.22
28.35
35.25
36.70
32.32
22.82
10.03
-3.59
-15.59
-24.30
-29.17
-30.56
-29.33
-26.22
-21.66
-15.77
-8.68
-0.75
7.38
14.99
21.56
26.86
30.94
33.88
35.63
35.83
34.09
30.19
24.49
18.07
12.32
8.41
6.65
6.27
5.82
4.02
0.36
-4.66
-9.96
-14.72
-18.97
-23.64
-29.84
-37.95
-46.93
-54.50
-58.07
-55.80
-47.45
-34.37
-18.96
-3.80
9.14
18.87
25.29
28.81
29.98
29.07
26.09
20.94
13.71
4.93
-4.42
-13.06
-19.75
-23.60
-24.38
-22.48
-18.78
-14.33
-10.12
-6.79
-4.56
-3.11
-1.68
0.52
3.96
8.30
12.49
15.22
15.65
14.10
12.07
11.65
14.49
20.91
29.76
38.89
46.17
50.40
51.59
50.59
48.44
45.70
42.29
37.63
31.03
22.05
10.86
-1.73
-14.30
-25.29
-33.54
-38.63
-41.08
-41.99
-42.40
-42.75
-42.60
-41.00
-37.03
-30.41
-21.65
-11.81
-2.08
6.59
13.55
18.28
20.40
19.70
16.40
11.28
5.49
0.13
-4.16
-7.35
-9.85
-12.13
-14.28
-16.09
-17.25
-17.62
-17.29
-16.34
-14.61
-11.70
-7.19
-1.09
5.97
12.92
18.72
22.79
25.19
26.45
27.12
27.50
27.52
26.85
25.14
22.11
17.64
11.67
4.34
-4.02
-12.70
-20.64
-26.57
-29.31
-28.13
-23.03
-14.80
-4.77
5.40
14.30
20.95
25.01
26.64
26.32
24.60
21.90
18.54
14.75
10.75
6.80
3.12
-0.16
-3.06
-5.73
-8.32
-10.85
-13.15
-14.91
-15.73
-15.31
-13.48
-10.22
-5.64
0.02
6.40
13.01
19.31
24.82
29.25
32.51
34.58
35.41
34.80
32.61
28.87
24.02
18.79
13.95
9.88
6.30
2.41
-2.80
-9.90
-18.67
-27.98
-36.08
-41.17
-41.90
-37.79
-29.30
-17.63
-4.28
9.29
21.93
32.85
41.52
47.51
50.60
50.87
48.85
45.49
41.80
38.44
35.48
32.48
29.00
25.01
21.08
18.01
16.28
15.54
14.67
12.33
7.68
0.83
-7.22
-15.14
-21.91
-27.15
-31.06
-34.03
-36.26
-37.72
-38.36
-38.38
-38.27
-38.62
-39.78
-41.57
-43.34
-44.26
-43.72
-41.62
-38.38
-34.83
-31.86
-30.24
-30.38
-32.23
-35.22
-38.35
-40.33
-40.00
-36.65
-30.36
-21.87
-12.41
-3.26
4.60
10.60
14.60
16.72
17.24
16.52
14.98
13.14
11.53
10.61
10.64
11.61
13.26
15.20
16.96
18.24
18.89
18.98
18.69
18.23
17.72
17.14
16.39
15.38
14.15
12.83
11.61
10.60
9.76
8.91
7.81
6.21
4.01
1.24
-1.91
-5.09
-7.93
-10.09
-11.44
-12.13
-12.57
-13.35
-14.85
-17.14
-19.78
-22.04
-23.14
-22.57
-20.23
-16.39
-11.52
-6.05
-0.31
5.46
11.03
16.08
20.24
23.24
25.00
25.75
25.93
26.04
26.47
27.36
28.61
29.93
30.98
31.37
30.76
28.86
25.51
20.78
14.99
8.66
2.36
-3.38
-8.24
-11.99
-14.55
-15.82
-15.77
-14.42
-11.87
-8.33
-4.06
0.54
4.95
8.49
10.39
9.94
6.72
0.91
-6.75
-14.92
-22.11
-27.01
-28.98
-28.14
-25.38
-21.87
-18.75
-16.73
-16.07
-16.73
-18.58
-21.49
-25.28
-29.71
-34.40
-38.91
-42.70
-45.01
-44.90
-41.21
-33.11
-20.60
-4.88
11.85
27.06
38.83
46.54
50.85
53.08
54.40
55.16
55.01
53.30
49.72
44.59
38.84
33.47
29.23
26.27
24.19
22.29
19.96
16.84
12.83
8.00
2.42
-3.86
-10.74
-17.94
-24.97
-31.25
-36.17
-39.35
-40.65
-40.19
-38.29
-35.42
-32.16
-29.16
-27.11
-26.81
-29.07
-34.56
-43.45
-54.79
-66.26
-74.31
-74.94
-64.86
-42.40
-7.99
35.95
85.21
134.18
176.48
206.02
218.57
213.27
193.20
164.44
133.80
106.39
84.17
66.31
50.94
36.86
24.30
14.24
7.15
2.20
-2.40
-8.28
-15.89
-24.34
-32.09
-37.92
-41.46
-43.02
-43.00
-41.43
-38.03
-32.81
-26.49
-20.47
-16.23
-14.46
-14.58
-14.97
-13.97
-10.83
-6.32
-2.46
-1.53
-4.99
-12.63
-22.51
-31.51
-36.34
-34.61
-25.58
-10.22
9.05
29.10
46.82
59.93
67.52
70.10
69.18
66.20
61.45
53.55
39.86
18.10
-11.91
-47.20
-82.11
-110.28
-127.20
-132.04
-127.72
-119.30
-111.53
-106.85
-104.84
-103.17
-99.26
-91.76
-80.96
-68.41
-55.84
-44.51
-34.94
-27.23
-21.44
-17.60
-15.75
-15.84
-17.87
-21.95
-28.15
-36.10
-44.58
-51.56
-54.99
-53.88
-49.06
-42.97
-38.43
-37.02
-38.31
-40.10
-39.84
-36.00
-28.84
-19.94
-11.13
-3.50
2.91
8.74
14.62
20.72
26.61
31.55
34.86
36.20
35.55
33.12
29.10
23.75
17.33
10.36
3.66
-1.73
-4.79
-4.95
-2.32
2.23
7.25
11.20
12.97
12.27
9.66
6.44
4.15
4.14
6.96
12.24
18.59
23.96
26.51
25.71
23.16
22.46
28.22
44.15
71.41
107.53
146.69
181.07
202.86
206.23
188.84
152.62
103.47
50.01
1.45
-34.68
-54.34
-57.64
-48.17
-31.62
-14.05
-0.60
5.10
1.44
-10.89
-28.78
-47.52
-62.04
-68.72
-66.71
-58.14
-46.86
-36.48
-28.90
-24.00
-20.59
-17.48
-14.37
-11.66
-9.73
-8.35
-6.83
-4.73
-2.51
-1.49
-3.09
-7.75
-14.58
-21.81
-27.94
-32.61
-36.69
-41.36
-46.99
-52.62
-56.27
-56.11
-51.53
-43.60
-34.51
-26.48
-20.74
-17.13
-14.50
-11.62
-7.94
-3.95
-0.96
-0.23
-2.38
-7.05
-13.05
-18.90
-23.31
-25.51
-25.26
-22.70
-18.15
-12.07
-5.00
2.42
9.51
15.66
20.39
23.49
24.98
25.17
24.47
23.36
22.20
21.16
20.21
19.19
17.92
16.32
14.43
12.31
10.06
7.77
5.59
3.75
2.51
2.03
2.19
2.60
2.69
2.00
0.34
-2.05
-4.66
-6.90
-8.35
-8.96
-8.97
-8.87
-9.17
-10.21
-11.94
-13.95
-15.44
-15.56
-13.70
-9.73
-4.10
2.35
8.67
14.11
18.35
21.36
23.41
24.80
25.81
26.67
27.45
28.07
28.28
27.67
25.91
22.90
18.96
14.81
11.34
9.32
9.07
10.39
12.72
15.48
18.30
21.25
24.56
28.39
32.56
36.53
39.54
41.01
40.68
38.69
35.41
31.32
26.84
22.30
17.98
14.10
10.74
7.84
5.15
2.41
-0.47
-3.28
-5.47
-6.38
-5.51
-2.93
0.62
3.84
5.35
4.25
0.49
-5.10
-11.17
-16.33
-19.72
-21.22
-21.28
-20.62
-19.75
-18.78
-17.46
-15.32
-12.11
-7.92
-3.26
1.05
4.15
5.40
4.75
2.74
0.36
-1.44
-2.17
-2.08
-2.08
-3.15
-5.63
-8.73
-10.74
-9.81
-5.03
2.92
11.91
19.35
23.36
23.55
20.99
17.35
13.90
10.85
7.34
2.01
-6.08
-16.87
-29.25
-41.36
-51.26
-57.44
-59.17
-56.46
-49.92
-40.48
-29.15
-16.84
-4.22
8.16
19.85
30.18
38.46
43.93
46.19
45.45
42.64
39.14
36.24
34.69
34.38
34.68
34.81
34.43
33.65
32.86
32.31
31.84
31.01
29.37
26.86
23.88
21.06
18.73
16.61
13.86
9.54
3.15
-5.12
-14.50
-24.03
-32.82
-40.15
-45.41
-47.94
-47.19
-43.05
-36.23
-28.26
-21.00
-16.02
-14.08
-15.17
-18.83
-24.65
-32.34
-41.60
-51.60
-60.94
-67.87
-70.93
-69.54
-64.26
-56.49
-47.78
-39.26
-31.40
-24.21
-17.69
-12.19
-8.35
-6.82
-7.85
-11.13
-15.87
-21.15
-26.04
-29.65
-31.08
-29.54
-24.56
-16.20
-4.95
8.44
23.24
38.62
53.18
64.77
70.94
70.22
63.41
54.16
47.92
49.80
62.16
83.47
108.91
132.29
148.21
153.33
146.55
128.52
101.05
66.81
29.22
-7.93
-41.12
-67.87
-87.20
-99.48
-105.90
-107.91
-106.77
-103.52
-99.01
-94.05
-89.38
-85.53
-82.74
-80.92
-79.70
-78.46
-76.43
-72.92
-67.43
-59.99
-51.22
-42.38
-35.04
-30.56
-29.42
-30.71
-32.15
-30.69
-23.78
-10.61
7.22
26.06
41.55
50.28
51.11
45.48
36.70
28.51
23.77
23.58
27.09
32.00
35.45
35.13
30.14
21.45
11.34
2.40
-3.59
-6.35
-6.88
-6.58
-6.31
-5.90
-4.48
-1.15
4.23
10.75
16.81
20.81
21.88
20.18
16.81
13.25
10.81
10.05
10.74
12.18
13.70
15.13
16.85
19.45
23.12
27.33
30.88
32.42
31.02
26.63
19.96
12.09
3.87
-4.31
-12.45
-20.64
-28.71
-36.27
-43.11
-49.34
-55.25
-60.58
-63.80
-62.14
-52.55
-33.45
-6.09
25.37
55.26
78.59
92.96
98.98
99.34
97.15
94.57
92.47
90.90
89.81
89.38
89.80
90.81
91.50
90.60
87.00
80.26
70.75
59.42
47.29
35.02
22.79
10.36
-2.47
-15.58
-28.30
-39.62
-48.55
-54.39
-56.81
-55.82
-51.50
-44.05
-33.83
-21.48
-7.98
5.58
18.30
29.76
40.07
49.63
58.75
67.32
74.61
79.37
80.22
76.00
66.17
51.08
31.96
10.66
-10.74
-30.35
-46.66
-58.57
-65.21
-66.02
-60.86
-50.47
-36.55
-21.67
-8.64
0.36
4.38
3.90
0.38
-4.52
-9.75
-15.13
-21.16
-28.41
-36.84
-45.56
-52.97
-57.38
-57.68
-53.83
-46.87
-38.59
-30.88
-25.16
-22.06
-21.38
-22.27
-23.55
-24.03
-22.80
-19.46
-14.32
-8.39
-3.23
-0.46
-1.23
-5.77
-13.30
-22.32
-31.23
-38.92
-45.06
-50.00
-54.49
-59.14
-64.18
-69.37
-74.15
-77.77
-79.55
-78.94
-75.75
-70.09
-62.51
-53.85
-45.10
-37.08
-30.27
-24.71
-19.99
-15.41
-10.27
-4.14
3.01
10.73
18.28
24.98
30.39
34.58
37.97
41.08
44.19
47.14
49.41
50.38
49.72
47.51
44.33
40.94
38.00
35.86
34.53
33.77
33.23
32.57
31.48
29.70
26.98
23.13
18.09
12.01
5.12
-2.28
-10.06
-18.44
-27.93
-39.17
-52.52
-67.70
-83.69
-98.76
-110.94
-118.47
-120.28
-116.20
-107.00
-94.11
-79.35
-64.49
-50.93
-39.41
-29.98
-22.12
-15.06
-8.15
-1.00
6.39
13.77
20.77
27.01
32.17
35.96
38.16
38.60
37.21
34.11
29.57
24.13
18.47
13.29
9.08
6.06
4.07
2.75
1.67
0.54
-0.67
-1.82
-2.61
-2.67
-1.63
0.83
4.97
10.78
17.89
25.50
32.52
37.71
40.05
38.91
34.16
26.17
15.68
3.73
-8.50
-19.70
-28.52
-33.76
-34.68
-31.20
-24.09
-14.79
-5.00
3.79
10.76
15.76
19.16
21.45
22.98
23.82
23.88
23.16
21.84
20.32
19.04
18.37
18.47
19.31
20.77
22.68
24.90
27.28
29.61
31.53
32.59
32.31
30.33
26.54
21.16
14.64
7.55
0.36
-6.64
-13.39
-19.93
-26.29
-32.38
-37.96
-42.61
-45.89
-47.34
-46.63
-43.64
-38.60
-32.12
-25.19
-18.97
-14.53
-12.51
-12.90
-15.00
-17.59
-19.21
-18.59
-14.99
-8.40
0.39
10.01
18.95
25.93
30.26
32.00
31.85
30.79
29.72
29.19
29.33
30.05
31.20
32.70
34.46
36.25
37.55
37.68
36.08
32.66
27.89
22.69
17.98
14.24
11.31
8.54
5.11
0.50
-5.29
-11.79
-18.28
-24.07
-28.65
-31.78
-33.45
-33.85
-33.30
-32.21
-30.93
-29.71
-28.64
-27.64
-26.48
-24.98
-23.10
-20.99
-19.02
-17.57
-16.89
-16.85
-16.94
-16.25
-13.88
-9.15
-1.98
7.08
16.94
26.32
34.10
39.57
42.63
43.64
43.33
42.52
41.91
41.95
42.76
44.22
46.07
48.00
49.77
51.25
52.46
53.53
54.66
56.05
57.74
59.66
61.57
63.21
64.47
65.37
66.00
66.35
66.14
64.84
61.92
57.20
51.20
45.15
40.51
38.50
39.52
43.06
47.90
52.36
54.62
52.67
44.42
28.21
3.56
-28.01
-62.80
-95.68
-121.67
-137.57
-142.89
-139.56
-130.62
-118.80
-105.60
-91.48
-76.46
-61.03
-46.31
-33.71
-24.25
-18.05
-14.38
-12.12
-10.42
-8.97
-8.01
-7.83
-8.39
-9.13
-9.28
-8.31
-6.25
-3.80
-1.92
-1.43
-2.56
-4.97
-7.92
-10.63
-12.55
-13.39
-13.13
-11.77
-9.44
-6.31
-2.71
0.80
3.56
4.92
4.45
2.12
-1.73
-6.49
-11.50
-16.31
-20.72
-24.78
-28.66
-32.44
-35.91
-38.54
-39.64
-38.52
-34.78
-28.51
-20.24
-10.82
-1.16
7.89
15.68
21.66
25.47
26.84
25.67
21.98
15.86
7.49
-2.78
-14.40
-26.72
-39.18
-51.62
-64.28
-77.44
-90.71
-102.50
-110.14
-110.74
-102.52
-85.87
-63.61
-40.16
-19.98
-6.17
0.35
0.61
-3.17
-8.63
-13.74
-17.20
-18.35
-17.10
-13.73
-8.50
-1.35
8.24
20.95
37.11
55.80
74.38
88.69
94.33
88.80
73.38
53.73
38.34
35.37
49.07
77.93
115.25
152.06
180.90
198.38
205.50
205.62
201.85
195.27
185.01
169.79
149.51
126.02
102.36
81.38
64.58
51.71
41.33
31.98
23.01
14.85
8.66
5.51
5.61
7.92
10.42
10.76
7.27
-0.39
-10.96
-22.00
-30.86
-35.59
-35.65
-31.88
-25.91
-19.31
-12.97
-6.99
-1.15
4.23
7.84
7.41
0.49
-14.43
-37.00
-64.82
-93.97
-120.09
-139.56
-150.20
-151.50
-144.28
-130.17
-111.23
-89.66
-67.70
-47.51
-30.98
-19.36
-13.02
-11.41
-13.25
-16.94
-20.97
-24.15
-25.72
-25.18
-22.27
-16.95
-9.52
-0.72
8.27
16.15
21.80
24.70
24.97
23.30
20.66
17.93
15.68
14.08
12.96
11.98
10.81
9.30
7.47
5.43
3.27
0.87
-2.13
-6.17
-11.60
-18.47
-26.40
-34.73
-42.66
-49.46
-54.56
-57.52
-57.97
-55.72
-50.82
-43.73
-35.21
-26.01
-16.60
-6.97
3.19
14.05
25.20
35.53
43.55
47.91
47.98
44.05
37.20
28.95
20.79
13.94
9.16
6.72
6.44
7.81
10.14
12.70
14.85
16.09
16.15
14.99
12.89
10.43
8.40
7.55
8.27
10.41
13.22
15.61
16.55
15.42
12.28
7.86
3.28
-0.33
-2.30
-2.72
-2.44
-2.65
-4.33
-7.72
-12.18
-16.40
-18.95
-18.81
-15.75
-10.31
-3.48
3.65
10.25
15.80
20.08
23.01
24.62
25.03
24.53
23.65
22.94
22.95
23.90
25.79
28.31
31.12
33.93
36.64
39.25
41.86
44.51
47.06
49.13
50.08
49.20
45.97
40.31
32.68
24.03
15.36
7.40
0.36
-5.93
-11.77
-17.23
-22.10
-26.06
-29.02
-31.28
-33.42
-35.89
-38.65
-41.03
-41.93
-40.39
-36.06
-29.33
-20.99
-11.71
-1.63
9.52
21.98
35.28
48.06
58.53
65.24
67.77
66.94
64.31
61.31
58.62
55.99
52.72
48.20
42.23
35.05
27.00
18.18
8.37
-2.71
-15.16
-28.60
-42.14
-54.59
-64.78
-71.94
-75.92
-77.17
-76.56
-75.02
-73.20
-71.39
-69.50
-67.33
-64.76
-61.92
-59.08
-56.52
-54.37
-52.49
-50.55
-48.12
-44.79
-40.31
-34.59
-27.82
-20.40
-12.96
-6.27
-0.98
2.50
4.17
4.50
4.28
4.31
5.16
6.92
9.29
11.73
13.77
15.18
16.08
16.74
17.36
17.89
18.07
17.55
16.11
13.83
10.98
7.88
4.73
1.51
-1.89
-5.50
-9.19
-12.67
-15.65
-18.01
-19.94
-21.85
-24.15
-27.06
-30.51
-34.09
-37.28
-39.59
-40.72
-40.63
-39.46
-37.43
-34.67
-31.20
-26.95
-21.86
-15.99
-9.57
-2.97
3.38
9.09
13.83
17.36
19.51
20.24
19.68
18.18
16.31
14.75
14.16
15.03
17.59
21.77
27.30
33.81
40.90
48.17
55.16
61.34
66.03
68.49
68.06
64.33
57.22
47.12
34.76
21.07
6.99
-6.76
-19.80
-31.95
-43.16
-53.16
-61.44
-67.25
-69.93
-69.25
-65.61
-59.93
-53.28
-46.42
-39.51
-32.11
-23.54
-13.33
-1.60
10.83
22.68
32.57
39.47
42.90
43.08
40.76
36.97
32.70
28.64
24.97
21.44
17.48
12.52
6.22
-1.35
-9.74
-18.27
-26.28
-33.32
-39.14
-43.64
-46.63
-47.71
-46.36
-42.13
-34.93
-25.24
-14.06
-2.67
7.77
16.46
23.05
27.39
29.34
28.74
25.53
20.05
13.08
5.74
-0.93
-6.25
-10.08
-12.59
-13.93
-14.08
-12.86
-10.28
-6.75
-3.09
-0.21
1.27
1.38
0.71
0.20
0.66
2.48
5.53
9.36
13.31
16.86
19.64
21.45
22.18
21.84
20.45
18.10
15.00
11.53
8.17
5.45
3.76
3.24
3.69
4.69
5.71
6.31
6.26
5.60
4.53
3.32
2.21
1.36
0.82
0.61
0.69
1.04
1.67
2.54
3.57
4.60
5.35
5.47
4.57
2.38
-1.17
-5.84
-10.98
-15.67
-18.89
-19.82
-18.10
-14.00
-8.35
-2.29
3.18
7.45
10.50
12.77
14.76
16.78
18.72
20.19
20.76
20.33
19.14
17.69
16.36
15.19
13.83
11.81
8.89
5.31
1.77
-0.89
-2.10
-1.79
-0.42
1.27
2.65
3.38
3.48
3.11
2.30
0.89
-1.46
-5.04
-9.83
-15.40
-21.05
-26.06
-29.89
-32.36
-33.54
-33.58
-32.64
-30.91
-28.69
-26.39
-24.46
-23.17
-22.40
-21.66
-20.24
-17.57
-13.48
-8.24
-2.47
3.20
8.31
12.64
16.08
18.52
19.71
19.38
17.43
14.06
9.85
5.55
1.78
-1.30
-4.00
-6.96
-10.71
-15.23
-19.92
-23.74
-25.76
-25.55
-23.47
-20.46
-17.68
-16.19
-16.72
-19.51
-24.03
-28.69
-30.82
-27.27
-15.67
4.34
30.36
57.80
81.42
97.11
103.16
100.23
90.39
75.97
58.78
40.16
21.32
3.59
-11.69
-23.69
-32.34
-38.23
-42.21
-44.80
-46.09
-45.75
-43.38
-38.89
-32.59
-25.24
-17.81
-11.34
-6.60
-3.96
-3.29
-4.02
-5.38
-6.61
-7.15
-6.73
-5.32
-3.05
-0.10
3.37
7.20
11.18
15.03
18.33
20.56
21.24
20.11
17.32
13.53
9.73
6.93
5.79
6.38
8.21
10.49
12.41
13.44
13.32
11.99
9.52
6.03
1.83
-2.60
-6.58
-9.48
-10.85
-10.67
-9.33
-7.51
-5.97
-5.41
-6.24
-8.55
-12.00
-15.80
-18.92
-20.31
-19.34
-15.96
-10.72
-4.50
1.83
7.70
12.85
17.23
20.78
23.43
25.12
25.92
26.11
26.03
25.96
25.97
25.93
25.65
25.05
24.21
23.30
22.50
21.79
20.96
19.69
17.71
14.95
11.58
7.97
4.54
1.65
-0.53
-1.97
-2.77
-3.04
-2.88
-2.43
-1.85
-1.41
-1.34
-1.80
-2.77
-4.12
-5.65
-7.24
-8.92
-10.89
-13.39
-16.63
-20.66
-25.32
-30.30
-35.11
-39.20
-41.98
-42.92
-41.69
-38.18
-32.60
-25.43
-17.32
-8.97
-0.99
6.11
11.99
16.43
19.36
20.83
20.98
20.06
18.36
16.18
13.79
11.44
9.31
7.56
6.26
5.43
4.99
4.81
4.71
4.56
4.32
4.06
3.94
4.13
4.74
5.73
6.92
7.96
8.48
8.12
6.66
4.09
0.64
-3.23
-6.91
-9.82
-11.57
-12.04
-11.46
-10.30
-9.19
-8.76
-9.46
-11.47
-14.57
-18.20
-21.52
-23.62
-23.88
-22.05
-18.40
-13.53
-8.18
-3.01
1.51
5.13
7.72
9.29
9.89
9.67
8.83
7.69
6.57
5.76
5.44
5.61
6.11
6.65
6.93
6.80
6.28
5.61
5.10
5.01
5.45
6.33
7.45
8.55
9.37
9.75
9.70
9.38
9.06
9.03
9.43
10.15
10.91
11.35
11.24
10.53
9.37
7.89
6.11
3.89
0.92
-3.10
-8.29
-14.53
-21.34
-27.99
-33.57
-37.24
-38.53
-37.49
-34.83
-31.68
-29.23
-28.27
-28.88
-30.43
-31.70
-31.41
-28.56
-22.76
-14.35
-4.25
6.21
15.72
23.18
27.93
29.78
28.94
25.91
21.44
16.42
11.81
8.53
7.16
7.79
9.86
12.37
14.15
14.31
12.52
9.13
4.94
0.84
-2.46
-4.66
-5.82
-6.19
-6.10
-5.81
-5.49
-5.26
-5.23
-5.51
-6.20
-7.43
-9.21
-11.55
-14.30
-17.18
-19.74
-21.36
-21.38
-19.29
-14.92
-8.54
-0.80
7.42
15.33
22.35
28.22
32.81
36.01
37.58
37.24
34.83
30.51
24.85
18.67
12.85
8.01
4.45
2.12
0.84
0.49
1.05
2.58
5.09
8.41
12.11
15.53
17.94
18.66
17.34
14.01
9.16
3.45
-2.39
-7.93
-13.11
-18.17
-23.40
-28.80
-34.04
-38.54
-41.77
-43.55
-44.04
-43.71
-43.05
-42.43
-42.12
-42.23
-42.74
-43.36
-43.48
-42.26
-38.95
-33.26
-25.64
-17.21
-9.33
-2.97
1.61
4.87
7.53
10.18
12.93
15.54
17.72
19.39
20.73
22.04
23.40
24.63
25.38
25.38
24.72
23.81
23.25
23.48
24.54
26.15
27.88
29.38
30.57
31.62
32.75
34.06
35.39
36.33
36.35
35.02
32.08
27.55
21.58
14.49
6.69
-1.31
-8.93
-15.58
-20.83
-24.54
-27.00
-28.81
-30.60
-32.78
-35.26
-37.46
-38.49
-37.63
-34.55
-29.53
-23.28
-16.68
-10.50
-5.23
-1.12
1.73
3.32
3.80
3.56
3.26
3.73
5.61
9.15
14.03
19.47
24.57
28.64
31.31
32.46
32.01
29.79
25.61
19.54
12.10
4.24
-2.92
-8.56
-12.43
-14.87
-16.52
-17.95
-19.37
-20.67
-21.53
-21.73
-21.19
-20.07
-18.69
-17.51
-17.09
-18.06
-21.02
-26.34
-34.03
-43.61
-54.07
-64.01
-71.83
-76.02
-75.53
-70.10
-60.33
-47.64
-33.83
-20.58
-9.00
0.49
8.00
13.88
18.40
21.74
24.01
25.51
26.77
28.37
30.76
34.06
38.06
42.35
46.51
50.23
53.32
55.62
56.97
57.20
56.17
53.80
50.12
45.30
39.55
33.23
26.72
20.45
14.82
10.12
6.54
4.16
2.98
2.87
3.58
4.66
5.53
5.57
4.28
1.36
-3.20
-9.25
-16.49
-24.46
-32.53
-39.78
-45.07
-47.21
-45.38
-39.44
-30.18
-19.15
-8.28
0.69
6.64
9.31
9.20
7.29
4.70
2.37
1.02
1.02
2.46
5.13
8.55
12.01
14.81
16.41
16.59
15.49
13.46
10.86
7.93
4.72
1.19
-2.68
-6.77
-10.85
-14.68
-18.04
-20.73
-22.61
-23.56
-23.64
-23.05
-22.05
-20.85
-19.39
-17.36
-14.42
-10.55
-6.32
-2.77
-1.08
-2.02
-5.61
-11.07
-17.08
-22.12
-24.87
-24.35
-20.03
-11.99
-0.94
11.78
24.41
35.22
42.96
47.21
48.41
47.62
46.08
44.78
44.23
44.37
44.68
44.48
43.23
40.76
37.34
33.59
30.23
27.82
26.59
26.39
26.90
27.71
28.53
29.22
29.69
29.82
29.35
27.93
25.19
20.91
15.21
8.61
1.98
-3.77
-8.07
-10.97
-13.20
-15.82
-19.64
-24.80
-30.69
-36.24
-40.55
-43.41
-45.33
-47.20
-49.61
-52.37
-54.47
-54.46
-51.19
-44.30
-34.36
-22.57
-10.32
1.22
11.32
19.55
25.63
29.39
30.72
29.78
27.07
23.34
19.46
16.09
13.54
11.74
10.38
9.06
7.55
5.83
4.16
2.99
2.80
3.99
6.65
10.52
14.87
18.69
20.88
20.55
17.30
11.35
3.56
-4.80
-12.34
-17.91
-20.83
-21.10
-19.35
-16.65
-14.27
-13.29
-14.34
-17.40
-21.79
-26.24
-29.24
-29.44
-26.03
-19.03
-9.33
1.56
11.93
20.36
26.06
28.99
29.68
29.03
27.87
26.78
25.99
25.47
25.06
24.65
24.25
23.97
23.84
23.76
23.44
22.60
21.12
19.18
17.19
15.63
14.77
14.52
14.50
14.19
13.17
11.19
8.21
4.34
-0.34
-5.80
-12.14
-19.41
-27.56
-36.25
-44.87
-52.67
-58.91
-63.16
-65.38
-65.96
-65.58
-65.01
-64.95
-65.89
-67.99
-70.96
-73.98
-75.71
-74.69
-69.79
-60.84
-48.86
-35.83
-24.03
-15.19
-9.89
-7.49
-6.50
-5.30
-2.76
1.42
6.77
12.28
16.94
20.09
21.71
22.36
22.97
24.43
27.28
31.55
36.87
42.81
49.05
55.55
62.38
69.49
76.54
82.88
87.80
90.74
91.41
89.83
86.17
80.59
73.20
64.02
53.19
41.02
28.11
15.26
3.35
-6.87
-15.01
-21.19
-26.00
-30.42
-35.42
-41.57
-48.65
-55.60
-60.70
-62.19
-58.85
-50.50
-38.08
-23.38
-8.56
4.44
14.17
19.89
21.51
19.61
15.20
9.55
3.87
-0.95
-4.51
-6.82
-8.04
-8.30
-7.53
-5.76
-3.18
-0.31
2.13
3.58
3.85
3.15
1.85
0.22
-1.78
-4.41
-7.88
-12.05
-16.40
-20.22
-22.88
-24.12
-24.14
-23.50
-22.76
-22.31
-22.17
-21.92
-20.93
-18.62
-14.73
-9.54
-3.82
1.32
4.83
5.98
4.63
1.20
-3.44
-8.12
-11.67
-13.17
-12.13
-8.66
-3.45
2.39
7.63
11.27
12.84
12.39
10.46
7.79
5.04
2.69
0.99
0.03
-0.23
0.18
1.16
2.54
4.12
5.67
6.90
7.46
7.01
5.35
2.68
-0.36
-2.71
-3.30
-1.55
2.36
7.48
12.50
16.28
18.26
18.47
17.25
14.92
11.49
6.83
0.80
-6.45
-14.38
-22.15
-28.85
-33.71
-36.33
-36.90
-36.01
-34.54
-33.27
-32.61
-32.42
-32.10
-30.81
-27.74
-22.33
-14.53
-4.87
5.39
14.61
21.07
23.65
22.23
17.81
12.05
6.67
2.82
0.87
0.70
2.12
5.21
10.25
17.41
26.38
36.24
45.68
53.40
58.45
60.39
59.25
55.42
49.57
42.52
35.24
28.74
23.81
20.91
20.02
20.77
22.58
24.88
27.14
28.96
29.94
29.66
27.69
23.71
17.62
9.64
0.23
-9.92
-20.04
-29.33
-37.03
-42.48
-45.25
-45.21
-42.66
-38.38
-33.42
-28.84
-25.37
-23.22
-22.05
-21.22
-20.10
-18.29
-15.67
-12.36
-8.59
-4.61
-0.71
2.68
5.08
6.05
5.39
3.34
0.62
-1.73
-2.62
-1.28
2.48
8.17
14.70
20.66
24.68
25.85
23.97
19.60
13.88
8.13
3.45
0.39
-1.07
-1.34
-1.01
-0.60
-0.53
-1.12
-2.64
-5.20
-8.78
-13.05
-17.49
-21.62
-25.22
-28.57
-32.29
-37.06
-43.20
-50.50
-58.25
-65.48
-71.30
-74.98
-76.06
-74.12
-68.81
-59.95
-47.72
-32.79
-16.34
0.23
15.67
29.15
40.39
49.39
56.27
61.01
63.48
63.62
61.63
58.16
54.14
50.63
48.40
47.72
48.33
49.54
50.57
50.78
49.79
47.48
43.87
38.99
32.91
25.82
18.14
10.58
3.98
-0.88
-3.57
-4.18
-3.30
-1.79
-0.55
-0.19
-0.92
-2.55
-4.71
-7.05
-9.37
-11.75
-14.41
-17.59
-21.42
-25.87
-30.82
-36.03
-41.19
-45.78
-49.07
-50.13
-48.17
-42.81
-34.41
-24.06
-13.30
-3.62
3.96
9.16
12.32
14.09
15.07
15.55
15.56
14.98
13.75
11.98
9.93
7.93
6.24
4.99
4.20
3.76
3.48
3.25
3.02
2.83
2.84
3.11
3.65
4.27
4.72
4.79
4.36
3.44
2.08
0.25
-2.17
-5.35
-9.31
-13.84
-18.50
-22.73
-26.09
-28.39
-29.76
-30.54
-31.26
-32.45
-34.54
-37.67
-41.55
-45.34
-47.85
-47.78
-44.24
-37.12
-27.19
-15.96
-5.18
3.61
9.46
12.14
12.08
10.06
7.02
3.80
1.04
-0.85
-1.70
-1.41
0.09
2.90
7.17
12.97
20.21
28.53
37.26
45.46
52.05
55.99
56.53
53.42
46.98
37.98
27.46
16.48
5.92
-3.57
-11.58
-17.88
-22.42
-25.29
-26.70
-26.91
-26.20
-24.86
-23.17
-21.48
-20.18
-19.57
-19.73
-20.33
-20.58
-19.40
-15.81
-9.26
0.06
11.20
22.71
33.03
40.84
45.32
46.23
43.84
38.83
32.12
24.69
17.44
10.99
5.64
1.42
-1.80
-4.11
-5.56
-6.20
-6.09
-5.43
-4.41
-3.22
-1.97
-0.77
0.26
0.95
1.09
0.55
-0.63
-2.27
-4.05
-5.67
-6.86
-7.48
-7.54
-7.21
-6.88
-7.15
-8.72
-12.19
-17.88
-25.63
-34.77
-44.15
-52.36
-57.97
-59.84
-57.32
-50.50
-40.17
-27.69
-14.64
-2.44
7.97
16.34
23.00
28.53
33.47
38.01
42.08
45.45
48.04
50.03
51.83
53.79
56.00
58.21
60.02
61.16
61.58
61.45
60.84
59.51
56.91
52.42
45.66
36.60
25.73
13.83
1.91
-9.04
-18.20
-25.24
-30.42
-34.67
-39.26
-45.27
-53.06
-62.19
-71.68
-80.57
-88.44
-95.34
-101.37
-106.09
-108.26
-106.18
-98.47
-84.91
-66.73
-46.31
-26.22
-8.21
7.28
21.01
34.22
47.65
61.01
72.96
81.90
86.86
88.03
86.49
83.57
80.19
76.69
73.11
69.70
67.03
65.67
65.68
66.22
65.82
63.12
57.61
49.99
41.68
34.05
27.60
21.60
14.56
5.02
-7.60
-22.56
-37.90
-51.17
-60.36
-64.67
-64.79
-62.53
-60.04
-59.06
-60.50
-64.43
-70.33
-77.48
-85.08
-92.23
-97.71
-99.91
-97.10
-88.05
-72.87
-53.83
-35.34
-22.85
-20.91
-31.14
-51.21
-75.38
-96.61
-109.13
-110.37
-101.44
-86.26
-69.83
-56.57
-49.04
-47.55
-50.29
-54.11
-55.53
-52.08
-43.18
-30.35
-16.47
-4.38
4.24
9.32
11.92
13.60
15.89
20.32
28.59
42.33
62.32
87.68
115.53
141.76
162.41
175.19
180.08
178.90
174.04
167.21
158.98
149.07
137.10
123.22
108.23
93.50
80.58
70.84
65.18
63.69
65.52
69.00
72.11
73.10
71.00
65.89
58.55
50.07
41.34
32.82
24.62
16.75
9.26
2.29
-4.18
-10.34
-16.58
-23.23
-30.30
-37.34
-43.59
-48.27
-50.90
-51.48
-50.45
-48.46
-46.19
-44.15
-42.65
-41.83
-41.73
-42.32
-43.57
-45.45
-47.87
-50.71
-53.79
-56.89
-59.75
-62.06
-63.54
-63.98
-63.39
-62.08
-60.50
-59.03
-57.67
-55.84
-52.55
-46.85
-38.34
-27.55
-15.84
-4.90
3.85
9.60
12.30
12.37
10.53
7.60
4.53
2.35
2.14
4.74
10.52
19.17
29.61
40.15
48.83
53.91
54.30
49.89
41.55
30.91
19.84
9.97
2.40
-2.39
-4.46
-4.24
-2.49
-0.22
1.45
1.50
-0.69
-5.18
-11.37
-18.29
-24.87
-30.22
-33.58
-34.32
-31.81
-25.67
-16.04
-3.93
8.79
19.87
27.37
30.42
29.39
25.64
20.83
16.18
12.11
8.36
4.37
-0.19
-5.12
-9.74
-13.09
-14.39
-13.43
-10.67
-7.07
-3.65
-1.11
0.48
1.50
2.41
3.34
3.99
3.76
2.33
-0.11
-2.79
-4.67
-4.88
-3.10
0.50
5.41
11.01
16.65
21.62
25.00
25.83
23.44
17.88
10.06
1.54
-6.02
-11.41
-14.26
-14.99
-14.53
-14.00
-14.46
-16.67
-21.00
-27.16
-34.17
-40.56
-44.73
-45.56
-42.73
-36.75
-28.66
-19.61
-10.60
-2.39
4.36
9.07
11.35
11.27
9.56
7.61
7.12
9.50
15.39
24.39
35.27
46.43
56.40
64.30
69.80
73.05
74.29
73.78
71.74
68.47
64.34
59.71
54.82
49.56
43.66
36.87
29.24
21.15
13.22
5.99
-0.28
-5.70
-10.60
-15.32
-19.93
-24.11
-27.27
-28.72
-27.96
-24.93
-20.10
-14.40
-8.87
-4.38
-1.38
0.13
0.42
-0.19
-1.53
-3.53
-6.18
-9.34
-12.76
-16.13
-19.20
-21.88
-24.21
-26.27
-28.05
-29.38
-29.94
-29.41
-27.55
-24.36
-20.11
-15.36
-10.82
-7.20
-5.10
-4.81
-6.28
-9.16
-12.81
-16.59
-19.99
-22.79
-25.05
-27.01
-28.90
-30.72
-32.19
-32.77
-31.91
-29.15
-24.46
-18.18
-11.08
-4.10
1.84
6.10
8.38
8.75
7.57
5.29
2.33
-1.00
-4.43
-7.70
-10.45
-12.25
-12.65
-11.29
-8.08
-3.22
2.80
9.26
15.43
20.70
24.72
27.42
28.94
29.48
29.16
27.93
25.65
22.22
17.70
12.47
7.15
2.39
-1.35
-4.11
-6.46
-9.38
-13.92
-20.83
-30.08
-40.70
-50.91
-58.43
-61.07
-57.41
-47.15
-31.31
-11.98
8.24
26.84
41.83
52.01
56.95
56.88
52.62
45.41
36.81
28.39
21.40
16.53
13.81
12.81
12.96
13.84
15.31
17.39
20.11
23.38
26.96
30.52
33.74
36.29
37.92
38.47
37.88
36.31
34.05
31.37
28.41
24.98
20.58
14.64
6.78
-2.85
-13.54
-24.05
-33.02
-39.35
-42.48
-42.53
-40.21
-36.55
-32.65
-29.50
-27.75
-27.66
-28.98
-31.12
-33.24
-34.54
-34.49
-32.98
-30.29
-26.96
-23.56
-20.57
-18.34
-17.07
-16.87
-17.66
-19.11
-20.72
-21.90
-22.16
-21.40
-19.89
-18.29
-17.30
-17.39
-18.61
-20.57
-22.63
-24.19
-24.88
-24.62
-23.57
-21.93
-19.82
-17.20
-13.89
-9.64
-4.27
2.21
9.51
17.06
24.16
30.20
34.88
38.38
41.23
44.01
47.07
50.26
53.05
54.75
54.87
53.40
50.69
47.26
43.47
39.34
34.65
29.19
23.02
16.58
10.42
4.97
0.26
-4.09
-8.53
-13.31
-18.21
-22.57
-25.49
-26.35
-25.09
-22.42
-19.67
-18.32
-19.53
-23.70
-30.27
-37.96
-45.11
-50.25
-52.46
-51.54
-47.95
-42.62
-36.71
-31.35
-27.45
-25.44
-25.25
-26.32
-27.84
-28.98
-29.16
-28.03
-25.44
-21.45
-16.19
-9.92
-3.00
4.12
11.01
17.33
22.87
27.56
31.39
34.40
36.59
38.00
38.71
38.75
38.15
36.92
35.13
32.94
30.60
28.31
26.09
23.61
20.33
15.68
9.41
1.88
-5.89
-12.44
-16.35
-16.65
-13.24
-6.92
0.89
8.56
14.75
18.83
20.89
21.59
21.78
22.06
22.59
23.12
23.26
22.73
21.58
20.13
18.74
17.59
16.64
15.71
14.68
13.59
12.63
11.96
11.54
11.11
10.30
8.84
6.65
3.87
0.77
-2.42
-5.61
-8.76
-11.87
-14.92
-17.83
-20.54
-23.08
-25.55
-28.14
-31.03
-34.35
-38.03
-41.78
-45.03
-46.93
-46.58
-43.33
-37.10
-28.55
-18.99
-10.00
-2.89
1.70
3.95
4.59
4.54
4.50
4.83
5.55
6.51
7.56
8.62
9.64
10.66
11.77
13.08
14.69
16.61
18.65
20.47
21.67
21.89
21.01
19.08
16.34
13.12
9.68
6.26
3.08
0.38
-1.60
-2.70
-2.91
-2.42
-1.64
-1.01
-0.87
-1.34
-2.37
-3.77
-5.49
-7.65
-10.60
-14.80
-20.63
-28.23
-37.32
-47.15
-56.46
-63.49
-66.25
-62.90
-52.28
-34.51
-11.25
14.36
38.40
57.10
67.88
70.02
64.71
54.58
42.75
31.88
23.56
18.11
14.90
12.94
11.42
9.96
8.61
7.65
7.27
7.52
8.31
9.57
11.34
13.75
16.83
20.39
24.00
27.06
29.05
29.66
28.98
27.38
25.37
23.37
21.50
19.59
17.22
14.00
9.73
4.59
-0.87
-5.93
-9.93
-12.61
-14.18
-15.30
-16.90
-19.78
-24.32
-30.27
-36.76
-42.52
-46.34
-47.36
-45.43
-41.08
-35.30
-29.20
-23.64
-19.10
-15.69
-13.32
-11.90
-11.44
-12.00
-13.60
-16.09
-19.18
-22.41
-25.25
-27.07
-27.26
-25.30
-20.99
-14.55
-6.75
1.43
9.04
15.68
21.46
26.92
32.49
38.22
43.63
47.96
50.55
51.12
49.84
47.11
43.29
38.59
33.06
26.72
19.69
12.34
5.20
-1.09
-5.95
-9.04
-10.44
-10.68
-10.69
-11.45
-13.72
-17.76
-23.34
-29.84
-36.46
-42.40
-46.95
-49.46
-49.43
-46.59
-41.09
-33.51
-24.85
-16.26
-8.77
-3.05
0.69
2.65
3.32
3.28
3.04
2.98
3.30
4.04
5.12
6.34
7.46
8.18
8.29
7.72
6.63
5.30
4.10
3.24
2.81
2.73
2.87
3.15
3.57
4.10
4.58
4.78
4.43
3.45
2.04
0.68
-0.04
0.30
1.72
3.79
5.79
6.98
6.90
5.48
3.02
-0.09
-3.60
-7.56
-12.24
-17.98
-24.79
-32.21
-39.30
-44.87
-47.89
-47.85
-44.85
-39.54
-32.83
-25.56
-18.33
-11.46
-5.08
0.73
5.85
10.16
13.62
16.31
18.53
20.64
22.99
25.65
28.40
30.71
31.98
31.79
30.06
27.14
23.57
19.91
16.54
13.72
11.59
10.27
9.86
10.28
11.25
12.29
12.84
12.48
11.03
8.56
5.37
1.83
-1.62
-4.53
-6.52
-7.35
-6.99
-5.62
-3.59
-1.33
0.73
2.17
2.62
1.80
-0.39
-3.72
-7.60
-11.15
-13.37
-13.54
-11.48
-7.63
-2.95
1.46
4.79
6.78
7.68
8.06
8.46
9.12
9.94
10.67
11.03
10.97
10.61
10.19
9.92
9.89
10.05
10.31
10.57
10.77
10.88
10.82
10.54
9.98
9.11
7.93
6.35
4.15
1.05
-3.19
-8.56
-14.68
-20.80
-26.03
-29.71
-31.60
-31.95
-31.26
-30.00
-28.35
-26.14
-23.11
-19.12
-14.40
-9.52
-5.20
-2.01
-0.15
0.63
0.90
1.36
2.55
4.71
7.75
11.32
14.93
18.07
20.40
21.76
22.11
21.56
20.30
18.58
16.69
14.91
13.52
12.71
12.55
13.01
13.99
15.37
17.10
19.16
21.57
24.35
27.38
30.42
33.08
34.90
35.45
34.49
31.94
28.04
23.19
17.89
12.58
7.57
3.02
-1.06
-4.78
-8.26
-11.58
-14.78
-17.76
-20.41
-22.57
-24.19
-25.31
-26.17
-27.07
-28.28
-29.88
-31.59
-32.85
-32.92
-31.20
-27.46
-21.97
-15.40
-8.67
-2.64
2.02
4.96
6.12
5.67
3.93
1.32
-1.72
-4.74
-7.34
-9.23
-10.29
-10.61
-10.47
-10.18
-9.92
-9.67
-9.26
-8.49
-7.36
-6.14
-5.34
-5.51
-6.97
-9.76
-13.61
-18.13
-22.94
-27.65
-31.91
-35.35
-37.69
-38.85
-39.08
-38.93
-39.06
-40.03
-42.07
-45.04
-48.50
-51.88
-54.53
-55.80
-55.02
-51.58
-45.15
-35.95
-24.90
-13.58
-3.84
2.79
5.52
4.60
1.16
-3.35
-7.63
-10.94
-13.07
-14.06
-13.84
-11.99
-7.73
-0.12
11.52
27.34
46.85
68.88
91.79
113.76
133.02
148.13
158.20
162.99
162.87
158.72
151.63
142.60
132.29
120.91
108.22
93.85
77.66
60.07
42.11
25.29
11.04
0.30
-6.88
-11.34
-14.46
-17.63
-21.73
-26.84
-32.32
-37.10
-40.25
-41.26
-40.27
-37.90
-35.11
-32.93
-32.22
-33.57
-37.03
-42.08
-47.57
-52.00
-53.97
-52.69
-48.16
-41.18
-32.88
-24.27
-16.02
-8.42
-1.73
3.72
7.52
9.43
9.60
8.60
7.10
5.47
3.55
0.70
-3.74
-9.99
-17.52
-25.18
-31.60
-35.75
-37.35
-36.90
-35.38
-33.81
-32.85
-32.68
-33.06
-33.65
-34.26
-34.98
-36.17
-38.33
-41.87
-46.89
-53.06
-59.52
-64.89
-67.58
-66.10
-59.59
-48.21
-33.28
-16.91
-1.47
11.14
19.91
24.81
26.54
26.06
24.23
21.69
18.84
15.99
13.42
11.42
10.24
10.04
10.89
12.77
15.59
19.12
23.05
27.04
30.73
33.84
36.09
37.17
36.68
34.24
29.68
23.16
15.38
7.34
0.21
-5.05
-7.98
-8.68
-7.76
-6.12
-4.65
-3.97
-4.29
-5.36
-6.62
-7.38
-7.14
-5.76
-3.54
-1.17
0.49
0.59
-1.49
-5.85
-11.96
-18.61
-24.13
-26.84
-25.63
-20.32
-11.83
-1.81
7.84
15.64
20.77
23.11
23.04
21.13
17.96
14.06
9.99
6.25
3.26
1.21
-0.01
-0.78
-1.55
-2.61
-3.89
-4.87
-4.78
-2.92
0.96
6.56
13.07
19.52
25.14
29.47
32.34
33.71
33.48
31.56
27.96
23.00
17.21
11.31
5.84
1.10
-2.95
-6.49
-9.73
-12.72
-15.42
-17.71
-19.53
-20.88
-21.87
-22.69
-23.65
-25.08
-27.29
-30.42
-34.20
-37.88
-40.29
-40.15
-36.50
-29.11
-18.67
-6.67
5.02
14.69
21.23
24.32
24.31
22.05
18.52
14.67
11.25
8.80
7.65
7.89
9.39
11.80
14.62
17.30
19.41
20.73
21.35
21.55
21.68
22.00
22.58
23.29
23.87
24.08
23.77
22.87
21.38
19.26
16.52
13.18
9.35
5.26
1.16
-2.68
-6.08
-8.92
-11.19
-12.94
-14.38
-15.74
-17.29
-19.20
-21.46
-23.88
-26.11
-27.84
-28.91
-29.45
-29.86
-30.68
-32.32
-34.82
-37.59
-39.52
-39.23
-35.46
-27.53
-15.55
-0.38
16.57
33.69
49.39
62.30
71.39
76.08
76.33
72.62
65.79
56.82
46.50
35.42
24.06
12.96
2.81
-5.64
-11.81
-15.46
-16.84
-16.47
-14.92
-12.67
-9.98
-7.03
-4.04
-1.32
0.80
2.12
2.74
2.93
3.11
3.53
4.20
4.73
4.59
3.19
0.16
-4.55
-10.68
-17.61
-24.47
-30.26
-33.96
-34.86
-32.72
-27.95
-21.62
-15.25
-10.42
-8.38
-9.74
-14.28
-20.93
-28.03
-33.60
-35.85
-33.64
-26.81
-16.22
-3.55
9.22
20.29
28.48
33.35
35.14
34.61
32.72
30.45
28.58
27.58
27.60
28.45
29.78
31.18
32.34
33.10
33.41
33.35
33.07
32.74
32.50
32.43
32.46
32.46
32.25
31.69
30.76
29.54
28.17
26.76
25.34
23.82
22.10
20.10
17.77
15.15
12.29
9.23
6.02
2.76
-0.36
-3.08
-5.21
-6.70
-7.77
-8.88
-10.66
-13.63
-18.13
-24.14
-31.25
-38.65
-45.19
-49.55
-50.53
-47.44
-40.35
-30.23
-18.72
-7.63
1.52
7.95
11.68
13.32
13.73
13.61
13.38
13.17
12.98
12.80
12.70
12.79
13.18
13.90
14.90
16.05
17.20
18.21
18.94
19.33
19.34
19.00
18.36
17.41
16.11
14.32
11.95
8.98
5.60
2.14
-0.95
-3.40
-5.11
-6.32
-7.44
-8.90
-10.92
-13.47
-16.36
-19.36
-22.38
-25.49
-28.90
-32.77
-37.11
-41.79
-46.52
-50.86
-54.24
-55.94
-55.10
-51.05
-43.50
-32.84
-20.17
-7.09
4.80
14.26
20.78
24.52
26.09
26.20
25.48
24.40
23.41
22.99
23.74
26.12
30.29
35.87
41.97
47.53
51.59
53.69
53.90
52.69
50.56
47.81
44.40
40.16
34.95
28.91
22.43
16.00
9.99
4.54
-0.34
-4.63
-8.06
-10.16
-10.46
-8.73
-5.32
-1.17
2.44
4.18
3.14
-1.01
-7.88
-16.59
-25.97
-34.70
-41.64
-45.94
-47.21
-45.73
-42.31
-38.14
-34.30
-31.48
-29.71
-28.56
-27.40
-25.83
-23.81
-21.63
-19.72
-18.39
-17.81
-17.97
-18.77
-20.10
-21.78
-23.62
-25.44
-27.14
-28.79
-30.45
-32.12
-33.64
-34.68
-34.86
-33.91
-31.75
-28.48
-24.33
-19.62
-14.69
-9.96
-5.84
-2.70
-0.73
0.01
-0.38
-1.79
-4.22
-7.69
-12.12
-17.18
-22.25
-26.53
-29.20
-29.62
-27.35
-22.21
-14.31
-4.14
7.31
18.60
28.10
34.40
36.70
35.11
30.51
24.22
17.54
11.48
6.66
3.39
1.78
1.80
3.28
5.87
9.11
12.49
15.55
17.97
19.57
20.33
20.24
19.36
17.70
15.25
12.04
8.15
3.73
-0.99
-5.79
-10.47
-14.89
-18.99
-22.72
-26.01
-28.80
-30.99
-32.58
-33.65
-34.44
-35.36
-36.88
-39.37
-42.83
-46.73
-50.05
-51.51
-50.04
-45.20
-37.49
-28.14
-18.80
-10.88
-5.21
-1.74
0.23
1.74
3.76
6.92
11.40
17.07
23.58
30.48
37.26
43.24
47.73
50.03
49.72
46.80
41.74
35.37
28.60
22.20
16.62
12.04
8.44
5.73
3.71
2.08
0.43
-1.81
-5.15
-10.00
-16.42
-24.10
-32.23
-39.71
-45.29
-47.93
-47.12
-43.00
-36.38
-28.51
-20.72
-14.07
-9.08
-5.62
-3.02
-0.30
3.46
8.76
15.50
22.97
30.19
36.24
40.51
42.81
43.31
42.34
40.25
37.36
34.00
30.48
27.03
23.75
20.59
17.53
14.68
12.37
11.09
11.29
13.15
16.53
21.00
26.06
31.28
36.38
41.16
45.41
48.89
51.34
52.54
52.41
50.97
48.26
44.21
38.62
31.27
22.05
11.21
-0.62
-12.49
-23.39
-32.56
-39.68
-44.87
-48.58
-51.20
-52.87
-53.34
-52.10
-48.64
-42.74
-34.69
-25.23
-15.40
-6.21
1.60
7.66
12.00
14.86
16.55
17.37
17.59
17.48
17.25
17.07
16.95
16.78
16.42
15.83
15.10
14.46
14.11
14.06
14.17
14.13
13.61
12.41
10.47
7.91
4.88
1.64
-1.57
-4.52
-7.11
-9.30
-11.15
-12.72
-14.03
-15.00
-15.46
-15.29
-14.49
-13.31
-12.19
-11.70
-12.36
-14.44
-17.78
-21.76
-25.36
-27.39
-26.89
-23.35
-16.90
-8.29
1.28
10.51
18.27
23.83
27.02
28.15
27.83
26.74
25.44
24.19
23.02
21.77
20.31
18.65
16.99
15.60
14.68
14.30
14.30
14.49
14.69
14.84
14.94
14.86
14.33
12.92
10.33
6.58
2.13
-2.27
-5.79
-7.89
-8.49
-7.91
-6.70
-5.42
-4.45
-3.97
-4.08
-4.84
-6.36
-8.81
-12.20
-16.36
-20.83
-24.90
-27.78
-28.82
-27.78
-24.84
-20.57
-15.72
-10.96
-6.80
-3.58
-1.55
-0.97
-2.07
-4.84
-8.98
-13.78
-18.35
-21.86
-23.82
-24.16
-23.14
-21.15
-18.48
-15.36
-12.00
-8.66
-5.71
-3.50
-2.25
-1.96
-2.37
-3.10
-3.82
-4.33
-4.68
-5.01
-5.51
-6.21
-7.05
-7.89
-8.63
-9.28
-9.90
-10.66
-11.62
-12.83
-14.35
-16.33
-18.99
-22.52
-26.83
-31.36
-35.08
-36.72
-35.24
-30.22
-22.09
-12.03
-1.52
8.10
15.99
21.82
25.59
27.43
27.53
26.19
24.01
21.83
20.53
20.67
22.24
24.72
27.30
29.33
30.57
31.19
31.58
32.06
32.69
33.29
33.60
33.42
32.70
31.46
29.72
27.37
24.21
20.00
14.63
8.22
1.10
-6.20
-13.05
-18.78
-22.83
-24.80
-24.57
-22.34
-18.63
-14.19
-9.83
-6.31
-4.15
-3.66
-4.92
-7.87
-12.34
-18.02
-24.38
-30.60
-35.64
-38.44
-38.16
-34.47
-27.77
-19.04
-9.63
-0.80
6.57
12.13
16.01
18.53
20.04
20.78
20.95
20.70
20.24
19.79
19.49
19.43
19.57
19.88
20.34
20.96
21.75
22.63
23.44
23.98
24.10
23.75
23.00
21.95
20.70
19.28
17.67
15.90
14.00
12.04
10.08
8.10
6.09
4.03
2.01
0.21
-1.21
-2.21
-2.93
-3.67
-4.68
-6.11
-7.89
-9.87
-11.92
-14.03
-16.35
-19.04
-22.16
-25.60
-29.12
-32.37
-34.99
-36.60
-36.78
-35.13
-31.41
-25.68
-18.45
-10.59
-3.14
2.99
7.32
9.90
11.15
11.64
11.83
11.96
12.03
12.00
11.85
11.66
11.56
11.58
11.67
11.63
11.31
10.65
9.77
8.90
8.26
7.94
7.81
7.61
7.08
6.12
4.81
3.44
2.32
1.64
1.41
1.47
1.58
1.57
1.40
1.14
0.89
0.66
0.33
-0.34
-1.62
-3.72
-6.67
-10.33
-14.38
-18.41
-21.91
-24.48
-25.88
-26.16
-25.68
-25.06
-24.96
-25.83
-27.65
-29.88
-31.51
-31.46
-28.89
-23.54
-15.86
-6.83
2.26
10.22
16.25
20.04
21.79
22.04
21.42
20.54
19.79
19.33
19.14
19.03
18.76
18.14
17.09
15.66
14.01
12.35
10.88
9.69
8.80
8.10
7.43
6.70
5.82
4.85
3.88
2.96
2.14
1.42
0.76
0.13
-0.45
-0.98
-1.44
-1.86
-2.34
-2.99
-3.98
-5.43
-7.42
-9.97
-13.03
-16.48
-20.23
-24.20
-28.32
-32.58
-36.92
-41.15
-44.94
-47.73
-48.78
-47.42
-43.24
-36.28
-27.18
-17.04
-7.12
1.47
8.07
12.57
15.28
16.71
17.38
17.58
17.44
16.94
16.12
15.08
14.06
13.33
13.08
13.38
14.07
14.91
15.62
16.01
16.08
15.94
15.80
15.82
16.04
16.41
16.76
16.91
16.71
16.05
15.01
13.69
12.24
10.76
9.18
7.38
5.18
2.49
-0.62
-3.93
-7.11
-9.86
-12.04
-13.67
-15.00
-16.32
-17.99
-20.28
-23.40
-27.32
-31.75
-36.07
-39.36
-40.66
-39.23
-34.88
-28.09
-19.82
-11.21
-3.17
3.83
9.65
14.28
17.54
19.00
18.22
15.15
10.34
4.93
0.32
-2.40
-2.72
-0.83
2.59
6.78
11.16
15.42
19.40
22.97
25.87
27.78
28.40
27.60
25.47
22.32
18.55
14.55
10.55
6.63
2.82
-0.84
-4.18
-6.93
-8.89
-10.02
-10.55
-10.89
-11.54
-12.92
-15.32
-18.81
-23.37
-28.82
-34.80
-40.68
-45.59
-48.48
-48.43
-44.96
-38.24
-29.15
-19.02
-9.32
-1.17
4.84
8.70
10.85
11.88
12.26
12.29
12.05
11.50
10.61
9.40
7.99
6.61
5.53
4.97
5.00
5.50
6.16
6.61
6.55
5.89
4.79
3.65
3.01
3.35
5.05
8.20
12.62
17.73
22.64
26.28
27.69
26.34
22.30
16.25
9.26
2.41
-3.53
-8.26
-11.93
-14.93
-17.69
-20.39
-22.90
-24.69
-24.96
-22.88
-17.90
-10.06
-0.08
10.65
20.43
27.66
31.25
30.88
26.98
20.57
12.86
4.94
-2.44
-8.92
-14.33
-18.56
-21.43
-22.64
-21.97
-19.30
-14.81
-8.96
-2.42
4.08
9.87
14.54
17.96
20.26
21.68
22.42
22.48
21.78
20.22
17.87
15.02
12.05
9.27
6.83
4.71
2.77
0.88
-1.05
-3.14
-5.61
-8.74
-12.75
-17.55
-22.64
-27.08
-29.76
-29.81
-26.90
-21.39
-14.24
-6.62
0.47
6.45
11.18
14.83
17.60
19.60
20.81
21.21
20.91
20.19
19.46
19.07
19.21
19.81
20.63
21.35
21.71
21.60
21.05
20.18
19.10
17.89
16.52
14.88
12.81
10.20
7.00
3.26
-0.86
-5.07
-9.09
-12.62
-15.45
-17.50
-18.93
-20.06
-21.41
-23.39
-26.16
-29.36
-32.13
-33.30
-31.77
-26.98
-19.11
-9.09
1.67
11.74
20.09
26.22
30.15
32.19
32.71
32.01
30.34
27.95
25.19
22.45
20.13
18.47
17.52
17.09
16.82
16.29
15.19
13.37
11.01
8.44
6.05
4.10
2.64
1.46
0.19
-1.49
-3.73
-6.50
-9.61
-12.82
-15.89
-18.66
-20.95
-22.66
-23.81
-24.71
-25.96
-28.20
-31.79
-36.45
-41.10
-44.21
-44.37
-40.86
-34.02
-25.06
-15.58
-7.02
-0.29
4.30
6.84
7.63
7.09
5.77
4.33
3.43
3.51
4.70
6.79
9.38
12.04
14.52
16.72
18.66
20.38
21.93
23.35
24.67
25.86
26.85
27.49
27.53
26.79
25.16
22.65
19.38
15.57
11.47
7.40
3.67
0.56
-1.83
-3.62
-5.16
-6.97
-9.56
-13.23
-18.05
-23.66
-29.43
-34.41
-37.58
-38.01
-35.21
-29.30
-21.08
-11.83
-2.97
4.39
9.77
13.32
15.67
17.56
19.53
21.79
24.28
26.78
29.15
31.33
33.41
35.42
37.35
39.09
40.46
41.33
41.59
41.17
40.02
38.07
35.25
31.52
26.96
21.81
16.46
11.33
6.67
2.50
-1.46
-5.63
-10.32
-15.58
-21.04
-26.07
-30.05
-32.60
-33.73
-33.81
-33.42
-33.12
-33.35
-34.34
-36.11
-38.42
-40.77
-42.33
-42.08
-39.10
-32.90
-23.70
-12.50
-0.86
9.61
17.68
22.85
25.38
26.02
25.66
25.04
24.61
24.55
24.92
25.72
26.92
28.44
30.10
31.65
32.89
33.66
33.98
33.99
33.91
33.89
33.97
34.09
34.07
33.78
33.07
31.79
29.80
26.93
22.98
17.76
11.17
3.24
-5.68
-14.99
-23.83
-31.25
-36.49
-39.21
-39.70
-38.76
-37.58
-37.24
-38.45
-41.34
-45.42
-49.79
-53.39
-55.19
-54.46
-50.81
-44.36
-35.72
-25.95
-16.28
-7.90
-1.60
2.39
4.40
5.13
5.35
5.65
6.25
7.10
7.90
8.38
8.37
7.84
6.88
5.61
4.17
2.65
1.22
-0.01
-0.93
-1.62
-2.27
-3.27
-4.93
-7.35
-10.33
-13.30
-15.61
-16.70
-16.42
-14.98
-12.82
-10.38
-7.93
-5.57
-3.35
-1.40
0.09
0.90
0.98
0.53
-0.09
-0.54
-0.72
-0.82
-1.25
-2.41
-4.46
-7.24
-10.29
-13.07
-15.00
-15.66
-14.80
-12.40
-8.66
-4.05
0.72
4.84
7.60
8.66
8.18
6.74
5.13
3.99
3.68
4.13
5.12
6.31
7.40
8.12
8.19
7.35
5.43
2.47
-1.27
-5.33
-9.20
-12.43
-14.70
-15.90
-16.03
-15.24
-13.68
-11.37
-8.21
-3.94
1.68
8.59
16.32
24.01
30.63
35.44
38.17
39.07
38.65
37.40
35.53
32.99
29.70
25.75
21.53
17.62
14.57
12.70
11.97
12.09
12.64
13.09
12.89
11.40
8.12
2.87
-3.88
-11.10
-17.38
-21.44
-22.57
-20.88
-17.12
-12.37
-7.58
-3.45
-0.35
1.55
2.19
1.65
0.21
-1.66
-3.47
-4.80
-5.49
-5.61
-5.37
-5.03
-4.82
-4.87
-5.26
-5.98
-6.95
-8.06
-9.21
-10.28
-11.22
-11.96
-12.45
-12.63
-12.48
-12.03
-11.41
-10.83
-10.51
-10.61
-11.18
-12.13
-13.13
-13.70
-13.27
-11.41
-7.97
-3.23
2.12
7.14
10.87
12.55
11.78
8.58
3.34
-3.22
-10.17
-16.44
-21.07
-23.46
-23.49
-21.66
-18.87
-16.11
-14.08
-12.95
-12.33
-11.51
-9.88
-7.16
-3.56
0.48
4.50
8.25
11.77
15.20
18.63
21.97
24.87
26.85
27.53
26.77
24.78
22.01
19.00
16.16
13.72
11.68
9.98
8.64
7.77
7.51
7.83
8.50
9.02
8.85
7.63
5.29
2.09
-1.49
-4.95
-7.86
-9.95
-11.17
-11.64
-11.67
-11.71
-12.22
-13.56
-15.86
-18.99
-22.66
-26.53
-30.32
-33.78
-36.64
-38.53
-39.01
-37.74
-34.64
-30.04
-24.56
-18.92
-13.75
-9.41
-6.07
-3.76
-2.58
-2.63
-4.02
-6.73
-10.50
-14.92
-19.44
-23.45
-26.44
-28.01
-27.95
-26.29
-23.32
-19.47
-15.27
-11.13
-7.29
-3.72
-0.21
3.58
7.84
12.54
17.38
21.85
25.44
27.82
28.99
29.20
28.85
28.26
27.62
26.95
26.16
25.14
23.78
21.91
19.34
15.93
11.67
6.73
1.47
-3.68
-8.33
-12.30
-15.58
-18.34
-20.77
-22.97
-24.81
-25.95
-25.93
-24.38
-21.15
-16.40
-10.53
-4.00
2.77
9.50
15.91
21.68
26.38
29.58
31.08
31.00
29.72
27.82
25.75
23.79
21.98
20.30
18.73
17.38
16.38
15.87
15.92
16.46
17.38
18.48
19.55
20.35
20.65
20.31
19.29
17.69
15.66
13.39
10.98
8.46
5.87
3.28
0.92
-0.90
-1.88
-1.95
-1.36
-0.65
-0.48
-1.34
-3.29
-5.93
-8.52
-10.19
-10.22
-8.11
-3.69
2.82
10.75
18.99
26.11
30.72
31.84
29.29
23.69
16.21
8.21
0.81
-5.23
-9.58
-12.18
-13.18
-12.94
-12.00
-10.97
-10.41
-10.65
-11.71
-13.36
-15.32
-17.37
-19.47
-21.75
-24.37
-27.35
-30.57
-33.66
-36.13
-37.50
-37.50
-36.22
-34.19
-32.17
-30.94
-31.02
-32.46
-34.93
-37.83
-40.52
-42.56
-43.87
-44.68
-45.39
-46.31
-47.39
-48.12
-47.59
-44.83
-39.23
-30.87
-20.59
-9.71
0.36
8.69
14.95
19.35
22.36
24.48
26.10
27.51
29.03
30.94
33.39
36.22
38.99
41.04
41.83
41.03
38.68
34.97
30.22
24.74
18.97
13.51
9.05
6.12
4.85
4.92
5.68
6.53
7.02
6.92
6.01
3.87
-0.04
-6.08
-14.11
-23.32
-32.40
-40.08
-45.51
-48.57
-49.72
-49.65
-48.99
-48.05
-46.89
-45.41
-43.40
-40.63
-36.80
-31.62
-24.91
-16.71
-7.37
2.61
12.70
22.59
32.20
41.59
50.79
59.53
67.27
73.36
77.29
78.91
78.48
76.50
73.53
69.91
65.79
61.10
55.76
49.79
43.35
36.63
29.73
22.64
15.32
7.88
0.72
-5.45
-9.80
-11.61
-10.62
-7.12
-1.93
3.88
9.29
13.62
16.50
17.80
17.42
15.20
10.95
4.63
-3.51
-12.82
-22.33
-30.92
-37.50
-41.26
-41.80
-39.27
-34.32
-28.04
-21.65
-16.12
-11.92
-8.82
-6.11
-2.90
1.44
7.00
13.34
19.68
25.22
29.37
31.89
32.85
32.47
31.03
28.83
26.17
23.37
20.76
18.55
16.74
15.07
13.07
10.30
6.54
2.00
-2.76
-6.99
-10.05
-11.66
-11.90
-11.17
-9.96
-8.76
-7.91
-7.58
-7.80
-8.43
-9.30
-10.26
-11.23
-12.26
-13.47
-14.96
-16.77
-18.84
-20.95
-22.79
-23.92
-23.86
-22.21
-18.77
-13.78
-7.83
-1.81
3.46
7.52
10.39
12.47
14.24
16.01
17.74
19.16
20.01
20.27
20.27
20.58
21.66
23.57
25.77
27.14
26.27
21.93
13.59
1.69
-12.14
-25.38
-35.17
-39.03
-35.63
-25.27
-9.94
7.19
22.59
33.35
37.87
36.10
29.31
19.53
8.93
-0.59
-7.68
-11.68
-12.57
-10.95
-7.97
-5.00
-3.34
-3.81
-6.49
-10.76
-15.52
-19.54
-21.86
-21.90
-19.56
-15.15
-9.30
-2.81
3.43
8.70
12.50
14.79
15.85
16.13
16.02
15.60
14.66
12.83
9.91
6.04
1.79
-1.97
-4.37
-4.80
-3.10
0.43
5.18
10.49
15.78
20.72
25.13
28.90
31.89
33.85
34.50
33.57
31.01
26.95
21.74
15.88
9.83
4.00
-1.29
-5.85
-9.55
-12.33
-14.22
-15.35
-15.91
-16.13
-16.20
-16.29
-16.56
-17.18
-18.37
-20.28
-22.96
-26.32
-30.12
-34.00
-37.56
-40.36
-41.95
-42.01
-40.44
-37.42
-33.46
-29.22
-25.35
-22.28
-20.11
-18.69
-17.75
-17.02
-16.32
-15.60
-14.85
-14.01
-12.96
-11.45
-9.21
-6.06
-2.05
2.51
7.09
11.16
14.37
16.63
18.13
19.20
20.09
20.81
21.13
20.64
18.98
16.01
11.97
7.47
3.25
-0.03
-2.05
-2.89
-2.95
-2.70
-2.53
-2.57
-2.74
-2.89
-2.89
-2.75
-2.65
-2.85
-3.67
-5.33
-7.92
-11.22
-14.75
-17.78
-19.55
-19.42
-17.07
-12.62
-6.53
0.45
7.49
13.85
19.02
22.79
25.28
26.79
27.64
28.07
28.14
27.79
26.98
25.81
24.50
23.35
22.51
21.98
21.52
20.88
19.84
18.37
16.51
14.33
11.81
8.81
5.20
1.00
-3.50
-7.80
-11.30
-13.59
-14.57
-14.46
-13.70
-12.76
-11.98
-11.50
-11.22
-10.95
-10.43
-9.54
-8.33
-7.09
-6.26
-6.27
-7.30
-9.14
-11.21
-12.77
-13.19
-12.18
-9.88
-6.75
-3.38
-0.28
2.16
3.73
4.34
4.00
2.86
1.16
-0.75
-2.51
-3.77
-4.36
-4.27
-3.64
-2.72
-1.71
-0.74
0.22
1.23
2.33
3.55
4.79
5.95
6.90
7.45
7.46
6.78
5.36
3.26
0.66
-2.20
-5.11
-7.95
-10.65
-13.17
-15.44
-17.41
-19.13
-20.78
-22.70
-25.22
-28.63
-33.00
-38.25
-44.11
-50.12
-55.57
-59.53
-60.98
-59.07
-53.51
-44.72
-33.85
-22.46
-12.10
-3.90
1.72
4.96
6.46
6.93
6.90
6.60
6.07
5.35
4.67
4.48
5.32
7.56
11.20
15.91
21.10
26.15
30.61
34.23
36.94
38.66
39.31
38.70
36.69
33.21
28.38
22.62
16.53
10.89
6.39
3.48
2.22
2.22
2.76
3.05
2.42
0.54
-2.58
-6.63
-11.17
-15.75
-20.03
-23.82
-27.15
-30.25
-33.44
-37.08
-41.24
-45.61
-49.30
-51.14
-49.88
-44.78
-35.88
-24.06
-10.79
2.34
14.01
23.43
30.36
35.01
37.86
39.51
40.56
41.42
42.21
42.80
42.97
42.62
41.93
41.37
41.50
42.65
44.81
47.57
50.29
52.18
52.40
50.08
44.55
35.57
23.53
9.53
-4.98
-18.64
-30.60
-40.62
-48.96
-56.07
-62.35
-68.03
-73.23
-77.91
-81.84
-84.55
-85.40
-83.85
-79.69
-73.30
-65.58
-57.69
-50.72
-45.37
-41.82
-39.66
-38.01
-35.70
-31.58
-24.84
-15.30
-3.62
8.90
20.67
30.27
36.87
40.40
41.39
40.67
39.06
37.13
35.23
33.54
32.16
31.21
30.74
30.70
30.99
31.40
31.68
31.52
30.65
28.83
25.90
21.88
16.97
11.47
5.70
-0.05
-5.64
-10.88
-15.58
-19.48
-22.49
-24.73
-26.55
-28.37
-30.31
-32.09
-33.08
-32.74
-30.98
-28.39
-25.95
-24.53
-24.43
-25.20
-25.97
-25.88
-24.49
-21.80
-18.06
-13.55
-8.56
-3.49
1.09
4.60
6.69
7.45
7.35
7.03
6.84
6.77
6.47
5.59
4.10
2.27
0.47
-1.15
-2.81
-5.06
-8.43
-13.17
-19.08
-25.64
-32.18
-38.11
-42.97
-46.37
-47.90
-47.01
-43.11
-35.71
-24.59
-10.00
7.27
26.06
45.04
63.05
79.29
93.38
105.23
114.85
122.10
126.73
128.54
127.67
124.82
121.26
118.47
117.68
119.37
123.14
127.84
132.01
134.40
134.25
131.42
126.26
119.33
111.18
102.25
92.88
83.39
74.05
65.04
56.32
47.59
38.24
27.54
14.81
-0.43
-18.22
-38.05
-58.81
-78.86
-96.40
-109.94
-118.77
-123.16
-124.30
-123.78
-123.07
-123.03
-123.76
-124.71
-124.94
-123.43
-119.28
-111.98
-101.60
-88.98
-75.65
-63.48
-54.09
-48.28
-45.74
-45.18
-44.85
-43.07
-38.76
-31.68
-22.31
-11.69
-1.03
8.61
16.58
22.74
27.43
31.25
34.74
38.13
41.23
43.58
44.62
43.95
41.52
37.60
32.70
27.41
22.32
17.91
14.61
12.69
12.25
13.12
14.83
16.62
17.66
17.31
15.27
11.62
6.70
0.76
-6.16
-14.29
-23.85
-34.87
-47.07
-59.81
-72.25
-83.51
-92.74
-99.19
-102.22
-101.24
-96.00
-86.81
-74.60
-60.79
-46.83
-33.93
-22.73
-13.36
-5.53
1.10
6.64
10.93
13.82
15.30
15.64
15.22
14.43
13.93
14.18
15.30
17.02
18.90
20.58
21.82
22.52
22.72
23.39
25.58
29.71
35.31
41.28
46.54
50.27
52.17
52.62
53.69
57.45
64.64
74.00
83.08
89.55
92.05
90.64
86.78
84.41
87.33
97.53
114.25
134.86
156.21
175.14
188.88
186.23
160.51
114.14
58.76
7.46
-32.00
-57.80
-71.78
-77.01
-76.47
-71.09
-61.67
-49.87
-38.59
-31.40
-29.97
-34.39
-43.09
-53.19
-60.13
-60.30
-52.56
-38.95
-23.53
-10.30
-2.08
0.03
-3.80
-10.64
-18.34
-25.78
-32.99
-40.32
-47.46
-53.54
-57.58
-59.17
-58.44
-56.43
-54.47
-53.50
-53.46
-53.01
-50.34
-44.05
-33.95
-21.28
-8.59
1.22
5.82
4.18
-3.24
-14.96
-29.17
-44.28
-59.09
-72.75
-84.31
-92.46
-95.54
-91.58
-78.79
-56.13
-24.09
14.92
56.62
95.80
127.69
149.33
160.24
162.05
157.25
147.95
135.18
119.17
100.23
79.48
58.98
41.01
27.05
17.08
9.51
2.12
-7.02
-18.65
-32.05
-45.31
-56.14
-62.63
-63.89
-60.27
-52.99
-43.62
-33.59
-23.94
-15.25
-7.85
-1.87
2.58
5.41
6.70
6.64
5.49
3.44
0.82
-1.73
-3.28
-2.89
-0.41
3.63
7.91
10.53
9.49
3.48
-7.60
-22.62
-39.81
-58.15
-76.71
-94.70
-111.36
-125.90
-137.36
-144.74
-147.53
-146.26
-143.53
-141.53
-141.00
-141.06
-140.08
-136.60
-130.22
-122.00
-113.89
-108.77
-106.55
-103.92
-95.91
-79.15
-53.76
-23.46
6.32
40.27
76.96
111.40
138.94
159.05
173.68
185.07
194.80
203.58
210.55
212.30
203.83
181.40
145.50
101.32
57.99
25.54
10.86
14.45
29.00
47.44
60.48
62.10
51.73
34.08
16.24
4.00
-0.56
0.16
2.29
2.54
0.17
-3.79
-7.88
-11.28
-14.15
-17.13
-20.85
-24.82
-27.97
-28.92
-27.16
-23.54
-20.04
-18.94
-21.66
-28.15
-36.59
-44.25
-48.21
-46.74
-40.05
-30.32
-20.71
-14.12
-12.03
-14.05
-18.50
-23.09
-25.98
-26.36
-24.59
-21.69
-18.91
-17.33
-17.73
-20.65
-26.23
-34.14
-43.70
-53.99
-64.18
-73.75
-82.47
-90.15
-96.21
-99.60
-98.94
-93.12
-81.82
-65.74
-46.50
-26.10
-6.32
11.59
27.00
39.74
49.90
57.73
63.75
68.66
73.25
77.96
82.52
85.88
86.58
83.39
76.10
65.82
54.68
45.08
38.76
36.16
36.50
38.17
39.55
39.51
37.62
34.07
29.32
23.94
18.40
13.04
7.99
3.26
-1.21
-5.44
-9.29
-12.37
-14.15
-14.14
-11.96
-7.47
-0.70
8.17
18.66
29.97
40.89
49.94
55.77
57.63
55.61
50.68
44.24
37.64
31.68
26.56
22.06
17.88
13.89
10.17
6.84
3.93
1.20
-1.83
-5.69
-10.81
-17.25
-24.49
-31.38
-36.37
-37.96
-35.16
-28.05
-17.73
-6.09
4.83
13.40
18.81
21.05
20.61
18.18
14.39
9.78
4.85
0.14
-3.89
-6.93
-8.96
-10.24
-11.20
-12.14
-13.06
-13.62
-13.26
-11.45
-7.95
-2.95
2.95
8.94
14.16
17.98
20.06
20.36
19.12
16.66
13.29
9.26
4.79
0.09
-4.53
-8.68
-12.00
-14.25
-15.45
-15.95
-16.36
-17.40
-19.74
-23.78
-29.59
-36.72
-44.24
-50.86
-55.23
-56.29
-53.63
-47.64
-39.42
-30.48
-22.29
-15.90
-11.84
-10.05
-10.12
-11.49
-13.60
-15.95
-18.20
-20.14
-21.71
-22.93
-23.87
-24.56
-24.95
-24.97
-24.41
-22.96
-20.10
-15.17
-7.64
2.59
14.90
27.88
39.66
48.52
53.39
54.08
51.12
45.27
37.16
27.22
15.81
3.59
-8.40
-18.94
-27.04
-32.25
-34.85
-35.62
-35.50
-35.21
-35.09
-35.04
-34.65
-33.28
-30.30
-25.29
-18.16
-9.31
0.44
10.06
18.56
25.32
30.12
33.18
34.87
35.60
35.62
35.04
33.93
32.35
30.44
28.42
26.48
24.80
23.47
22.55
22.05
21.99
22.33
23.01
23.85
24.66
25.19
25.20
24.52
23.00
20.64
17.53
13.85
9.83
5.63
1.29
-3.28
-8.25
-13.67
-19.39
-25.00
-29.97
-33.79
-36.25
-37.47
-37.90
-38.03
-38.21
-38.38
-38.05
-36.46
-32.92
-27.05
-19.08
-9.75
-0.10
8.83
16.23
21.60
24.80
25.88
25.00
22.47
18.68
14.13
9.38
5.08
1.84
0.20
0.55
3.03
7.46
13.34
19.90
26.20
31.27
34.29
34.74
32.45
27.70
21.12
13.54
5.79
-1.39
-7.50
-12.23
-15.52
-17.55
-18.75
-19.60
-20.46
-21.44
-22.33
-22.76
-22.50
-21.63
-20.56
-19.80
-19.61
-19.79
-19.67
-18.33
-15.06
-9.66
-2.54
5.38
13.07
19.68
24.81
28.46
30.88
32.30
32.81
32.32
30.76
28.22
25.06
21.81
19.01
17.01
15.78
14.98
14.07
12.50
9.91
6.18
1.53
-3.66
-8.97
-14.11
-18.93
-23.41
-27.59
-31.38
-34.53
-36.71
-37.63
-37.22
-35.74
-33.69
-31.66
-30.17
-29.52
-29.73
-30.62
-31.85
-33.00
-33.55
-32.98
-30.89
-27.20
-22.24
-16.71
-11.51
-7.43
-4.88
-3.79
-3.76
-4.17
-4.48
-4.30
-3.48
-2.00
0.01
2.35
4.77
7.04
9.09
11.07
13.33
16.36
20.63
26.46
33.79
42.19
50.84
58.60
64.23
66.66
65.39
60.60
53.20
44.53
35.97
28.61
22.96
18.97
16.07
13.52
10.69
7.27
3.40
-0.44
-3.54
-5.14
-4.56
-1.22
5.25
14.82
26.89
40.18
52.90
63.17
69.62
71.78
70.13
65.80
59.95
53.39
46.33
38.44
29.14
17.81
4.08
-12.02
-29.86
-48.29
-65.73
-80.49
-91.14
-96.85
-97.56
-93.86
-86.84
-77.81
-68.01
-58.55
-50.22
-43.51
-38.44
-34.63
-31.38
-27.91
-23.65
-18.43
-12.53
-6.50
-1.01
3.41
6.45
8.07
8.55
8.44
8.63
10.23
14.28
21.42
31.52
43.63
56.26
67.80
77.13
83.92
88.63
92.25
95.80
100.06
105.25
111.10
116.95
121.89
125.09
126.02
124.67
121.65
117.98
114.86
113.18
113.19
114.15
114.30
111.06
101.71
84.31
58.56
26.30
-8.85
-42.33
-69.91
-88.72
-97.66
-97.29
-89.30
-75.98
-59.85
-43.37
-28.75
-17.72
-11.16
-9.11
-10.74
-14.55
-18.59
-20.74
-19.05
-12.34
-0.66
14.47
30.42
44.23
53.72
58.14
58.27
55.75
52.11
48.08
43.50
37.81
30.82
23.16
16.08
10.80
7.69
5.95
3.95
0.02
-6.65
-15.59
-25.28
-33.94
-40.31
-44.18
-46.27
-47.70
-49.47
-52.07
-55.43
-59.11
-62.65
-65.71
-68.16
-70.08
-71.59
-72.87
-74.09
-75.40
-77.04
-79.18
-81.86
-84.87
-87.65
-89.42
-89.49
-87.56
-83.84
-78.95
-73.68
-68.62
-64.07
-60.15
-56.94
-54.63
-53.47
-53.55
-54.76
-56.77
-59.18
-61.75
-64.41
-67.23
-70.32
-73.73
-77.47
-81.62
-86.37
-92.01
-98.79
-106.79
-115.81
-125.40
-134.89
-143.58
-150.77
-155.79
-157.99
-156.62
-150.87
-140.03
-123.83
-102.81
-78.47
-53.12
-29.40
-9.63
4.69
13.06
15.98
14.72
10.99
6.68
3.54
2.86
5.16
10.04
16.33
22.47
27.08
29.49
29.81
28.84
27.63
27.00
27.22
28.07
28.96
29.33
28.89
27.80
26.47
25.46
25.20
25.87
27.35
29.22
30.95
32.04
32.25
31.67
30.75
30.10
30.11
30.71
31.24
30.68
28.08
22.96
15.67
7.33
-0.51
-6.20
-8.46
-6.64
-0.92
7.63
17.21
25.70
31.22
32.69
30.22
25.15
19.55
15.46
14.21
16.01
20.03
24.89
29.11
31.62
31.77
29.36
24.48
17.53
9.19
0.55
-7.13
-12.58
-14.96
-14.09
-10.63
-5.77
-0.80
3.29
6.22
8.36
10.49
13.41
17.54
22.90
29.05
35.42
41.43
46.70
51.03
54.43
57.00
58.87
60.10
60.67
60.47
59.36
57.28
54.24
50.33
45.65
40.22
33.93
26.59
18.08
8.45
-1.92
-12.29
-21.63
-28.69
-32.34
-31.87
-27.28
-19.33
-9.49
0.52
9.21
15.60
19.50
21.08
20.92
19.68
17.88
15.95
14.24
13.02
12.53
12.90
13.86
15.04
16.03
16.53
16.63
16.73
17.39
19.04
21.89
25.11
27.76
28.83
27.67
24.12
18.52
11.55
4.03
-2.42
-7.63
-10.74
-11.17
-8.83
-4.15
2.10
9.22
16.75
25.95
35.14
43.94
51.55
57.04
59.96
60.72
60.68
61.73
67.83
77.63
91.42
108.82
129.04
151.09
173.88
196.25
217.01
237.82
254.40
265.81
271.26
270.31
262.99
250.10
233.19
196.34
164.70
135.65
109.04
83.87
58.74
32.74
5.99
-20.14
-43.52
-59.29
-69.63
-74.94
-76.95
-77.89
-79.55
-82.72
-87.15
-92.05
-94.55
-96.81
-98.80
-100.50
-101.71
-102.19
-101.88
-101.12
-100.67
-100.06
-101.58
-105.28
-110.40
-115.43
-118.57
-118.09
-113.06
-103.67
-90.77
-77.47
-66.25
-58.86
-55.88
-56.91
-60.83
-66.43
-72.80
-79.18
-85.50
-91.24
-95.56
-97.71
-97.76
-96.18
-93.73
-91.20
-89.12
-87.72
-86.71
-85.43
-83.39
-81.41
-80.21
-80.22
-81.61
-84.33
-88.64
-94.55
-101.73
-109.71
-119.29
-130.28
-141.58
-151.86
-160.41
-168.27
-176.89
-187.23
-198.76
-210.81
-219.88
-220.89
-209.60
-184.62
-149.04
-108.11
-67.11
-19.27
34.00
85.99
129.27
158.65
179.02
195.10
210.60
227.14
244.93
261.01
272.50
277.73
276.75
271.52
264.42
258.52
256.35
258.95
264.22
269.88
274.45
277.33
278.26
275.96
269.00
256.24
237.41
212.64
183.76
153.81
125.79
101.75
81.75
64.82
49.68
35.16
20.02
3.51
-14.70
-34.66
-56.07
-78.36
-100.20
-119.63
-134.48
-143.12
-144.68
-139.25
-127.83
-112.09
-94.06
-75.67
-58.50
-43.64
-31.76
-23.25
-18.38
-17.27
-19.86
-25.68
-33.77
-42.75
-51.24
-58.23
-63.32
-66.74
-69.15
-71.30
-73.69
-76.50
-79.63
-82.89
-86.05
-88.83
-90.91
-91.98
-91.93
-90.98
-89.66
-88.86
-89.52
-92.36
-97.58
-104.88
-113.64
-123.41
-133.71
-144.23
-154.84
-165.52
-176.17
-186.36
-195.37
-202.47
-207.48
-210.30
-211.16
-210.82
-210.56
-211.83
-215.43
-221.05
-227.13
-231.76
-232.13
-225.65
-211.07
-189.07
-161.95
-132.36
-102.48
-73.64
-47.17
-23.10
-0.77
20.47
40.99
60.80
80.09
99.11
121.90
145.97
165.57
175.58
174.69
166.48
154.90
143.31
134.71
131.87
134.30
141.85
153.52
166.96
178.60
184.65
182.87
173.45
158.65
141.21
124.55
111.23
102.28
97.12
94.12
91.59
88.31
83.42
75.94
65.76
53.28
39.33
25.02
11.59
0.38
-7.50
-11.68
-12.93
-12.44
-11.44
-10.69
-10.20
-9.45
-7.86
-5.32
-2.51
-0.73
-1.08
-3.96
-8.95
-15.00
-20.96
-26.00
-29.70
-32.11
-33.54
-34.43
-35.28
-36.46
-38.04
-39.60
-40.27
-39.02
-35.13
-28.62
-20.27
-11.37
-3.23
3.30
7.97
10.97
12.67
13.43
13.57
13.39
13.30
13.71
14.88
16.75
19.02
21.25
23.08
24.40
25.32
26.06
26.73
27.26
27.47
27.12
26.11
24.54
22.66
20.76
19.04
17.49
15.90
13.83
10.82
6.53
1.01
-5.16
-10.87
-14.69
-15.21
-11.50
-3.39
8.40
22.49
37.18
50.92
62.58
71.49
77.39
80.22
80.05
77.14
72.18
66.40
61.42
58.89
59.80
64.04
70.28
76.40
80.27
80.65
77.53
72.17
66.57
62.87
62.87
67.51
76.37
87.26
96.37
99.32
92.91
76.90
54.62
31.96
15.13
8.15
11.45
22.49
37.69
54.68
73.34
95.24
121.79
152.67
185.06
214.27
235.22
243.91
238.53
219.87
191.07
156.94
122.72
92.91
70.07
54.36
43.80
35.30
25.95
14.20
0.02
-15.65
-31.84
-48.42
-66.33
-87.47
-113.77
-146.04
-182.88
-220.19
-251.84
-271.49
-274.98
-262.15
-237.08
-206.45
-176.96
-153.02
-135.86
-124.30
-116.28
-110.20
-105.30
-101.32
-98.06
-95.35
-93.53
-93.68
-97.14
-104.62
-115.32
-126.77
-135.62
-138.90
-134.92
-123.55
-105.78
-83.02
-56.71
-28.28
0.71
28.48
53.42
74.58
91.98
106.48
119.11
130.10
138.32
141.21
135.63
119.24
91.66
54.84
12.62
-30.37
-69.92
-102.96
-127.73
-143.77
-151.93
-154.39
-154.30
-154.84
-157.66
-161.85
-163.72
-158.21
-141.08
-110.83
-69.69
-22.92
22.90
61.73
89.40
104.19
106.35
97.66
80.98
59.99
38.93
21.92
11.88
9.58
13.25
19.09
22.75
21.04
13.15
0.69
-13.31
-25.90
-35.22
-40.44
-40.92
-35.36
-21.77
1.32
33.49
71.39
109.24
140.54
160.15
165.74
157.99
139.59
113.80
83.52
51.23
19.42
-8.70
-29.26
-38.51
-34.08
-16.15
12.06
44.65
74.37
94.48
100.59
91.91
71.26
43.97
16.13
-6.98
-21.76
-26.47
-20.91
-6.19
15.28
39.75
62.49
78.72
84.82
79.40
63.65
40.91
15.43
-8.81
-29.18
-44.61
-55.23
-61.71
-64.58
-64.10
-60.63
-55.16
-49.73
-47.27
-50.87
-62.87
-84.14
-113.82
-149.39
-187.13
-222.53
-250.96
-268.64
-273.57
-266.08
-248.63
-224.70
-197.65
-169.89
-142.88
-117.58
-94.86
-75.25
-58.40
-42.77
-25.98
-5.97
17.70
43.43
68.15
88.89
104.12
114.29
121.23
127.10
133.35
140.42
147.98
155.45
162.57
169.56
176.94
185.21
194.30
203.19
209.89
211.65
205.65
189.73
163.23
127.29
84.70
39.27
-5.10
-45.18
-78.84
-105.20
-124.52
-138.04
-147.60
-155.02
-161.45
-166.76
-169.63
-168.16
-160.94
-147.82
-130.04
-109.56
-88.20
-66.92
-45.97
-25.48
-6.07
11.01
24.42
33.50
38.67
41.31
42.98
44.67
46.46
47.77
47.88
46.54
44.22
41.85
40.38
40.17
40.82
41.36
40.77
38.60
35.22
31.77
29.56
29.51
31.57
34.85
37.89
39.35
38.50
35.35
30.53
24.83
18.94
13.29
8.15
3.69
0.07
-2.66
-4.69
-6.37
-8.07
-9.85
-11.32
-11.64
-9.98
-5.91
0.22
7.31
13.83
18.44
20.42
19.86
17.51
14.30
10.96
7.82
4.91
2.15
-0.38
-2.39
-3.54
-3.57
-2.53
-0.70
1.48
3.67
5.72
7.65
9.58
11.59
13.70
15.90
18.18
20.56
23.03
25.46
27.57
28.97
29.30
28.34
26.07
22.70
18.58
14.11
9.79
6.08
3.45
2.24
2.61
4.48
7.64
11.87
17.06
23.11
29.82
36.64
42.74
47.08
48.85
47.79
44.34
39.53
34.60
30.59
28.00
26.76
26.44
26.60
27.02
27.77
29.10
31.03
33.28
35.15
35.83
34.75
31.87
27.67
22.91
18.22
13.78
9.32
4.33
-1.58
-8.36
-15.56
-22.48
-28.52
-33.45
-37.35
-40.45
-42.76
-43.90
-43.20
-40.01
-34.08
-25.81
-16.23
-6.68
1.64
7.97
12.13
14.39
15.11
14.60
12.93
10.09
6.11
1.12
-4.51
-10.29
-15.60
-19.78
-22.17
-22.21
-19.54
-14.23
-6.86
1.44
9.25
15.16
18.21
18.15
15.41
10.90
5.59
0.25
-4.80
-9.55
-14.24
-19.08
-24.05
-28.82
-32.82
-35.28
-35.59
-33.46
-29.15
-23.34
-16.93
-10.66
-4.93
0.27
5.21
10.14
15.08
19.76
23.74
26.50
27.64
27.01
24.73
21.29
17.49
14.31
12.60
12.88
15.11
18.75
22.92
26.72
29.42
30.60
30.14
28.05
24.40
19.18
12.37
3.90
-6.16
-17.58
-29.73
-41.55
-51.54
-57.96
-59.29
-54.69
-44.45
-29.99
-13.57
2.34
15.68
25.24
30.67
32.29
30.71
26.62
20.75
13.96
7.30
1.97
-1.04
-1.11
1.72
6.76
12.92
18.96
23.82
26.79
27.64
26.55
24.03
20.74
17.40
14.56
12.54
11.31
10.53
9.63
7.97
5.11
0.81
-4.76
-11.14
-17.57
-23.17
-27.11
-28.83
-28.21
-25.58
-21.62
-17.10
-12.63
-8.47
-4.58
-0.80
2.91
6.35
9.12
10.74
10.82
9.17
5.79
0.87
-5.29
-12.23
-19.36
-25.94
-31.13
-34.15
-34.49
-32.10
-27.47
-21.55
-15.56
-10.60
-7.41
-6.23
-6.89
-9.07
-12.44
-16.84
-22.08
-27.80
-33.29
-37.49
-39.28
-37.78
-32.75
-24.75
-15.01
-5.03
3.78
10.49
14.77
16.73
16.81
15.48
13.20
10.35
7.29
4.38
1.96
0.25
-0.63
-0.77
-0.43
0.06
0.33
0.12
-0.65
-1.86
-3.26
-4.62
-5.84
-6.98
-8.22
-9.80
-11.85
-14.48
-17.68
-21.46
-25.67
-29.98
-33.77
-36.23
-36.56
-34.32
-29.65
-23.27
-16.27
-9.65
-4.08
0.30
3.67
6.30
8.24
9.26
8.89
6.75
2.83
-2.30
-7.56
-11.58
-13.13
-11.47
-6.66
0.51
8.74
16.60
22.87
26.81
28.17
27.10
24.09
19.79
14.94
10.25
6.25
3.17
0.85
-1.05
-2.87
-4.66
-6.07
-6.48
-5.31
-2.35
2.08
7.21
12.09
15.95
18.40
19.40
19.26
18.49
17.77
17.83
19.28
22.38
26.80
31.71
36.00
38.73
39.37
37.96
34.88
30.58
25.38
19.48
13.06
6.46
0.18
-5.31
-9.76
-13.24
-16.08
-18.68
-21.35
-24.11
-26.67
-28.59
-29.33
-28.49
-25.89
-21.69
-16.41
-10.82
-5.71
-1.72
0.90
2.22
2.52
2.14
1.24
-0.12
-1.97
-4.18
-6.53
-8.69
-10.40
-11.55
-12.15
-12.28
-11.95
-11.11
-9.72
-7.87
-5.81
-3.93
-2.63
-2.28
-3.10
-5.12
-8.20
-11.97
-15.96
-19.65
-22.59
-24.59
-25.65
-26.00
-25.81
-25.14
-23.78
-21.34
-17.45
-11.93
-5.02
2.69
10.38
17.24
22.74
26.76
29.56
31.56
33.17
34.57
35.78
36.67
37.16
37.22
36.89
36.22
35.29
34.17
33.01
32.02
31.44
31.40
31.90
32.76
33.77
34.77
35.70
36.58
37.45
38.26
38.75
38.54
37.15
34.15
29.26
22.53
14.39
5.65
-2.60
-9.27
-13.56
-15.15
-14.37
-11.95
-8.88
-6.06
-4.12
-3.44
-4.07
-5.93
-8.76
-12.20
-15.84
-19.28
-22.29
-24.81
-27.02
-29.10
-31.17
-33.13
-34.66
-35.39
-35.03
-33.47
-30.92
-27.79
-24.65
-22.08
-20.60
-20.47
-21.53
-23.15
-24.36
-24.20
-22.20
-18.72
-15.03
-12.82
-13.63
-18.19
-26.07
-35.77
-45.30
-52.71
-56.76
-57.04
-53.96
-48.43
-41.45
-33.90
-26.34
-19.04
-12.14
-5.77
-0.21
4.21
7.16
8.44
8.09
6.43
3.93
1.05
-1.85
-4.57
-7.05
-9.23
-11.01
-12.20
-12.66
-12.35
-11.36
-9.81
-7.72
-4.97
-1.35
3.20
8.47
13.85
18.49
21.50
22.23
20.53
16.82
12.08
7.62
4.69
4.09
5.91
9.50
13.71
17.35
19.59
20.16
19.33
17.61
15.54
13.54
11.83
10.56
9.81
9.55
9.64
9.79
9.67
9.03
7.77
6.02
3.97
1.89
-0.06
-1.81
-3.45
-5.11
-6.96
-9.18
-11.88
-15.07
-18.59
-22.12
-25.27
-27.66
-29.10
-29.60
-29.36
-28.57
-27.29
-25.28
-22.11
-17.32
-10.74
-2.67
6.12
14.71
22.22
28.12
32.17
34.41
35.01
34.22
32.38
29.96
27.48
25.43
24.20
23.93
24.62
26.10
28.16
30.53
32.95
35.15
36.88
37.97
38.24
37.51
35.58
32.24
27.42
21.22
13.96
6.07
-2.03
-10.06
-17.94
-25.72
-33.49
-41.17
-48.46
-54.81
-59.58
-62.14
-62.05
-59.24
-54.04
-47.24
-39.91
-33.17
-27.84
-24.07
-21.25
-18.25
-13.89
-7.59
0.33
8.71
16.04
21.13
23.51
23.50
21.91
19.53
16.92
14.29
11.76
9.55
8.03
7.58
8.24
9.63
10.99
11.45
10.40
7.74
3.88
-0.45
-4.49
-7.71
-9.92
-11.16
-11.60
-11.45
-10.77
-9.50
-7.43
-4.22
0.54
7.08
15.34
24.77
34.38
43.01
49.67
53.82
55.49
55.25
53.92
52.30
50.88
49.81
48.93
47.91
46.53
44.74
42.68
40.61
38.68
36.88
34.97
32.65
29.74
26.25
22.38
18.34
14.23
10.00
5.45
0.46
-4.96
-10.60
-16.09
-21.08
-25.33
-28.77
-31.54
-33.89
-36.09
-38.36
-40.82
-43.54
-46.51
-49.65
-52.71
-55.15
-56.26
-55.25
-51.67
-45.65
-38.00
-29.98
-22.91
-17.73
-14.78
-13.80
-14.17
-15.23
-16.38
-17.21
-17.42
-16.92
-15.76
-14.24
-12.76
-11.69
-11.13
-10.86
-10.42
-9.29
-7.21
-4.29
-0.95
2.19
4.55
5.78
5.67
4.21
1.71
-1.20
-3.60
-4.50
-3.29
-0.07
4.32
8.55
11.41
12.27
11.26
9.04
6.29
3.36
0.16
-3.69
-8.41
-13.84
-19.35
-24.03
-27.03
-27.81
-26.33
-23.07
-18.93
-14.90
-11.84
-10.13
-9.76
-10.28
-11.13
-11.81
-11.99
-11.48
-10.13
-7.76
-4.27
0.19
5.15
9.88
13.58
15.74
16.34
15.86
15.08
14.83
15.67
17.76
20.87
24.48
27.93
30.59
31.92
31.62
29.59
26.02
21.31
16.06
10.94
6.50
3.01
0.33
-2.03
-4.82
-8.72
-14.10
-20.88
-28.38
-35.48
-40.83
-43.17
-41.72
-36.49
-28.38
-18.97
-10.09
-3.28
0.64
1.69
0.60
-1.60
-3.89
-5.59
-6.37
-6.20
-5.23
-3.72
-2.02
-0.50
0.53
0.94
0.83
0.55
0.48
0.88
1.74
2.76
3.51
3.63
2.97
1.58
-0.41
-2.89
-5.81
-9.15
-12.82
-16.53
-19.91
-22.54
-24.15
-24.66
-24.29
-23.47
-22.76
-22.71
-23.69
-25.79
-28.71
-31.80
-34.10
-34.56
-32.30
-26.81
-18.22
-7.16
5.31
18.04
30.01
40.44
48.83
54.93
58.76
60.58
60.92
60.46
59.87
59.55
59.52
59.45
58.85
57.33
54.77
51.30
47.23
42.89
38.55
34.37
30.38
26.56
22.75
18.72
14.24
9.12
3.33
-2.92
-9.21
-15.01
-19.81
-23.35
-25.66
-27.09
-28.21
-29.61
-31.72
-34.63
-38.03
-41.27
-43.45
-43.72
-41.51
-36.81
-30.23
-22.89
-16.10
-10.92
-7.77
-6.28
-5.43
-4.00
-1.13
3.42
9.17
15.20
20.58
24.65
27.19
28.26
27.97
26.38
23.52
19.54
14.82
9.99
5.68
2.29
-0.20
-2.19
-4.32
-7.11
-10.78
-15.12
-19.63
-23.72
-26.96
-29.25
-30.79
-31.93
-33.06
-34.43
-36.07
-37.86
-39.51
-40.56
-40.48
-38.69
-34.73
-28.44
-20.03
-10.20
0.04
9.59
17.43
22.90
25.77
26.23
24.80
22.15
19.02
15.96
13.40
11.52
10.29
9.52
8.90
8.10
6.90
5.29
3.51
1.96
1.04
0.98
1.71
2.86
3.88
4.25
3.71
2.25
0.17
-2.06
-3.94
-5.16
-5.66
-5.73
-5.93
-6.91
-9.16
-12.82
-17.43
-22.01
-25.26
-25.98
-23.47
-17.84
-9.96
-1.17
7.27
14.68
21.10
27.19
33.69
40.95
48.71
56.18
62.57
67.52
71.31
74.67
78.47
83.23
88.89
94.75
99.58
101.73
99.42
91.17
76.55
56.69
34.50
13.96
-1.06
-8.21
-7.58
-1.68
5.47
9.69
7.81
-1.75
-19.03
-42.90
-71.40
-101.94
-131.35
-156.13
-173.10
-180.27
-177.58
-166.99
-151.86
-135.62
-120.51
-106.86
-93.45
-78.56
-61.18
-41.66
-21.54
-2.67
13.63
27.03
38.02
47.25
55.06
61.30
65.60
67.80
68.22
67.57
66.65
65.97
65.46
64.46
62.06
57.52
50.65
41.99
32.57
23.49
15.55
8.95
3.46
-1.33
-5.71
-9.75
-13.44
-16.85
-20.20
-23.66
-27.14
-30.13
-31.84
-31.51
-28.75
-23.76
-17.20
-10.01
-3.07
2.92
7.53
10.54
11.94
11.92
10.82
9.12
7.23
5.48
3.96
2.61
1.33
0.04
-1.19
-2.31
-3.34
-4.47
-5.98
-8.11
-10.91
-14.18
-17.63
-21.02
-24.26
-27.34
-30.25
-32.83
-34.88
-36.27
-37.11
-37.68
-38.27
-38.86
-39.04
-38.15
-35.54
-30.95
-24.58
-17.00
-9.00
-1.32
5.51
11.09
15.22
17.83
19.01
19.03
18.36
17.53
17.04
17.23
18.19
19.76
21.69
23.65
25.35
26.53
26.97
26.44
24.76
21.85
17.72
12.59
6.78
0.69
-5.26
-10.73
-15.36
-18.88
-21.11
-22.05
-21.86
-20.92
-19.63
-18.31
-17.02
-15.46
-13.13
-9.54
-4.49
1.76
8.56
15.07
20.63
24.92
27.95
29.92
30.95
30.95
29.59
26.49
21.47
14.82
7.32
0.18
-5.30
-8.08
-7.73
-4.48
0.88
7.27
13.66
19.26
23.60
26.53
28.10
28.57
28.32
27.81
27.47
27.52
27.91
28.25
27.94
26.31
22.93
17.83
11.72
5.90
1.97
1.29
4.44
10.94
19.38
27.84
34.64
38.78
40.17
39.38
37.31
34.74
32.19
29.85
27.79
26.05
24.64
23.58
22.86
22.42
22.20
22.17
22.34
22.68
23.08
23.30
22.96
21.68
19.13
15.18
9.91
3.67
-3.03
-9.59
-15.51
-20.55
-24.80
-28.65
-32.59
-36.93
-41.54
-45.71
-48.35
-48.36
-45.16
-39.02
-30.95
-22.36
-14.48
-7.88
-2.49
2.14
6.40
10.36
13.73
16.13
17.37
17.51
16.84
15.67
14.16
12.33
10.19
7.88
5.72
4.03
3.02
2.58
2.25
1.39
-0.61
-4.02
-8.61
-13.78
-18.76
-22.91
-26.00
-28.16
-29.79
-31.31
-33.05
-35.15
-37.56
-39.97
-41.78
-42.14
-40.17
-35.26
-27.42
-17.42
-6.64
3.37
11.37
16.79
19.77
20.94
21.04
20.61
19.91
18.95
17.67
16.10
14.39
12.76
11.40
10.36
9.52
8.71
7.75
6.61
5.34
4.06
2.86
1.70
0.40
-1.27
-3.50
-6.26
-9.31
-12.25
-14.75
-16.71
-18.40
-20.34
-23.00
-26.48
-30.21
-33.15
-34.03
-32.00
-26.95
-19.66
-11.52
-3.97
1.91
5.73
7.72
8.52
8.83
9.14
9.65
10.33
10.96
11.36
11.37
10.96
10.20
9.25
8.25
7.36
6.65
6.19
5.96
5.84
5.65
5.11
3.91
1.89
-0.94
-4.36
-8.04
-11.67
-15.09
-18.30
-21.50
-24.87
-28.58
-32.59
-36.64
-40.16
-42.40
-42.51
-39.86
-34.30
-26.27
-16.77
-7.02
1.88
9.30
15.17
19.83
23.74
27.22
30.32
32.86
34.64
35.52
35.56
34.95
33.88
32.49
30.82
28.87
26.71
24.47
22.29
20.26
18.30
16.23
13.80
10.86
7.46
3.89
0.57
-2.14
-4.04
-5.21
-6.02
-6.95
-8.45
-10.74
-13.69
-16.71
-18.94
-19.41
-17.37
-12.62
-5.59
2.69
10.92
17.94
23.01
26.03
27.40
27.77
27.76
27.76
27.89
28.08
28.18
28.04
27.56
26.66
25.25
23.23
20.56
17.27
13.58
9.81
6.30
3.29
0.87
-1.08
-2.75
-4.32
-5.85
-7.31
-8.62
-9.66
-10.39
-10.84
-11.14
-11.52
-12.29
-13.79
-16.35
-20.18
-25.33
-31.50
-38.08
-44.12
-48.61
-50.78
-50.33
-47.57
-43.21
-38.04
-32.56
-26.93
-21.03
-14.75
-8.27
-2.03
3.47
7.85
11.05
13.23
14.66
15.49
15.75
15.39
14.43
13.01
11.36
9.78
8.55
7.81
7.60
7.78
8.19
8.59
8.79
8.69
8.31
7.72
6.99
6.18
5.26
4.21
2.95
1.49
-0.15
-1.87
-3.59
-5.23
-6.79
-8.36
-10.04
-11.91
-14.05
-16.47
-19.14
-21.95
-24.62
-26.65
-27.41
-26.26
-22.80
-17.12
-9.85
-1.99
5.42
11.64
16.39
19.77
22.08
23.52
24.14
23.96
23.06
21.71
20.30
19.13
18.25
17.48
16.50
15.08
13.24
11.20
9.30
7.79
6.79
6.26
6.12
6.31
6.76
7.42
8.21
9.02
9.82
10.63
11.50
12.53
13.75
15.07
16.25
16.93
16.65
15.04
11.94
7.44
1.87
-4.38
-10.97
-17.79
-24.88
-32.36
-40.27
-48.49
-56.73
-64.44
-70.89
-75.17
-76.32
-73.62
-66.87
-56.61
-44.15
-31.24
-19.56
-10.33
-3.95
-0.12
1.95
3.07
3.84
4.51
5.11
5.62
6.11
6.76
7.75
9.17
10.94
12.93
15.05
17.37
20.03
23.07
26.28
29.10
30.84
30.92
29.19
25.99
21.99
17.92
14.28
11.22
8.60
6.24
4.08
2.20
0.82
0.06
-0.10
0.06
0.14
-0.32
-1.68
-4.14
-7.64
-11.84
-16.11
-19.58
-21.37
-20.80
-17.72
-12.55
-6.24
0.02
5.18
8.55
9.96
9.60
7.91
5.35
2.38
-0.70
-3.59
-6.08
-8.03
-9.31
-9.90
-9.81
-9.16
-8.13
-6.96
-5.89
-5.13
-4.73
-4.53
-4.27
-3.63
-2.42
-0.66
1.43
3.54
5.38
6.84
7.96
8.85
9.64
10.29
10.69
10.60
9.85
8.31
5.99
2.88
-1.01
-5.66
-10.94
-16.46
-21.50
-25.00
-25.90
-23.50
-17.79
-9.60
-0.36
8.22
14.70
18.17
18.40
15.72
10.82
4.58
-2.10
-8.30
-13.26
-16.41
-17.53
-16.72
-14.40
-11.12
-7.51
-4.11
-1.34
0.46
1.07
0.39
-1.52
-4.39
-7.81
-11.33
-14.61
-17.44
-19.74
-21.42
-22.32
-22.21
-20.90
-18.37
-14.85
-10.77
-6.58
-2.65
0.84
3.78
6.10
7.68
8.39
8.25
7.51
6.71
6.50
7.56
10.33
14.87
20.86
27.59
34.12
39.55
43.21
44.85
44.64
43.02
40.55
37.71
34.83
32.15
29.86
28.06
26.70
25.58
24.38
22.86
21.01
19.09
17.51
16.60
16.43
16.85
17.54
18.25
18.85
19.26
19.38
19.05
18.14
16.61
14.60
12.37
10.12
7.80
5.17
1.86
-2.36
-7.42
-12.96
-18.44
-23.36
-27.45
-30.76
-33.60
-36.39
-39.49
-43.07
-47.00
-50.86
-53.96
-55.49
-54.64
-50.85
-43.99
-34.54
-23.57
-12.46
-2.63
4.84
9.42
11.20
10.66
8.55
5.61
2.45
-0.46
-2.82
-4.41
-5.13
-4.95
-3.88
-2.04
0.40
3.24
6.25
9.18
11.79
13.82
15.03
15.22
14.26
12.24
9.43
6.21
3.05
0.33
-1.74
-3.17
-4.17
-5.02
-5.97
-7.14
-8.47
-9.84
-11.20
-12.59
-14.27
-16.53
-19.61
-23.52
-27.92
-32.11
-35.23
-36.40
-35.05
-31.11
-25.02
-17.66
-10.17
-3.57
1.36
4.29
5.30
4.78
3.27
1.30
-0.70
-2.45
-3.79
-4.63
-4.92
-4.64
-3.89
-2.87
-1.89
-1.21
-0.98
-1.07
-1.17
-0.94
-0.22
0.97
2.47
4.11
5.88
7.92
10.39
13.35
16.64
19.99
23.08
25.66
27.54
28.53
28.40
26.99
24.25
20.37
15.69
10.58
5.29
-0.10
-5.56
-10.97
-16.01
-20.17
-22.89
-23.70
-22.29
-18.57
-12.72
-5.21
3.16
11.30
18.10
22.71
24.84
24.75
23.13
20.75
18.21
15.85
13.91
12.61
12.20
