1563984891.00
64.000000
-0.00
-0.00
-0.00
-0.00
-0.00
-0.00
-0.00
-0.00
-0.00
-0.00
0.00
0.01
0.01
-0.00
-0.03
-0.05
-0.05
0.00
0.13
0.36
0.66
1.01
1.37
1.72
2.06
2.40
2.79
3.24
3.80
4.42
5.06
5.66
6.20
6.68
7.15
7.68
8.31
9.15
10.11
11.08
11.95
12.67
13.30
13.99
14.96
16.38
18.45
20.98
23.71
26.34
28.70
30.86
33.13
35.94
39.62
44.53
50.33
56.50
62.45
67.83
72.70
77.54
83.05
89.76
98.21
107.88
118.00
127.67
136.32
143.99
151.30
159.58
167.56
177.48
189.95
205.07
221.63
236.73
246.03
244.87
229.92
200.31
158.44
108.13
53.73
-1.56
-56.16
-109.85
-162.77
-214.55
-264.33
-310.63
-352.55
-389.38
-420.54
-445.18
-462.00
-469.35
-465.56
-449.77
-422.10
-384.18
-338.58
-288.30
-236.19
-184.57
-135.79
-91.00
-50.73
-15.07
15.90
42.20
63.98
81.61
95.64
106.79
115.92
123.68
130.49
136.42
141.40
145.29
148.01
149.53
149.89
149.30
147.89
145.70
142.66
138.65
133.49
127.52
120.94
113.95
106.81
99.69
92.71
85.93
79.41
73.15
67.17
61.42
55.84
50.44
45.20
40.12
35.21
30.51
26.03
21.84
17.92
14.29
10.94
7.87
5.06
2.49
0.14
-2.01
-3.96
-5.75
-7.37
-8.83
-10.12
-11.23
-12.16
-12.90
-13.48
-13.91
-14.23
-14.46
-14.67
-14.87
-15.10
-15.36
-15.65
-15.97
-16.27
-16.54
-16.77
-16.92
-16.98
-16.95
-16.84
-16.66
-16.43
-16.18
-15.95
-15.76
-15.64
-15.59
-15.60
-15.66
-15.72
-15.74
-15.69
-15.53
-15.26
-14.86
-14.35
-13.77
-13.16
-12.56
-12.03
-11.62
-11.38
-11.32
-11.43
-11.70
-12.10
-12.59
-13.12
-13.66
-14.18
-14.65
-15.07
-15.42
-15.72
-15.98
-16.22
-16.46
-16.71
-17.08
-17.62
-18.39
-19.20
-19.95
-20.54
-20.98
-21.24
-21.31
-21.27
-21.24
-21.28
-21.39
-21.59
-21.85
-22.19
-22.55
-22.82
-23.17
-23.79
-24.86
-26.17
-27.58
-28.96
-30.26
-31.27
-31.76
-32.12
-32.78
-34.06
-35.27
-36.03
-36.09
-35.64
-34.71
-33.24
-32.58
-34.12
-38.95
-45.97
-54.39
-63.48
-72.96
-81.95
-89.43
-96.74
-105.68
-118.00
-132.56
-148.87
-166.54
-185.73
-205.29
-223.49
-241.39
-260.49
-282.10
-303.79
-323.85
-340.61
-353.20
-359.76
-342.32
-289.34
-196.97
-95.69
-5.92
58.10
96.32
106.78
89.96
49.73
-8.89
-77.88
-137.58
-168.76
-162.09
-120.70
-58.47
8.98
70.44
119.51
155.32
179.67
195.88
205.03
207.15
201.99
191.45
178.65
165.15
151.48
137.51
123.11
107.44
89.67
69.07
46.20
22.40
-1.42
-24.42
-45.70
-64.54
-80.90
-95.00
-107.23
-117.06
-123.11
-123.50
-117.15
-101.44
-74.28
-34.55
17.89
82.02
155.02
231.53
302.47
357.37
387.97
391.02
370.10
334.25
294.38
259.02
231.82
211.91
196.25
182.49
169.96
159.32
151.15
144.89
138.74
130.94
120.75
109.02
97.83
89.35
84.62
83.19
83.37
82.83
79.76
73.40
64.24
53.63
42.92
32.88
23.41
14.14
3.64
-8.90
-23.45
-39.08
-54.31
-67.61
-77.98
-85.12
-89.48
-91.99
-93.52
-94.66
-95.49
-95.68
-94.66
-92.06
-87.87
-82.66
-77.47
-73.35
-71.07
-70.72
-71.63
-72.56
-72.21
-69.95
-66.15
-62.41
-60.73
-62.54
-67.78
-74.49
-79.48
-79.47
-72.45
-58.13
-38.05
-14.71
9.01
30.25
46.38
55.25
55.93
49.39
38.74
28.38
22.35
22.33
26.79
31.82
33.24
29.22
21.36
13.90
11.21
15.20
24.17
33.57
38.63
36.47
27.73
16.20
6.80
3.05
5.29
10.83
15.49
16.08
11.92
5.04
-1.19
-4.04
-2.88
0.60
3.59
3.81
0.90
-3.48
-6.64
-6.43
-2.61
3.11
8.01
10.03
8.80
5.82
3.28
2.74
4.04
5.36
4.41
0.07
-6.67
-12.92
-15.49
-12.87
-6.32
0.61
3.88
1.31
-6.06
-14.37
-18.98
-17.13
-9.54
-0.11
6.23
6.40
0.93
-6.36
-10.60
-8.84
-1.78
6.47
10.85
8.46
0.44
-8.44
-12.50
-8.39
2.85
16.26
25.58
26.63
19.46
8.20
-1.23
-4.34
-0.29
7.96
15.49
18.23
14.97
7.69
-0.00
-5.10
-6.90
-6.93
-7.67
-10.41
-14.11
-16.03
-13.52
-6.23
3.23
10.40
11.35
5.17
-5.43
-15.28
-19.53
-16.15
-6.96
3.44
10.05
10.15
4.43
-3.43
-8.79
-8.58
-2.79
5.48
11.81
12.72
7.79
-0.22
-6.69
-7.79
-2.66
6.34
14.72
18.68
17.02
11.66
6.19
3.70
4.84
7.46
7.74
2.57
-8.34
-21.34
-30.58
-31.12
-22.02
-6.96
7.49
16.03
17.39
15.17
15.05
20.56
30.47
39.50
41.82
34.88
21.47
7.82
-0.02
-0.09
4.64
8.38
5.77
-4.91
-20.89
-36.53
-46.34
-47.63
-41.73
-32.82
-25.24
-21.03
-19.02
-15.60
-7.50
5.58
20.04
29.92
30.07
19.29
1.03
-17.97
-30.93
-34.14
-28.33
-17.78
-7.65
-1.37
0.75
1.03
2.57
6.82
12.79
17.68
18.65
14.77
7.82
1.29
-1.80
-0.75
2.16
3.20
-0.26
-7.71
-15.29
-17.88
-12.19
0.99
16.82
28.57
31.04
23.02
7.89
-8.24
-19.47
-22.84
-19.25
-12.46
-6.82
-4.76
-5.84
-7.32
-6.14
-0.89
7.31
15.42
20.31
20.43
16.61
11.32
7.14
5.45
5.72
6.29
5.50
2.80
-0.79
-3.25
-2.92
0.48
5.40
9.32
10.10
7.24
2.24
-2.32
-4.34
-3.57
-1.87
-1.80
-5.01
-10.85
-16.42
-18.15
-14.09
-5.39
4.01
9.31
7.55
-0.50
-10.38
-16.35
-14.54
-5.32
6.63
14.89
15.02
6.95
-5.09
-14.89
-17.82
-13.21
-4.31
4.07
8.18
7.15
3.01
-0.76
-1.27
2.33
8.49
14.37
17.11
15.23
9.31
1.69
-4.88
-8.77
-10.35
-11.50
-14.29
-19.30
-24.87
-27.80
-25.33
-17.04
-5.37
5.09
10.51
9.73
4.89
0.47
0.74
7.35
18.61
30.60
39.26
42.30
39.67
32.80
23.50
13.01
2.05
-8.66
-17.99
-24.31
-26.38
-24.09
-18.78
-13.03
-9.72
-10.67
-15.96
-23.69
-30.76
-34.09
-32.13
-25.69
-17.54
-11.39
-9.78
-12.78
-18.11
-22.41
-23.11
-19.68
-13.71
-7.79
-4.07
-3.00
-3.31
-2.93
-0.26
4.83
11.01
16.29
19.26
19.89
19.56
20.13
22.81
27.22
31.58
33.62
32.00
27.11
20.99
16.24
14.60
16.00
18.75
20.59
20.08
17.39
14.20
12.50
13.41
16.39
19.55
20.66
18.49
13.58
7.90
3.89
2.99
4.86
7.57
8.70
6.80
2.53
-1.47
-2.08
2.48
11.10
19.96
24.24
20.72
9.67
-5.02
-17.64
-23.69
-22.11
-15.73
-9.48
-7.40
-10.60
-16.85
-22.31
-24.04
-21.70
-17.51
-14.61
-15.18
-19.00
-23.86
-26.95
-26.50
-22.96
-18.56
-15.98
-16.75
-20.31
-24.25
-25.65
-22.68
-15.49
-6.23
2.28
7.95
10.36
10.62
10.36
10.62
11.24
11.29
9.85
7.03
4.05
2.63
4.04
8.23
13.59
17.53
17.72
13.11
4.86
-4.09
-10.31
-11.39
-7.43
-1.03
4.06
4.92
1.16
-4.83
-9.20
-8.92
-3.53
4.56
11.35
13.48
10.03
2.77
-5.06
-10.56
-12.63
-12.09
-10.61
-9.24
-7.77
-4.98
0.06
6.95
13.75
17.81
17.37
12.49
5.29
-1.18
-4.49
-4.03
-1.38
0.74
-0.02
-4.20
-10.02
-14.28
-13.93
-7.93
1.97
11.99
17.94
17.31
10.53
0.71
-8.04
-12.48
-11.73
-7.36
-2.07
1.82
3.48
3.57
3.33
3.38
3.04
0.75
-4.83
-13.32
-22.38
-28.50
-28.90
-23.30
-14.48
-7.10
-5.22
-10.29
-20.14
-30.07
-35.36
-33.83
-26.86
-18.56
-13.49
-14.20
-20.37
-28.80
-35.58
-38.06
-36.17
-32.44
-30.31
-32.32
-38.30
-46.08
-52.26
-54.69
-53.72
-51.92
-52.24
-55.46
-59.08
-57.92
-47.43
-25.55
5.61
40.89
74.97
105.22
132.91
159.70
187.16
214.25
238.35
256.10
264.56
261.77
246.45
218.29
178.83
135.97
95.14
61.85
40.25
31.15
31.15
33.50
29.48
13.25
-15.94
-54.07
-94.24
-130.09
-157.88
-176.18
-184.56
-182.53
-169.73
-149.51
-125.26
-101.56
-82.75
-71.25
-66.23
-64.57
-62.73
-58.47
-51.78
-44.15
-37.24
-31.56
-26.45
-20.35
-12.91
-5.29
0.55
3.16
2.76
0.99
0.08
1.51
5.12
9.07
11.27
10.77
8.51
6.81
7.77
11.98
18.06
23.38
25.58
23.94
19.73
15.36
12.91
12.65
13.06
11.75
7.15
-0.29
-7.92
-12.15
-10.40
-2.73
7.70
16.00
17.97
12.48
2.15
-7.81
-12.41
-9.53
-1.01
8.43
14.01
13.51
8.58
3.42
2.16
6.20
13.17
18.27
17.20
9.00
-3.13
-13.23
-15.84
-9.21
3.60
16.07
21.83
18.15
7.51
-3.90
-9.78
-7.33
1.16
9.79
12.51
6.70
-5.24
-17.21
-22.95
-19.56
-9.11
2.53
9.13
7.66
-0.12
-8.84
-12.94
-10.04
-2.42
4.41
5.21
-1.47
-12.13
-20.25
-20.23
-11.01
2.99
14.30
16.76
9.12
-4.06
-15.10
-17.78
-10.78
1.56
12.11
15.29
10.28
1.17
-5.83
-6.37
-0.54
7.45
12.21
10.62
3.87
-3.52
-6.58
-3.10
5.04
13.01
16.05
12.26
3.66
-4.93
-8.88
-6.35
0.65
7.41
9.24
4.38
-5.13
-14.43
-18.65
-15.73
-7.36
1.95
7.67
7.68
3.40
-1.42
-3.23
-0.79
4.04
7.70
7.21
2.15
-5.02
-10.33
-10.58
-5.10
3.85
12.25
16.30
14.35
7.54
-0.82
-6.98
-8.54
-5.54
-0.14
4.51
6.13
4.37
0.82
-2.04
-2.44
-0.22
3.09
5.46
5.64
4.02
2.29
2.13
3.98
6.46
7.15
4.20
-2.28
-9.85
-14.92
-14.66
-8.69
0.52
8.83
12.62
10.67
4.67
-1.84
-5.61
-5.39
-2.44
0.50
0.99
-1.55
-5.63
-8.72
-8.77
-5.42
-0.16
4.63
6.99
6.28
3.35
-0.10
-2.45
-2.99
-2.05
-0.75
-0.32
-1.48
-4.06
-7.03
-8.78
-7.93
-4.05
1.74
7.06
9.38
7.47
2.41
-2.81
-4.93
-2.44
3.31
8.73
10.28
6.81
0.48
-4.51
-4.74
0.06
6.60
10.14
7.63
-0.10
-8.62
-12.45
-8.53
1.77
13.18
19.39
16.63
5.83
-7.81
-17.57
-18.97
-12.19
-1.86
5.61
5.80
-1.08
-10.36
-15.64
-12.78
-2.56
9.70
17.26
16.03
7.06
-4.25
-11.44
-10.87
-3.71
5.11
10.01
8.23
1.17
-6.67
-10.62
-8.64
-2.41
3.81
5.87
2.20
-5.24
-12.22
-14.63
-10.97
-3.17
4.59
8.31
6.59
1.47
-2.93
-3.07
1.83
9.10
14.30
14.00
7.97
-0.52
-6.63
-6.81
-0.95
7.55
13.75
14.06
8.34
-0.17
-6.77
-8.15
-4.25
1.86
5.82
4.66
-1.50
-9.59
-15.40
-15.99
-11.25
-3.81
2.50
4.83
2.72
-1.91
-6.05
-7.51
-6.13
-3.72
-2.86
-5.16
-10.02
-14.81
-16.20
-12.29
-3.96
5.15
10.35
8.50
0.03
-10.97
-18.58
-18.18
-8.98
5.51
19.21
26.68
25.73
18.27
8.98
2.64
1.69
5.36
10.53
13.66
12.84
8.56
3.11
-0.89
-2.02
-0.80
1.01
1.53
0.09
-2.36
-3.96
-3.19
-0.07
3.77
5.94
4.85
0.77
-4.06
-6.73
-5.24
0.13
6.73
10.75
9.28
2.13
-7.86
-15.98
-18.18
-13.35
-4.09
4.59
7.92
4.19
-4.26
-12.45
-15.40
-10.99
-1.11
9.50
15.89
15.54
9.55
1.75
-3.61
-4.29
-1.05
3.05
4.81
3.07
-0.41
-2.17
0.60
7.94
16.48
21.09
17.83
6.55
-8.51
-20.70
-24.41
-18.08
-5.07
8.07
15.01
12.73
2.92
-9.26
-17.97
-19.73
-14.82
-6.78
-0.03
2.65
1.44
-1.04
-1.75
0.63
4.91
8.32
8.34
4.59
-0.84
-4.69
-4.60
-0.69
4.36
6.93
4.76
-1.48
-8.42
-11.91
-9.50
-2.15
6.21
10.85
9.15
2.18
-5.77
-9.67
-6.72
1.89
11.58
16.89
14.43
4.97
-7.16
-16.17
-17.84
-11.62
-0.85
9.17
13.81
11.42
4.00
-4.10
-8.60
-7.60
-2.49
3.18
5.98
4.62
0.67
-2.65
-2.63
1.07
6.24
9.42
8.15
2.61
-4.40
-9.03
-8.66
-3.58
3.00
6.75
4.76
-2.55
-11.54
-17.11
-15.69
-7.32
4.11
12.95
14.89
9.44
0.23
-7.13
-8.36
-3.10
4.95
10.41
9.68
3.16
-5.00
-9.61
-7.74
-0.49
7.73
12.00
9.77
2.39
-6.08
-11.30
-11.09
-6.43
-0.46
3.57
4.05
1.67
-1.25
-2.22
0.04
4.99
10.41
13.54
12.41
6.87
-1.18
-8.52
-12.22
-11.13
-6.47
-1.29
1.29
-0.14
-4.34
-8.25
-8.75
-4.89
1.51
6.84
7.78
3.68
-3.01
-8.07
-8.05
-2.36
6.13
12.95
14.58
10.59
4.01
-0.59
0.09
5.88
13.33
17.59
15.18
6.08
-6.23
-16.54
-20.68
-17.53
-9.44
-0.59
5.25
6.74
5.34
4.01
5.28
9.51
14.60
17.28
14.99
7.47
-2.80
-11.89
-16.54
-15.61
-10.69
-4.87
-0.97
-0.21
-1.80
-3.71
-4.05
-2.44
-0.03
1.34
0.33
-2.86
-6.55
-8.60
-7.82
-4.81
-1.68
-0.66
-2.65
-6.44
-9.45
-9.11
-4.61
2.63
9.67
13.58
13.02
8.67
2.80
-2.23
-4.99
-5.59
-4.99
-4.24
-3.54
-2.34
0.13
3.97
8.14
10.72
9.78
4.66
-3.32
-11.05
-14.97
-12.77
-4.66
6.37
15.72
19.24
15.27
5.47
-5.67
-13.10
-13.72
-8.16
-0.37
4.52
3.09
-4.33
-13.79
-20.02
-19.32
-11.76
-0.91
8.14
11.82
9.75
4.75
0.89
1.01
5.17
10.82
14.33
13.23
7.54
-0.22
-6.47
-8.62
-6.40
-1.85
1.93
2.71
0.33
-3.28
-5.48
-4.52
-0.67
4.00
6.95
6.72
3.78
0.14
-1.96
-1.55
0.53
2.28
1.88
-0.91
-4.51
-6.56
-5.27
-0.70
5.14
9.43
10.06
6.83
1.32
-3.94
-6.97
-7.39
-6.29
-5.39
-5.87
-7.63
-9.57
-10.15
-8.34
-4.25
0.85
5.02
6.42
4.36
-0.30
-5.47
-8.72
-8.55
-5.11
-0.05
4.37
6.54
6.37
5.12
4.55
5.71
8.26
10.58
10.86
8.18
3.19
-2.15
-5.48
-5.25
-1.51
4.05
8.73
10.26
7.75
2.44
-3.04
-6.01
-5.26
-1.67
2.18
3.63
1.65
-2.58
-6.18
-6.43
-2.60
3.38
7.94
8.16
3.57
-3.16
-7.89
-7.57
-2.27
4.62
8.35
5.61
-3.27
-14.45
-22.61
-23.89
-17.80
-7.39
2.66
8.58
9.27
6.63
4.07
4.34
7.88
12.53
14.77
11.97
4.29
-5.18
-11.89
-12.41
-6.53
2.46
9.58
11.16
6.96
0.38
-3.76
-2.35
3.91
10.83
13.32
8.62
-1.64
-12.23
-17.25
-13.79
-3.70
7.23
12.71
9.61
-0.14
-10.66
-15.65
-12.18
-2.39
7.85
12.46
8.85
-0.47
-9.51
-12.30
-6.61
4.70
15.31
19.16
14.01
2.80
-8.25
-13.29
-10.27
-2.12
5.32
7.04
2.05
-6.07
-11.48
-9.90
-1.43
9.32
16.09
14.68
5.68
-5.95
-13.78
-13.71
-6.38
3.41
9.57
8.44
0.83
-8.48
-13.69
-11.37
-2.46
8.24
14.76
13.46
4.91
-6.35
-14.53
-15.76
-10.08
-1.25
5.65
7.11
3.09
-3.08
-7.00
-5.91
-0.42
5.83
8.45
5.10
-2.89
-11.19
-14.96
-11.76
-3.14
6.29
11.42
9.60
2.23
-6.13
-10.37
-7.74
0.54
9.97
15.25
13.18
4.39
-6.91
-15.12
-16.14
-9.37
1.98
12.57
17.54
14.98
6.63
-3.21
-10.15
-12.04
-9.76
-6.28
-4.47
-5.20
-6.85
-6.50
-2.16
5.47
12.96
15.99
11.90
1.84
-9.56
-16.41
-14.89
-5.45
7.19
16.61
18.16
11.44
0.54
-8.49
-11.02
-6.41
1.93
8.66
9.72
4.65
-3.30
-9.25
-9.48
-3.64
5.17
12.05
13.16
7.68
-1.63
-9.97
-13.08
-9.58
-1.74
5.82
8.59
4.84
-3.45
-11.54
-14.61
-10.51
-1.03
8.96
14.27
12.28
4.51
-4.34
-9.11
-7.19
-0.02
7.83
11.27
7.82
-0.99
-10.55
-15.86
-14.44
-7.62
0.51
5.77
6.43
3.96
1.68
2.26
5.89
10.22
12.13
9.82
4.12
-2.07
-5.56
-4.73
-0.41
4.91
8.48
8.80
6.15
2.18
-0.96
-1.62
0.58
4.65
8.62
10.31
8.52
3.78
-1.84
-5.68
-5.98
-3.01
0.94
2.84
0.90
-4.24
-9.59
-11.61
-8.42
-1.33
5.76
8.53
5.04
-3.05
-11.24
-14.79
-11.59
-3.52
4.64
8.12
5.07
-2.34
-9.28
-11.24
-7.00
0.67
6.82
7.42
1.99
-5.99
-11.17
-9.67
-1.53
9.12
16.32
15.79
7.49
-4.24
-13.18
-14.81
-8.88
0.52
7.36
7.34
0.35
-9.37
-15.81
-14.70
-5.98
6.16
15.66
17.99
12.67
3.32
-4.50
-6.62
-2.55
4.32
8.85
7.29
-0.32
-9.97
-15.90
-13.97
-4.28
8.65
18.18
19.29
11.52
-0.76
-10.69
-13.01
-6.87
3.64
12.19
13.98
8.56
-0.13
-6.34
-6.27
-0.33
7.24
11.09
8.17
-0.38
-10.00
-15.46
-14.03
-7.04
1.00
5.23
3.27
-3.50
-10.83
-14.32
-12.00
-5.35
1.72
5.40
4.15
-0.55
-5.36
-7.27
-5.30
-0.81
3.52
5.39
4.06
0.60
-2.82
-4.09
-2.12
2.51
7.80
11.15
10.60
6.18
0.07
-4.25
-3.96
1.16
8.28
12.81
11.27
3.56
-6.46
-13.14
-12.33
-4.13
6.96
14.60
14.36
6.45
-4.51
-12.35
-13.10
-7.21
1.01
6.30
5.76
0.41
-5.74
-8.48
-6.05
-0.02
5.94
8.45
6.40
1.41
-3.37
-5.07
-2.58
3.09
9.40
13.47
13.31
8.75
1.62
-5.04
-8.24
-6.56
-1.04
5.22
8.69
7.49
2.51
-3.06
-5.88
-4.63
-1.01
1.47
0.02
-5.30
-11.33
-13.71
-9.90
-1.21
7.75
11.77
8.28
-0.95
-10.84
-16.02
-14.04
-6.48
2.09
7.11
6.43
1.22
-5.07
-9.01
-8.91
-5.47
-0.96
2.21
2.72
0.84
-1.88
-3.43
-2.37
1.48
6.71
10.87
11.75
8.65
3.00
-2.14
-3.75
-0.71
5.25
10.43
11.22
6.54
-1.29
-7.74
-8.82
-3.58
5.08
12.21
13.93
9.72
2.69
-2.69
-3.52
-0.49
2.98
3.08
-1.66
-9.32
-15.79
-17.38
-13.12
-5.18
2.54
6.63
5.80
1.30
-4.21
-8.04
-8.68
-6.26
-2.25
1.33
2.78
1.63
-1.05
-3.13
-2.49
1.48
7.25
11.52
11.23
5.51
-3.27
-10.45
-11.75
-6.07
3.60
11.64
13.25
7.43
-2.21
-9.58
-9.88
-2.71
7.69
15.08
15.09
8.01
-1.48
-7.44
-6.31
0.67
8.29
10.65
4.93
-6.72
-18.37
-23.83
-20.25
-9.81
1.70
8.33
7.43
0.94
-6.05
-8.63
-5.10
2.09
8.03
8.41
2.20
-7.80
-16.71
-20.45
-17.83
-11.01
-3.93
0.02
-0.42
-4.02
-8.17
-10.51
-10.13
-7.80
-5.26
-4.06
-4.80
-6.77
-8.43
-8.24
-5.42
-0.38
5.23
9.31
10.34
8.19
4.30
1.03
0.52
3.46
8.87
14.55
18.27
18.95
17.12
14.59
13.34
14.33
16.82
18.86
18.44
14.66
8.44
2.04
-2.20
-3.09
-1.29
1.22
2.33
1.16
-1.36
-3.20
-2.57
0.69
4.81
6.99
5.05
-1.13
-9.33
-16.00
-18.02
-14.45
-6.92
1.10
6.29
7.07
4.41
0.96
-0.67
0.46
2.99
4.26
2.07
-3.80
-11.18
-16.57
-17.21
-12.52
-4.44
3.76
9.18
10.78
9.75
8.37
8.64
10.85
13.45
13.90
10.30
2.74
-6.39
-13.36
-14.98
-10.33
-1.33
8.14
14.13
14.68
10.58
4.69
0.12
-1.56
-0.93
0.05
-0.38
-2.62
-5.46
-6.97
-5.96
-2.76
0.80
2.56
1.28
-2.57
-7.06
-9.99
-10.14
-7.95
-5.30
-4.30
-5.96
-9.52
-12.77
-13.20
-9.45
-2.26
5.72
11.16
11.79
7.77
1.69
-2.71
-2.66
1.99
8.45
12.43
10.74
3.23
-6.74
-14.13
-14.92
-8.38
2.42
12.49
17.47
16.07
10.44
4.54
1.68
2.68
5.42
6.45
3.28
-3.94
-12.30
-17.61
-16.88
-10.10
-0.31
7.72
10.10
5.92
-2.58
-11.14
-15.88
-15.21
-10.41
-4.67
-1.11
-1.17
-3.78
-6.29
-6.15
-2.52
3.17
8.17
10.09
8.28
4.21
0.35
-1.35
-0.57
1.27
2.11
0.75
-2.51
-5.99
-7.65
-6.47
-3.07
0.94
3.74
4.37
3.35
2.10
2.04
3.62
5.87
7.02
5.66
1.92
-2.36
-4.43
-2.27
4.12
12.39
18.78
19.96
14.83
5.14
-5.07
-11.51
-11.71
-6.34
1.04
5.86
5.20
-0.63
-8.12
-12.53
-10.64
-2.68
7.77
15.66
17.28
12.16
3.15
-5.24
-9.33
-8.08
-3.47
0.79
1.38
-2.84
-10.09
-16.66
-18.93
-15.34
-7.43
0.84
5.35
4.05
-1.67
-7.86
-10.38
-7.28
-0.05
7.30
10.68
8.28
1.74
-5.04
-8.16
-6.02
-0.02
6.39
9.84
8.83
4.50
-0.25
-2.56
-1.19
2.81
6.72
7.70
4.53
-1.54
-7.34
-9.50
-6.40
0.74
8.41
12.67
11.49
5.91
-0.51
-3.96
-2.66
2.05
6.59
7.40
3.06
-4.69
-12.09
-15.50
-13.47
-7.43
-0.73
3.32
3.36
0.53
-2.22
-2.18
1.52
7.29
11.80
11.98
6.78
-2.01
-10.55
-14.91
-13.12
-6.30
2.03
7.80
8.56
4.70
-0.81
-4.36
-3.58
1.26
7.61
12.15
12.72
9.40
4.19
-0.29
-2.48
-2.45
-1.59
-1.38
-2.27
-3.46
-3.58
-1.73
1.64
4.92
6.23
4.65
0.98
-2.61
-3.77
-1.32
3.87
9.09
11.09
7.87
-0.15
-10.03
-17.65
-19.79
-15.84
-8.30
-1.43
1.01
-1.92
-7.80
-12.16
-11.11
-3.84
6.67
15.16
17.14
11.55
1.55
-7.23
-9.92
-5.30
3.52
10.83
11.72
4.93
-6.44
-16.72
-20.87
-17.23
-8.21
1.21
6.32
5.24
-0.19
-5.66
-6.92
-2.23
6.57
15.01
18.45
14.72
5.41
-4.84
-10.89
-9.91
-2.91
5.81
11.22
10.50
4.59
-2.42
-5.86
-3.44
3.25
9.72
11.21
5.78
-4.43
-14.15
-17.98
-13.59
-3.02
8.16
14.15
12.16
3.95
-5.43
-10.74
-9.67
-3.94
2.17
4.70
2.43
-2.59
-6.58
-6.53
-2.01
4.83
10.55
12.36
9.57
3.78
-1.91
-4.45
-2.29
3.68
10.45
14.12
12.08
4.64
-4.80
-11.32
-11.32
-4.69
4.78
11.61
11.86
5.61
-3.13
-8.87
-8.18
-1.82
5.77
9.27
5.98
-2.51
-11.17
-14.63
-10.37
-0.36
10.12
15.45
13.07
4.74
-4.62
-9.88
-8.78
-3.16
2.28
2.97
-2.63
-11.82
-19.11
-19.42
-11.21
2.25
14.34
18.69
12.71
-0.78
-15.00
-22.80
-20.63
-10.40
1.61
8.32
6.05
-3.48
-14.12
-19.10
-14.96
-3.75
8.43
14.99
13.05
5.08
-2.82
-4.75
1.18
11.67
20.43
22.21
16.06
5.90
-2.03
-3.30
2.07
9.72
13.80
10.82
1.65
-8.96
-15.38
-14.27
-6.35
4.28
12.51
14.75
10.49
2.12
-6.38
-11.42
-11.19
-6.38
0.31
5.27
5.93
2.12
-3.73
-7.83
-7.40
-2.58
3.36
6.10
3.02
-4.64
-12.22
-14.60
-9.52
0.64
10.05
13.17
8.08
-2.12
-11.30
-14.06
-8.88
1.24
10.68
14.61
11.50
3.62
-4.64
-9.27
-8.72
-4.34
0.78
3.60
2.88
-0.33
-3.47
-4.03
-1.06
4.17
8.85
10.32
7.84
3.21
-0.05
1.04
6.86
14.47
19.06
16.79
7.36
-5.45
-15.68
-18.56
-13.39
-3.90
3.80
4.82
-1.50
-11.32
-18.47
-18.09
-9.40
3.77
15.05
18.82
13.18
0.96
-11.63
-18.20
-15.38
-4.67
8.33
16.74
16.20
7.15
-5.44
-14.95
-16.84
-11.02
-1.52
6.13
8.32
5.20
0.21
-2.44
-0.55
4.87
10.44
12.53
9.55
2.86
-4.17
-8.16
-7.63
-3.85
0.11
1.29
-1.32
-6.10
-9.75
-9.57
-5.19
0.93
4.96
4.13
-1.31
-8.02
-11.58
-9.07
-1.03
8.62
14.72
13.69
5.69
-5.41
-14.00
-15.61
-9.46
1.15
10.52
13.61
8.80
-1.16
-10.47
-13.53
-8.03
3.56
15.10
20.14
15.41
2.91
-11.06
-19.16
-16.90
-5.11
10.37
21.92
24.03
16.18
2.81
-9.30
-14.78
-12.30
-4.83
2.61
6.09
4.92
1.54
-0.44
1.17
5.69
9.93
10.42
5.65
-2.73
-10.51
-13.34
-9.24
-0.10
9.04
12.56
7.40
-4.87
-18.50
-26.43
-24.12
-12.27
3.27
14.66
16.26
7.74
-5.75
-16.55
-18.67
-11.04
2.38
15.14
22.06
21.73
16.66
11.00
7.80
7.31
7.28
5.02
-0.37
-6.99
-11.11
-9.50
-1.81
8.59
16.07
15.49
5.27
-11.34
-27.53
-36.05
-32.93
-19.68
-2.68
9.96
12.55
4.82
-8.19
-18.86
-21.22
-14.02
-1.20
10.72
16.30
14.06
7.04
0.42
-1.60
1.75
7.76
12.30
12.54
8.84
4.20
2.20
4.55
9.68
13.64
12.38
4.40
-7.91
-19.26
-24.02
-19.35
-6.75
8.42
19.47
21.69
14.47
1.50
-11.23
-18.48
-18.19
-12.15
-4.46
1.07
3.04
3.06
4.02
7.76
13.33
17.40
16.42
9.23
-1.55
-10.62
-13.01
-7.07
4.23
14.61
17.86
11.29
-2.70
-17.78
-26.87
-25.81
-15.51
-1.41
9.30
11.45
4.49
-7.33
-17.31
-19.92
-13.67
-1.68
10.20
16.67
15.80
9.77
3.23
0.57
3.35
9.74
15.66
17.30
13.32
5.59
-2.02
-5.99
-5.26
-1.76
0.74
-0.61
-5.86
-11.88
-14.39
-10.78
-2.38
6.12
9.10
3.68
-8.21
-20.42
-25.95
-20.87
-6.68
10.41
22.86
25.46
17.99
4.91
-7.15
-12.82
-10.49
-2.68
5.57
9.61
7.45
0.74
-6.39
-9.76
-7.43
-0.76
6.54
10.57
9.52
4.63
-0.90
-3.87
-3.26
-0.49
1.72
1.50
-1.06
-3.79
-4.23
-1.23
3.83
7.76
7.40
1.47
-8.20
-17.56
-22.12
-19.49
-10.69
0.08
7.56
8.14
1.86
-7.34
-13.82
-13.37
-5.80
4.65
11.65
10.12
-0.33
-15.14
-27.07
-30.12
-22.99
-9.80
2.06
6.05
-0.05
-13.05
-26.44
-33.98
-33.05
-25.69
-17.12
-12.70
-14.95
-22.57
-31.36
-37.08
-37.68
-34.44
-30.97
-31.09
-36.68
-46.69
-57.84
-66.44
-70.69
-71.65
-72.43
-76.11
-83.37
-91.78
-96.62
-93.03
-78.14
-52.37
-18.95
17.78
54.47
89.93
125.12
159.15
189.90
214.66
231.03
238.17
237.09
230.00
219.61
208.31
198.03
189.48
182.59
176.21
168.52
157.46
141.11
118.47
90.24
61.59
36.52
19.76
14.64
20.94
34.25
47.34
53.02
45.77
25.69
-2.90
-33.57
-61.20
-83.51
-100.55
-113.16
-121.61
-125.45
-123.99
-117.81
-108.46
-98.21
-89.34
-83.09
-79.36
-76.93
-74.20
-69.78
-63.47
-55.98
-48.61
-42.66
-38.77
-36.81
-35.95
-35.18
-33.59
-31.06
-28.01
-25.24
-23.48
-23.15
-24.15
-26.07
-28.38
-30.59
-32.62
-34.66
-37.11
-40.31
-44.45
-49.50
-55.30
-61.64
-68.29
-75.16
-82.36
-90.07
-98.46
-107.65
-117.65
-128.43
-140.42
-153.27
-166.52
-179.64
-191.92
-202.34
-209.66
-212.43
-209.16
-198.50
-179.87
-152.71
-117.27
-74.70
-27.07
22.82
71.79
116.64
154.56
183.49
202.31
210.74
209.46
199.91
184.07
164.19
142.51
121.01
101.27
84.35
70.69
60.24
52.59
47.11
43.08
39.80
36.62
33.06
28.84
23.79
17.87
11.14
3.74
-4.09
-12.02
-19.69
-26.74
-32.92
-38.12
-42.43
-46.18
-49.81
-53.80
-58.55
-64.31
-71.08
-78.74
-86.97
-95.43
-103.83
-111.94
-119.41
-125.83
-130.66
-133.34
-133.43
-130.71
-125.47
-118.47
-110.67
-102.87
-95.38
-87.75
-78.94
-68.62
-56.50
-42.91
-28.84
-15.60
-4.24
5.01
13.06
21.56
32.30
46.46
63.89
83.16
102.16
119.08
133.23
145.33
157.21
171.12
189.21
212.87
242.21
275.58
309.25
337.49
353.71
352.43
331.50
293.54
245.35
195.54
151.25
115.74
88.09
65.14
44.20
25.02
9.69
0.95
0.05
5.72
14.64
23.02
28.12
29.13
27.03
23.67
20.77
19.00
17.58
14.44
7.07
-5.96
-23.79
-43.07
-59.18
-68.47
-70.14
-66.50
-61.43
-57.99
-56.92
-56.89
-56.20
-54.59
-53.65
-55.65
-61.81
-71.22
-81.17
-88.61
-91.55
-89.65
-84.07
-76.83
-70.28
-66.83
-68.63
-77.01
-92.17
-112.59
-135.25
-156.23
-171.40
-177.02
-170.47
-151.01
-120.78
-84.98
-50.73
-24.57
-9.73
-4.60
-3.56
0.02
10.48
28.34
51.19
75.94
100.50
123.83
144.48
159.31
163.90
154.94
132.97
103.34
74.49
54.34
46.84
51.09
62.31
74.77
84.20
88.76
88.61
84.96
79.20
72.64
66.36
60.80
55.60
49.74
42.19
32.58
21.85
11.79
4.06
-0.90
-4.33
-8.32
-14.64
-23.42
-33.07
-41.10
-45.56
-45.98
-43.38
-39.23
-34.37
-28.58
-21.27
-12.58
-4.08
1.59
1.98
-3.59
-13.36
-23.47
-29.52
-28.37
-19.33
-4.46
12.59
28.03
39.25
45.39
47.13
45.64
42.46
39.20
37.70
39.85
46.69
57.30
68.39
75.43
74.41
63.97
45.48
21.48
-6.16
-36.80
-69.73
-101.89
-126.73
-136.54
-125.73
-94.49
-49.50
-0.94
42.18
75.66
100.95
123.07
146.44
172.92
201.54
228.29
249.87
264.68
272.16
271.45
264.40
249.89
225.51
189.39
142.36
87.47
31.47
-18.11
-56.43
-81.38
-94.28
-96.41
-88.91
-72.30
-48.06
-19.95
5.09
19.01
16.73
-1.07
-26.78
-49.02
-57.66
-48.60
-25.58
0.98
18.79
19.36
1.15
-29.80
-63.05
-88.46
-100.47
-99.88
-92.39
-85.96
-86.70
-97.28
-116.57
-141.77
-170.63
-202.72
-238.65
-278.50
-320.43
-360.43
-394.13
-418.59
-433.50
-440.85
-443.80
-444.68
-443.88
-440.79
-432.71
-416.83
-391.71
-357.94
-317.88
-274.76
-231.47
-189.82
-150.45
-113.08
-77.33
-43.31
-11.61
16.97
41.90
63.34
82.11
99.39
116.19
133.01
149.78
166.03
181.33
195.52
208.98
222.64
237.75
255.61
276.81
300.59
324.57
345.05
357.99
360.25
350.73
330.60
302.92
271.42
239.51
209.53
182.76
159.65
140.16
123.86
110.03
97.72
86.02
74.30
62.51
51.02
40.36
30.90
22.70
15.48
8.96
3.04
-2.27
-6.95
-11.10
-14.93
-18.59
-21.90
-24.29
-25.11
-24.18
-22.11
-20.30
-20.28
-22.82
-27.40
-32.26
-35.14
-34.36
-29.74
-22.86
-16.66
-14.17
-17.07
-24.72
-34.25
-41.87
-44.61
-41.71
-34.84
-27.03
-20.93
-17.52
-15.86
-14.17
-11.23
-7.30
-3.87
-2.57
-3.90
-6.73
-8.90
-8.44
-4.67
1.35
7.39
11.17
11.46
8.66
4.44
0.83
-0.87
-0.64
0.37
0.65
-0.72
-3.53
-6.48
-8.01
-7.12
-3.95
0.28
3.98
5.93
5.79
4.11
1.82
-0.35
-2.16
-3.75
-5.25
-6.56
-7.33
-7.27
-6.37
-5.12
-4.17
-4.08
-5.01
-6.65
-8.41
-9.63
-9.90
-9.18
-7.76
-6.11
-4.69
-3.72
-3.22
-2.96
-2.72
-2.43
-2.20
-2.23
-2.72
-3.64
-4.81
-5.92
-6.69
-6.98
-6.78
-6.21
-5.47
-4.73
-4.24
-4.24
-4.93
-6.44
-8.65
-11.12
-13.07
-13.61
-11.95
-7.75
-1.32
6.37
13.81
19.26
21.22
19.08
13.58
6.89
1.95
1.22
5.34
12.49
18.98
20.86
15.89
4.83
-8.82
-20.42
-26.23
-24.89
-17.51
-6.73
4.69
14.65
21.96
25.81
25.54
20.59
11.03
-1.98
-16.14
-28.56
-36.80
-39.84
-38.34
-34.19
-29.46
-25.46
-22.36
-19.61
-16.66
-13.67
-11.57
-11.48
-13.89
-18.09
-22.28
-24.44
-23.35
-19.36
-14.23
-10.31
-9.48
-12.27
-17.68
-23.77
-28.48
-30.55
-30.14
-28.79
-28.68
-31.61
-37.93
-46.18
-53.58
-57.33
-56.08
-50.70
-43.88
-38.67
-36.74
-37.46
-38.13
-35.33
-26.59
-11.01
10.87
37.91
69.08
103.68
140.88
179.15
215.96
248.04
272.22
286.28
289.54
282.88
268.32
248.31
225.20
200.71
175.96
151.55
127.89
105.43
84.74
66.42
50.87
38.25
28.25
20.24
13.40
6.92
0.13
-7.38
-15.22
-23.38
-31.66
-39.65
-46.72
-52.16
-55.29
-55.59
-52.70
-46.61
-37.74
-26.80
-14.75
-2.67
8.36
17.21
22.82
24.39
21.51
14.09
2.51
-12.50
-29.91
-48.56
-67.40
-85.61
-102.30
-116.57
-127.74
-135.24
-138.89
-139.12
-135.24
-127.65
-117.96
-108.24
-100.43
-96.16
-96.34
-101.29
-110.73
-123.87
-139.59
-157.20
-175.87
-194.47
-211.55
-225.24
-233.88
-236.09
-231.06
-214.83
-185.39
-142.61
-88.16
-25.53
40.96
106.08
164.96
212.30
247.06
269.37
279.88
279.65
269.79
252.02
227.05
195.56
158.18
116.57
72.71
28.72
-12.82
-49.53
-78.73
-99.56
-112.29
-118.04
-117.11
-105.88
-82.04
-44.96
-2.37
40.14
77.09
105.33
120.75
119.75
99.67
59.40
1.15
-68.99
-137.45
-190.09
-216.18
-212.93
-185.85
-146.04
-105.21
-70.80
-44.63
-23.96
-6.19
9.50
21.97
30.05
33.95
35.31
36.55
39.40
44.69
51.21
56.62
58.73
56.72
51.38
44.51
38.06
33.25
30.48
28.70
26.22
21.51
13.95
3.95
-7.38
-18.87
-29.79
-39.88
-49.77
-60.45
-72.80
-87.26
-103.67
-121.51
-140.19
-159.23
-178.23
-197.05
-215.55
-233.34
-249.64
-263.33
-273.05
-277.46
-276.31
-268.86
-254.62
-233.60
-206.36
-173.96
-137.88
-99.89
-61.81
-25.29
8.48
38.57
64.45
85.90
102.92
115.70
124.51
129.75
131.88
131.60
129.51
126.10
121.67
116.30
109.79
101.86
92.34
81.35
69.46
57.49
46.31
36.53
28.27
21.00
13.86
6.04
-2.69
-11.79
-20.10
-26.32
-29.67
-30.39
-29.86
-30.04
-32.66
-38.19
-45.46
-51.87
-54.41
-50.92
-41.07
-26.52
-10.30
4.42
16.20
26.15
37.81
56.02
85.01
126.45
178.10
233.73
284.49
321.10
336.39
327.36
296.47
251.09
201.66
158.59
128.88
113.73
107.91
101.81
85.89
55.42
12.96
-32.62
-70.33
-92.13
-96.21
-87.08
-72.47
-58.83
-48.67
-40.46
-30.73
-16.70
1.18
19.55
34.09
39.49
31.21
8.22
-26.00
-63.95
-96.28
-115.33
-117.73
-105.38
-83.94
-59.71
-36.86
-16.60
1.57
18.07
32.03
41.67
45.95
46.11
46.42
52.78
69.89
98.43
134.11
169.21
195.67
208.42
206.99
195.07
178.33
161.86
148.56
139.07
132.69
128.41
125.39
122.94
120.44
117.51
114.33
111.50
109.79
109.21
108.45
105.07
95.87
77.65
47.77
4.91
-50.21
-114.07
-180.15
-239.88
-284.73
-308.86
-311.04
-294.94
-267.27
-234.88
-202.07
-169.35
-134.22
-93.52
-46.55
4.39
53.01
91.56
113.65
116.73
102.83
77.73
48.74
22.05
1.67
-10.81
-14.89
-10.55
2.46
23.86
51.55
81.67
107.84
122.93
121.52
102.02
68.45
29.40
-5.22
-28.19
-37.72
-37.33
-32.75
-27.99
-23.04
-14.75
-0.31
19.28
38.22
48.23
42.80
20.66
-14.03
-54.49
-95.13
-133.58
-169.84
-203.89
-233.08
-252.38
-256.52
-243.04
-214.04
-175.59
-135.18
-98.99
-70.36
-49.80
-36.36
-28.90
-26.62
-28.59
-33.05
-36.54
-34.15
-21.05
5.33
43.42
87.16
128.08
158.90
176.25
182.69
185.36
192.39
209.25
236.21
268.71
299.63
323.11
334.55
330.53
308.31
266.08
204.51
128.12
45.47
-33.48
-99.47
-148.06
-180.90
-204.38
-226.13
-251.30
-280.66
-310.91
-337.06
-354.49
-360.65
-355.12
-338.97
-313.94
-281.90
-244.71
-203.79
-159.84
-112.87
-62.57
-8.85
47.15
102.41
152.02
190.33
212.98
218.93
211.32
196.45
181.09
169.51
161.70
153.80
140.25
116.84
82.66
40.57
-3.74
-43.36
-71.59
-83.36
-76.81
-54.84
-25.34
0.42
11.77
3.31
-22.41
-55.75
-84.45
-99.34
-98.12
-85.19
-68.26
-53.83
-44.44
-38.71
-33.42
-25.65
-13.85
2.39
22.61
45.42
67.83
85.31
92.99
87.79
70.16
44.05
15.03
-11.93
-33.63
-48.20
-53.74
-47.90
-29.14
1.25
37.89
72.33
96.48
106.23
103.36
94.54
88.03
89.84
101.59
121.06
143.72
164.88
180.79
188.87
187.51
176.41
156.72
131.07
103.03
76.08
52.56
32.81
14.87
-5.04
-31.25
-66.76
-110.94
-158.08
-197.84
-218.36
-211.18
-175.89
-121.86
-65.84
-26.15
-15.73
-37.53
-84.01
-140.20
-189.03
-216.23
-213.84
-181.78
-127.94
-66.48
-14.22
14.28
11.95
-18.11
-63.80
-108.64
-137.66
-141.80
-119.28
-74.54
-15.71
47.41
104.82
147.52
168.94
166.59
143.13
105.97
65.09
29.88
6.08
-5.90
-10.26
-13.24
-20.05
-32.18
-46.82
-58.51
-62.02
-55.34
-40.87
-24.19
-11.11
-5.00
-5.73
-10.59
-16.41
-21.22
-24.51
-26.36
-26.43
-23.63
-16.87
-6.38
5.62
15.41
19.37
15.88
6.26
-5.64
-15.14
-18.71
-15.26
-6.41
4.40
13.30
17.39
15.51
8.47
-1.59
-12.04
-20.74
-26.61
-29.75
-31.19
-32.33
-34.36
-38.03
-43.42
-50.00
-56.50
-61.10
-61.97
-58.13
-50.41
-41.54
-35.29
-34.86
-41.25
-52.60
-64.82
-73.02
-73.19
-63.38
-43.75
-16.07
17.20
53.46
90.15
124.66
154.44
177.24
191.64
197.41
195.55
187.95
176.75
163.77
150.12
136.20
121.92
107.14
91.96
76.81
62.43
49.55
38.63
29.73
22.52
16.45
11.03
5.94
1.19
-3.06
-6.52
-9.04
-10.60
-11.37
-11.64
-11.62
-11.47
-11.21
-10.80
-10.12
-9.05
-7.56
-5.64
-3.43
-1.01
1.44
3.63
5.15
5.63
4.70
2.05
-2.30
-8.49
-16.32
-25.31
-34.77
-43.96
-52.08
-58.51
-62.94
-65.49
-66.71
-67.36
-68.33
-70.44
-74.29
-79.94
-86.88
-94.12
-100.39
-104.37
-104.80
-100.83
-91.45
-77.33
-59.72
-40.18
-20.34
-1.69
14.57
27.67
37.33
43.69
47.03
48.00
47.27
45.52
43.23
40.77
38.36
36.07
33.91
31.77
29.64
27.51
25.45
23.46
21.57
19.82
18.18
16.65
15.15
13.67
12.23
10.95
9.78
8.73
7.79
6.96
6.23
5.55
4.91
4.32
3.78
3.28
2.85
2.48
2.18
1.95
1.77
1.63
1.53
1.45
1.42
1.42
1.49
1.63
1.86
2.18
2.57
3.01
3.45
3.87
4.31
4.77
5.33
6.04
6.90
7.89
8.97
10.08
11.16
12.23
13.34
14.57
16.02
17.71
19.62
21.65
23.65
25.51
27.22
28.90
30.75
33.04
35.86
39.18
42.78
46.34
49.49
52.07
54.04
55.49
56.41
56.48
54.96
50.95
43.56
32.36
17.61
0.38
-17.69
-34.48
-48.86
-60.41
-69.59
-77.37
-84.72
-92.00
-98.75
-104.25
-107.13
-106.87
-103.89
-99.52
-95.55
-93.84
-95.79
-102.02
-111.63
-121.81
-128.34
-126.41
-112.79
-87.70
-55.49
-23.11
2.30
16.57
19.95
16.08
10.08
6.30
7.11
12.51
21.14
30.44
37.35
39.08
34.09
23.26
9.98
-0.87
-5.42
-2.34
6.68
18.30
29.38
38.24
44.68
49.01
51.16
50.59
46.91
40.57
33.09
26.40
21.88
19.91
19.53
19.09
17.23
13.48
8.40
3.24
-0.86
-3.42
-4.81
-6.08
-8.27
-11.81
-16.34
-20.93
-24.58
-26.75
-27.55
-27.70
-28.14
-29.93
-33.90
-40.42
-48.72
-56.30
-59.38
-53.94
-37.78
-12.03
18.69
47.90
69.82
81.67
84.39
81.41
76.57
72.19
68.69
65.30
61.45
57.44
54.40
53.26
54.18
56.25
58.16
58.75
57.65
55.40
53.06
51.60
51.65
52.49
52.77
51.00
46.05
37.42
25.52
11.29
-4.09
-20.13
-35.65
-50.39
-64.25
-77.04
-88.40
-97.82
-104.63
-108.34
-108.70
-105.52
-99.01
-89.45
-77.18
-62.65
-46.33
-28.89
-11.09
5.85
21.40
34.96
46.23
55.22
62.06
67.12
70.75
73.25
75.08
76.36
77.25
78.24
79.19
79.79
79.51
77.58
73.12
65.62
55.17
42.51
28.49
15.09
3.47
-5.91
-13.36
-19.67
-25.56
-31.25
-36.17
-39.21
-39.20
-35.82
-29.79
-22.88
-17.26
-14.53
-14.85
-17.01
-18.98
-18.59
-15.01
-8.69
-0.94
6.77
13.06
16.31
14.66
6.79
-6.89
-23.29
-36.92
-42.04
-35.72
-19.85
-0.81
13.47
17.49
10.49
-3.55
-18.66
-30.31
-37.16
-40.69
-43.26
-46.32
-49.77
-52.38
-52.97
-50.92
-46.72
-41.85
-38.18
-37.47
-40.57
-46.61
-52.79
-55.21
-50.62
-38.21
-20.39
-1.87
12.52
20.00
21.03
18.55
16.01
15.51
16.86
18.41
18.09
15.03
9.86
4.31
0.21
-1.42
-0.73
1.11
2.47
2.00
-0.66
-5.00
-9.75
-13.23
-13.97
-11.09
-4.82
3.75
12.87
20.90
26.64
29.68
30.49
30.09
29.89
31.16
35.18
42.93
54.46
68.08
80.06
85.71
80.60
64.36
40.59
15.87
-3.01
-12.08
-11.70
-5.75
1.02
5.43
7.45
9.11
12.54
18.70
26.32
32.95
36.06
34.39
27.54
16.51
3.00
-10.89
-22.79
-30.70
-33.19
-30.79
-25.69
-21.05
-19.63
-22.82
-30.01
-39.02
-46.86
-50.97
-49.92
-43.38
-32.11
-17.48
-1.37
14.22
27.73
38.47
46.90
53.91
59.31
61.37
56.77
42.10
16.07
-18.65
-56.01
-88.82
-111.28
-121.28
-120.41
-112.48
-101.16
-88.25
-73.74
-57.11
-38.58
-19.65
-2.59
10.95
21.04
28.33
34.34
40.54
47.30
54.00
59.37
62.38
62.52
59.97
55.37
49.67
43.69
37.80
32.05
26.43
20.81
15.01
8.50
0.49
-9.57
-21.82
-35.66
-49.66
-61.79
-70.08
-73.36
-71.59
-65.94
-57.91
-48.88
-39.80
-31.18
-23.25
-15.80
-7.65
3.00
17.95
37.55
59.52
78.73
88.88
85.14
66.24
37.00
5.96
-18.42
-31.31
-32.89
-27.30
-19.71
-13.89
-10.99
-10.11
-10.02
-10.28
-11.36
-13.79
-17.63
-21.75
-24.40
-24.03
-20.14
-13.56
-5.82
1.56
7.73
13.10
18.43
24.26
30.53
36.21
39.58
38.72
32.18
20.02
3.70
-14.21
-30.66
-43.43
-51.35
-54.05
-51.17
-43.13
-30.33
-15.10
-1.09
8.60
12.97
13.95
14.49
16.34
18.69
19.50
17.73
15.06
15.25
20.83
30.24
37.33
34.25
16.41
-14.59
-51.50
-85.00
-108.59
-121.75
-129.05
-137.02
-149.82
-166.13
-179.34
-180.70
-163.83
-128.26
-80.83
-32.81
4.36
23.66
24.60
11.89
-8.10
-30.55
-53.71
-77.84
-102.63
-126.10
-144.64
-155.02
-156.28
-150.68
-142.84
-138.07
-139.82
-147.33
-157.59
-165.38
-165.67
-155.58
-135.05
-106.25
-72.16
-35.06
5.85
52.69
107.64
171.01
239.96
308.91
371.26
421.33
456.23
478.36
492.70
505.24
521.12
543.60
573.93
611.35
652.84
680.56
677.99
632.70
542.16
416.15
273.45
134.61
14.96
-78.92
-148.34
-197.07
-229.34
-247.90
-254.42
-251.07
-241.45
-230.17
-221.35
-217.23
-216.34
-215.47
-211.14
-201.38
-186.68
-169.52
-153.18
-140.40
-132.37
-127.68
-123.73
-117.91
-108.73
-96.41
-82.63
-69.64
-59.36
-52.51
-48.17
-44.52
-39.66
-32.43
-22.84
-11.85
-0.77
9.21
17.73
25.39
33.21
41.91
51.64
60.86
67.29
68.46
62.65
49.46
30.07
6.70
-18.04
-41.76
-63.21
-82.04
-98.44
-112.77
-125.51
-137.26
-148.39
-158.17
-164.35
-163.32
-151.40
-127.02
-92.40
-53.40
-17.59
8.71
23.05
26.97
24.52
19.86
15.36
11.17
6.53
1.13
-4.42
-8.71
-10.81
-10.86
-10.10
-10.20
-12.63
-17.78
-25.02
-33.24
-41.19
-48.28
-54.58
-60.64
-66.83
-73.05
-78.02
-79.62
-75.72
-64.61
-45.56
-18.99
13.42
49.37
86.33
121.91
154.20
181.37
201.90
214.60
218.71
213.91
200.49
179.46
151.26
119.08
85.78
53.74
24.72
-0.22
-20.75
-37.35
-50.60
-61.11
-68.87
-73.92
-76.31
-76.39
-75.05
-73.72
-74.06
-76.99
-82.33
-88.36
-92.56
-92.80
-88.25
-79.39
-67.93
-55.81
-44.39
-33.92
-23.53
-12.16
1.06
16.48
34.04
53.59
74.15
93.08
105.53
105.45
88.30
54.08
9.17
-34.98
-65.68
-74.05
-58.74
-26.69
10.84
43.98
67.82
83.92
96.04
107.26
117.52
124.60
126.15
122.11
115.15
108.87
104.78
99.45
87.32
63.00
25.65
-19.60
-63.80
-98.92
-122.83
-139.14
-153.88
-170.52
-186.57
-194.11
-185.27
-157.65
-116.70
-73.33
-38.26
-17.39
-10.46
-13.13
-20.81
-31.48
-45.78
-64.15
-84.64
-101.67
-107.24
-95.74
-66.49
-24.48
20.85
59.97
85.84
96.00
93.04
82.91
72.03
64.03
60.91
61.87
64.56
66.11
63.99
56.82
44.62
28.54
10.92
-5.50
-18.75
-28.09
-34.20
-38.72
-43.45
-49.32
-55.60
-59.43
-56.45
-42.58
-16.21
20.25
60.77
97.54
124.25
138.79
143.63
143.78
143.26
142.51
138.17
125.82
102.92
71.02
35.29
2.00
-24.44
-42.91
-54.68
-61.47
-63.52
-59.63
-48.89
-32.67
-15.23
-2.20
2.11
-3.02
-14.52
-27.21
-36.61
-40.48
-39.44
-35.66
-31.17
-27.03
-23.40
-20.16
-17.35
-15.34
-14.27
-13.92
-13.84
-13.20
-11.38
-8.23
-4.08
0.48
4.77
8.29
10.79
12.31
13.05
13.18
12.64
11.14
8.37
4.10
-1.50
-7.79
-13.88
-18.84
-21.73
-22.03
-19.66
-14.91
-8.33
-0.44
8.42
18.04
28.23
38.95
49.98
60.91
71.15
79.93
86.39
89.76
89.44
85.09
76.73
64.74
49.77
32.95
15.41
-1.73
-17.47
-31.00
-41.84
-49.77
-54.90
-57.88
-58.91
-58.60
-57.57
-56.41
-55.37
-54.66
-54.22
-53.92
-53.57
-52.95
-52.22
-51.67
-51.75
-52.65
-54.59
-57.51
-61.22
-65.39
-69.78
-74.47
-79.56
-85.46
-91.18
-95.55
-96.87
-93.30
-83.49
-66.88
-44.28
-16.88
11.87
39.27
63.29
82.70
97.56
107.72
112.88
112.30
105.11
90.72
69.51
42.42
10.96
-22.88
-56.31
-85.25
-104.83
-110.88
-102.05
-80.77
-53.30
-27.34
-9.23
-1.69
-3.39
-10.74
-20.14
-29.53
-38.42
-46.92
-54.36
-59.16
-59.31
-53.87
-43.61
-30.76
-17.93
-7.03
1.90
10.51
21.22
35.93
54.85
76.44
97.67
115.16
126.36
130.44
128.42
122.03
112.80
100.99
85.91
66.32
41.98
14.10
-13.90
-37.26
-51.70
-54.34
-44.51
-23.08
6.94
41.22
73.21
95.33
100.95
87.84
61.93
32.53
11.64
7.99
22.67
48.07
72.02
83.33
77.01
55.29
25.06
-5.93
-32.74
-53.71
-68.59
-75.94
-72.66
-55.95
-26.14
11.19
46.80
70.93
77.33
65.79
41.54
11.92
-17.20
-42.95
-65.02
-82.90
-94.05
-95.02
-84.57
-65.55
-44.55
-28.89
-23.13
-27.34
-37.43
-48.47
-57.39
-64.24
-71.08
-79.93
-91.11
-102.84
-112.76
-117.90
-116.44
-108.20
-94.40
-76.59
-55.91
-32.77
-7.06
20.81
50.40
80.40
108.54
132.04
148.49
156.88
157.80
153.31
146.25
139.34
134.21
131.50
131.26
133.08
135.69
136.37
131.07
115.83
88.99
52.55
12.18
-24.76
-52.10
-67.36
-72.04
-70.05
-65.36
-60.10
-54.62
-48.60
-42.27
-36.74
-33.28
-32.13
-31.98
-30.64
-26.01
-17.16
-5.24
7.13
16.95
21.83
21.05
15.49
6.72
-3.62
-14.75
-26.94
-40.87
-57.20
-76.32
-98.01
-121.22
-143.80
-162.09
-171.70
-169.04
-153.02
-126.34
-94.99
-66.06
-43.82
-29.45
-20.42
-12.82
-3.42
8.87
22.65
35.49
45.82
53.22
58.10
61.14
62.22
60.75
56.31
48.76
39.03
29.11
20.99
15.94
14.18
14.76
16.15
16.85
15.97
13.56
10.64
8.60
8.19
9.53
11.92
14.54
16.92
19.04
21.55
25.53
31.74
39.77
48.13
54.47
56.75
54.15
47.15
37.39
27.31
19.11
13.59
10.21
7.76
5.28
3.19
3.23
7.60
16.64
32.02
54.20
82.03
112.61
140.63
159.96
168.48
162.46
142.48
114.09
85.54
64.84
56.53
59.07
67.07
70.94
63.56
42.73
11.70
-23.21
-55.64
-82.88
-106.99
-129.98
-153.19
-176.63
-198.49
-216.05
-227.38
-232.06
-222.83
-201.38
-171.83
-138.81
-105.41
-72.93
-41.67
-12.07
15.29
39.55
59.38
75.44
88.30
99.12
108.64
116.96
123.46
127.74
128.80
125.40
117.99
106.40
91.42
75.18
60.43
48.94
41.04
33.23
21.58
3.24
-24.42
-61.19
-103.58
-146.53
-185.90
-218.83
-246.32
-270.19
-277.94
-261.95
-223.72
-172.23
-116.87
-70.52
-28.67
12.22
52.92
92.10
126.32
150.03
160.75
160.17
152.79
144.44
137.65
133.38
131.14
128.19
120.57
106.71
88.24
68.69
52.28
40.28
32.67
27.99
23.03
12.63
-6.28
-33.06
-64.15
-94.20
-119.08
-135.26
-141.32
-127.33
-92.14
-45.58
-2.16
29.19
48.62
58.49
64.86
70.19
73.86
71.75
60.15
39.73
13.02
-16.67
-46.94
-76.12
-103.91
-130.14
-155.58
-179.89
-201.50
-219.15
-233.32
-245.89
-257.85
-267.80
-270.99
-262.22
-237.82
-197.91
-147.33
-93.94
-45.47
-6.22
23.62
47.17
67.94
88.23
108.61
127.95
144.36
156.03
162.13
162.85
159.41
153.29
145.64
137.16
128.09
118.69
109.73
102.62
98.72
98.77
102.20
107.36
112.26
115.48
116.86
117.28
118.03
119.87
122.57
125.03
126.07
125.26
123.32
121.88
122.57
126.16
131.95
137.95
141.68
141.10
135.38
124.97
111.29
96.14
81.29
68.22
58.06
51.44
48.26
47.69
48.15
47.76
45.01
39.20
30.48
19.62
7.36
-5.81
-19.78
-34.74
-51.06
-69.28
-89.92
-113.24
-138.86
-165.62
-191.86
-215.92
-237.08
-256.06
-274.98
-296.55
-322.75
-353.47
-385.82
-414.17
-431.23
-430.03
-406.07
-358.94
-292.99
-216.26
-138.60
-69.06
-13.86
24.67
47.73
58.63
61.25
58.96
54.25
48.92
44.44
42.22
43.51
48.87
57.40
66.82
74.59
79.27
81.36
83.19
87.60
96.54
109.95
125.20
138.19
145.50
145.94
140.43
130.83
118.87
105.84
93.54
84.00
79.77
83.77
98.01
121.59
149.88
175.77
192.55
197.00
188.86
170.09
143.83
113.01
79.01
41.63
0.38
-46.77
-93.52
-129.25
-147.01
-147.65
-136.81
-120.41
-102.38
-84.12
-65.36
-45.36
-25.62
-9.55
-1.43
-4.19
-18.64
-43.11
-73.35
-102.72
-121.50
-122.03
-103.91
-74.06
-43.04
-20.42
-11.04
-13.88
-23.12
-32.10
-37.13
-38.20
-37.37
-35.94
-33.78
-29.81
-23.16
-13.11
-0.21
13.88
27.21
39.56
52.26
67.59
88.21
111.78
136.13
157.80
172.92
178.34
173.38
159.03
137.10
109.59
78.19
45.09
11.72
-20.96
-54.65
-85.81
-108.54
-118.25
-113.78
-97.22
-71.99
-43.58
-15.35
9.97
31.29
48.45
61.94
72.89
78.96
80.43
78.27
74.09
69.57
66.32
64.79
63.78
61.21
55.04
44.83
31.13
15.47
0.02
-13.11
-22.55
-28.52
-32.47
-36.43
-41.73
-49.02
-57.90
-66.52
-72.68
-74.25
-70.72
-63.27
-54.41
-46.90
-43.36
-45.72
-54.44
-69.48
-84.99
-94.18
-92.35
-79.58
-59.46
-36.54
-18.11
-4.62
3.69
7.39
7.41
5.12
3.12
3.32
6.03
9.55
11.48
8.99
1.09
-11.45
-26.53
-41.62
-54.46
-63.15
-66.15
-61.65
-48.94
-28.49
-2.69
24.67
49.68
69.48
82.88
89.92
91.39
87.65
79.18
66.90
52.76
39.53
30.06
26.00
27.19
32.17
38.88
46.02
53.25
60.88
68.94
76.46
81.25
80.64
72.47
55.62
30.11
-3.58
-45.01
-93.53
-147.12
-201.79
-250.81
-286.07
-300.63
-291.28
-260.09
-213.84
-161.69
-111.64
-69.65
-37.05
-12.01
8.34
25.89
40.39
49.77
51.67
46.53
35.33
23.15
16.60
21.29
39.53
69.05
103.30
133.40
152.86
154.09
135.31
98.67
49.38
-5.21
-56.64
-96.41
-117.47
-113.26
-86.36
-41.11
15.26
75.23
133.50
188.31
240.30
273.67
304.58
324.42
326.95
309.41
275.27
233.77
196.45
172.28
163.99
170.02
179.90
186.14
184.76
175.91
161.82
144.06
121.84
92.29
54.39
5.41
-51.99
-111.93
-167.02
-210.90
-240.01
-254.62
-258.41
-255.63
-253.01
-254.57
-262.54
-277.18
-297.04
-319.05
-338.37
-348.93
-344.14
-321.08
-280.76
-229.12
-174.99
-126.35
-86.54
-52.76
-17.85
25.56
79.58
139.43
194.22
232.64
247.38
238.78
214.63
186.13
163.08
149.95
145.64
145.80
147.51
150.85
158.72
174.16
196.46
219.69
234.16
230.24
202.77
155.96
99.55
45.49
3.16
-24.08
-38.98
-48.12
-58.51
-76.85
-101.29
-129.42
-157.10
-178.89
-188.62
-180.43
-150.86
-101.98
-45.35
14.01
66.30
106.02
134.19
157.11
182.14
212.91
244.60
261.86
265.84
253.10
224.68
185.25
140.92
96.93
56.22
14.51
-39.68
-93.77
-144.87
-192.36
-237.79
-282.93
-327.49
-368.75
-349.78
-348.59
-351.38
-358.74
-375.74
-408.44
-459.00
-523.80
-594.19
-668.76
-748.04
-805.48
-826.52
-805.75
-749.73
-674.01
-597.85
-474.33
-304.49
-132.44
13.11
121.54
200.36
258.12
299.62
327.61
344.88
344.28
321.14
288.34
255.81
231.96
221.64
225.97
242.46
266.38
284.78
289.83
288.66
283.20
277.64
275.04
275.80
278.30
280.89
278.26
269.13
258.53
251.21
250.55
257.97
271.90
288.58
304.72
314.96
315.34
304.04
281.21
250.09
216.86
186.51
160.10
137.32
115.19
89.76
58.32
20.60
-26.41
-70.98
-95.06
-91.85
-67.44
-35.40
-9.70
-0.18
-11.21
-40.45
-79.85
-121.17
-163.14
-202.62
-235.24
-257.30
-266.41
-263.02
-248.35
-223.52
-179.88
-126.75
-73.57
-26.25
9.85
39.05
63.49
83.44
98.23
105.11
98.41
75.96
39.12
-5.28
-47.80
-82.24
-106.12
-119.71
-125.35
-128.12
-131.09
-135.51
-140.74
-143.73
-140.51
-126.41
-98.54
-58.37
-13.13
28.65
59.96
77.62
82.96
79.90
73.29
66.86
62.18
58.70
55.86
53.56
51.98
51.19
50.57
49.38
47.27
44.23
40.73
37.74
36.60
38.06
41.35
43.58
40.59
28.66
6.51
-23.37
-55.01
-80.93
-94.85
-93.94
-79.50
-55.86
-28.69
-3.20
16.79
28.99
32.76
28.67
18.71
5.93
-6.31
-15.00
-18.14
-14.95
-6.13
5.54
14.98
16.52
5.82
-17.29
-46.91
-72.43
-82.75
-71.56
-40.82
-0.04
38.09
63.40
72.40
68.57
59.12
50.88
47.55
49.13
53.15
56.23
55.01
47.06
31.74
10.47
-13.17
-34.34
-48.83
-54.14
-50.05
-38.28
-21.55
-3.40
11.88
19.38
14.85
-3.18
-31.56
-62.52
-86.07
-94.54
-85.94
-64.08
-36.66
-11.63
5.33
12.14
10.32
3.21
-4.55
-7.74
-1.90
14.58
38.88
64.15
82.09
86.50
76.25
55.00
28.50
1.25
-25.22
-50.95
-74.60
-91.57
-95.10
-79.54
-45.05
0.94
46.24
78.99
92.91
89.71
77.11
64.45
58.98
63.24
75.50
91.66
107.39
119.09
124.53
123.00
112.23
93.53
71.19
51.68
41.48
44.10
58.12
77.54
94.18
101.38
97.44
85.54
71.59
60.68
54.31
49.94
43.29
31.82
17.40
6.77
8.43
28.59
67.76
119.50
172.13
212.31
229.11
217.19
178.08
118.71
48.38
-24.05
-92.07
-151.98
-202.57
-243.99
-276.75
-301.38
-319.22
-332.70
-344.44
-356.00
-366.81
-374.89
-378.21
-375.78
-367.65
-354.31
-335.67
-310.61
-277.47
-235.44
-186.09
-133.37
-81.65
-33.82
9.56
49.41
87.09
123.63
159.42
193.40
222.72
243.21
250.29
240.29
211.57
166.28
110.47
57.03
20.68
9.78
21.99
47.80
77.44
104.08
124.87
139.54
148.71
152.89
151.14
142.03
125.42
102.92
75.99
45.91
14.33
-16.64
-45.67
-72.34
-95.68
-115.18
-130.19
-141.98
-153.14
-166.73
-185.55
-211.79
-245.43
-284.65
-324.35
-349.01
-347.12
-317.90
-272.30
-225.96
-194.76
-178.35
-172.15
-171.04
-170.69
-168.72
-164.22
-155.44
-139.10
-111.54
-70.13
-16.59
44.86
109.68
172.60
230.26
282.59
332.22
382.70
436.68
493.11
548.11
596.51
631.22
645.51
635.31
600.70
545.85
478.07
404.90
332.86
266.72
207.08
151.72
98.13
46.04
-1.51
-38.83
-60.43
-69.69
-70.24
-69.01
-73.94
-89.91
-115.95
-146.30
-174.08
-195.02
-208.69
-217.09
-223.58
-230.20
-236.70
-241.03
-241.09
-236.00
-226.52
-214.31
-201.49
-189.34
-177.91
-166.09
-151.91
-133.51
-110.14
-82.71
-52.83
-22.88
4.17
26.24
42.73
54.90
65.05
75.76
89.28
108.74
136.66
170.33
205.98
237.76
258.74
262.60
245.97
203.42
139.87
68.62
5.35
-39.02
-62.46
-69.55
-66.63
-58.28
-46.83
-32.50
-16.66
-2.58
6.26
7.83
2.57
-6.84
-16.47
-23.26
-25.12
-22.31
-16.89
-10.91
-5.84
-1.44
3.51
10.44
19.02
27.40
32.14
29.28
16.73
-5.90
-35.84
-68.57
-98.91
-123.89
-142.71
-156.59
-167.76
-180.36
-195.30
-211.46
-225.75
-232.17
-224.35
-196.76
-146.87
-76.58
8.87
99.86
187.60
261.73
321.49
370.77
414.03
454.43
485.43
511.86
530.14
535.66
525.59
501.04
465.26
422.89
378.51
332.18
287.24
244.06
202.34
161.38
120.90
79.72
35.90
-12.65
-67.13
-125.22
-184.06
-238.88
-285.09
-319.71
-343.50
-360.42
-375.72
-393.73
-415.02
-438.34
-460.15
-476.61
-485.37
-487.11
-485.18
-484.40
-489.34
-501.83
-520.84
-541.13
-553.95
-549.18
-518.36
-457.75
-370.88
-269.11
-169.06
-88.21
-38.54
-22.26
-31.44
-51.66
-68.26
-72.04
-61.82
-42.61
-21.38
-2.60
13.34
28.84
46.18
65.38
84.30
100.64
114.70
130.10
152.09
183.87
223.51
263.54
293.74
306.01
297.97
274.04
242.66
211.84
185.89
165.02
148.11
135.72
130.91
136.52
151.79
169.32
177.75
167.88
137.42
91.31
38.50
-11.66
-52.52
-80.50
-94.10
-93.34
-81.10
-63.71
-49.67
-46.97
-59.82
-86.98
-119.86
-145.35
-150.34
-127.32
-77.26
-8.92
64.60
130.46
173.20
182.64
158.43
109.76
49.29
-12.95
-71.37
-123.55
-166.53
-200.85
-225.71
-240.60
-246.63
-246.80
-244.60
-242.09
-239.47
-235.14
-226.95
-212.02
-188.64
-157.46
-121.58
-85.36
-52.65
-25.58
-4.02
13.69
30.98
51.22
76.33
106.15
138.92
172.44
205.04
236.20
266.35
297.02
330.04
367.03
409.06
456.34
507.40
558.13
601.44
628.51
631.89
608.55
561.85
500.86
437.28
381.00
336.61
302.41
272.20
238.79
197.18
146.13
87.78
25.91
-36.06
-96.05
-153.29
-207.91
-259.84
-308.67
-354.13
-396.58
-436.96
-475.60
-510.73
-537.98
-551.91
-548.89
-529.67
-499.79
-467.04
-437.45
-412.07
-386.80
-355.15
-312.24
-257.55
-195.12
-131.31
-72.07
-21.17
19.95
51.59
75.23
93.57
110.66
130.83
157.24
190.34
227.19
262.69
291.68
310.87
319.75
320.10
314.49
305.35
294.53
283.77
275.16
271.00
272.88
280.36
290.51
298.49
299.26
289.63
269.56
242.22
212.88
186.87
167.96
157.45
154.38
156.37
160.69
165.03
167.79
168.08
165.53
160.15
152.34
142.91
133.23
125.26
121.39
124.04
134.94
154.35
180.64
210.22
238.14
259.33
269.67
266.81
250.16
220.33
178.39
125.80
64.48
-3.01
-73.32
-143.08
-209.78
-272.38
-330.74
-384.31
-430.74
-465.89
-485.55
-488.14
-476.57
-458.04
-441.35
-433.49
-437.34
-451.76
-473.53
-499.36
-526.47
-551.64
-570.02
-575.30
-561.80
-527.46
-475.47
-413.48
-350.41
-292.93
-243.49
-200.69
-161.41
-123.21
-85.40
-48.75
-14.00
19.32
53.32
91.26
136.50
191.16
254.73
323.35
389.99
445.70
482.26
494.75
483.41
453.66
414.45
375.39
344.00
323.87
314.37
311.68
310.55
306.00
294.42
273.99
244.59
207.34
164.24
117.91
71.45
28.28
-8.35
-36.18
-54.59
-64.97
-70.52
-75.34
-83.11
-95.89
-113.65
-134.25
-154.63
-172.09
-185.51
-195.89
-205.85
-218.58
-236.48
-260.24
-288.34
-317.61
-343.77
-362.30
-369.15
-361.23
-336.77
-295.66
-240.04
-174.67
-106.96
-45.61
1.60
30.19
40.60
37.73
28.67
19.65
14.12
12.58
14.67
21.46
36.19
62.84
102.82
152.15
200.94
236.36
247.27
228.45
181.95
114.97
36.25
-46.95
-129.32
-205.95
-270.99
-318.41
-344.84
-352.50
-349.43
-346.04
-349.81
-361.09
-373.09
-375.70
-361.13
-327.67
-279.85
-225.45
-171.52
-122.17
-78.57
-40.46
-7.45
20.60
44.33
65.77
88.37
115.97
150.71
191.47
233.18
268.20
289.08
291.89
278.44
255.95
234.34
222.00
222.45
233.38
248.58
261.43
267.81
266.96
259.97
247.50
228.30
199.79
159.72
107.85
46.23
-21.96
-93.60
-165.69
-234.14
-292.62
-333.39
-350.31
-342.46
-316.02
-282.61
-254.63
-240.31
-241.01
-252.04
-265.69
-274.79
-274.41
-261.68
-234.88
-193.17
-137.42
-71.34
-1.45
64.45
119.67
160.81
188.52
206.62
220.40
234.69
252.41
274.12
298.22
321.93
342.27
356.66
362.90
358.73
341.95
311.12
267.04
214.03
159.93
114.49
85.98
77.87
87.27
105.87
123.17
130.41
123.46
103.66
76.36
48.45
25.84
12.08
8.00
12.47
23.28
37.97
54.30
70.68
86.27
101.13
116.21
133.04
153.18
177.37
204.68
231.97
254.46
266.98
265.64
249.05
218.78
178.76
134.12
89.93
49.91
16.52
-8.97
-26.34
-36.67
-42.50
-47.43
-55.27
-68.75
-89.71
-117.73
-150.21
-183.05
-212.12
-234.74
-250.05
-258.74
-262.16
-263.55
-265.13
-267.21
-267.78
-263.78
-253.05
-235.59
-213.63
-190.97
-175.27
-172.91
-186.50
-213.18
-245.95
-276.84
-299.77
-311.81
-313.18
-310.59
-310.76
-317.93
-332.31
-351.98
-375.72
-403.99
-437.58
-449.28
-417.99
-335.28
-212.59
-73.07
61.73
178.59
271.84
340.69
387.18
409.69
410.62
393.61
365.20
332.65
301.16
272.39
245.63
219.01
185.98
142.85
89.22
30.20
-25.38
-67.77
-89.74
-88.29
-59.10
-10.78
40.00
75.03
85.86
75.07
51.51
23.02
-6.19
-34.14
-62.04
-89.26
-115.14
-136.30
-151.12
-158.36
-160.10
-160.13
-159.66
-158.93
-155.00
-146.98
-132.40
-109.96
-79.72
-45.05
-10.14
25.28
60.09
96.43
133.19
171.86
214.76
264.97
322.31
369.14
388.53
367.16
327.12
277.00
224.82
169.75
120.93
87.96
76.72
89.31
121.73
166.38
210.37
245.32
268.63
281.78
285.63
280.59
269.39
255.95
245.25
238.92
239.06
247.34
262.01
275.50
277.30
259.89
221.19
165.91
101.85
31.65
-33.99
-82.96
-109.60
-117.14
-112.62
-101.89
-87.32
-70.23
-52.29
-35.19
-22.27
-16.93
-21.24
-33.47
-48.92
-62.10
-69.13
-68.61
-60.17
-45.64
-28.38
-13.90
-6.06
-5.43
-8.88
-11.23
-8.47
0.17
9.53
9.64
-13.32
-68.02
-153.34
-258.11
-365.71
-460.70
-532.81
-578.56
-599.65
-603.95
-598.27
-586.72
-571.57
-555.64
-543.23
-538.23
-541.57
-524.66
-467.93
-368.32
-242.83
-117.52
-13.66
58.77
100.15
117.52
120.05
111.51
93.95
69.42
41.69
14.45
-7.39
-20.61
-24.57
-20.81
-15.19
-12.65
-14.78
-19.58
-23.39
-22.75
-15.24
-0.49
20.46
40.74
54.85
61.42
62.46
61.47
61.83
67.42
79.63
97.52
117.86
137.23
156.37
178.01
204.60
237.41
278.63
327.36
379.66
429.33
469.34
498.75
519.52
534.52
547.57
566.44
595.56
633.92
673.78
701.62
709.26
693.12
654.57
573.09
447.92
295.82
144.30
32.62
-42.25
-91.60
-125.22
-154.56
-184.89
-214.43
-242.23
-268.24
-294.06
-322.50
-346.61
-355.48
-342.10
-306.68
-252.61
-192.27
-132.30
-78.16
-35.71
-5.07
14.37
21.13
12.58
-10.57
-47.12
-91.18
-134.92
-172.55
-198.11
-207.33
-197.70
-176.67
-143.50
-100.37
-53.63
-13.47
8.22
4.36
-22.40
-65.39
-115.39
-161.87
-199.04
-225.28
-241.16
-249.33
-250.15
-241.29
-220.25
-187.35
-145.58
-102.07
-64.76
-38.55
-26.93
-29.12
-40.26
-44.80
-30.23
8.79
66.21
120.43
165.85
202.60
232.22
257.08
275.28
281.94
272.95
246.67
205.57
157.11
107.67
62.00
22.61
-10.62
-40.12
-68.50
-97.04
-124.81
-148.13
-165.06
-175.83
-183.31
-192.95
-211.55
-244.20
-291.10
-346.01
-396.54
-429.82
-436.03
-411.67
-360.78
-293.67
-223.86
-164.61
-126.28
-114.24
-128.80
-164.30
-209.48
-249.63
-270.37
-261.96
-222.21
-156.84
-76.92
4.73
77.02
132.83
169.30
187.18
189.96
183.27
174.38
171.44
181.40
207.41
246.84
291.16
328.34
346.82
339.87
308.13
258.90
203.24
151.43
109.50
77.75
51.91
25.76
-5.64
-43.62
-85.26
-124.30
-153.36
-166.12
-159.41
-134.16
-95.39
-51.10
-10.64
17.07
25.28
10.81
-25.01
-76.35
-133.55
-185.30
-221.36
-235.18
-225.62
-196.80
-156.36
-112.56
-71.65
-36.05
-4.61
25.69
57.34
90.41
122.20
148.08
162.93
162.75
146.17
115.18
75.25
34.43
1.47
-16.66
-16.60
0.55
30.22
66.73
105.63
144.96
184.77
225.24
264.65
298.63
320.98
325.77
309.52
272.39
218.21
153.35
85.12
20.51
-34.75
-76.59
-102.79
-112.98
-108.70
-93.21
-71.04
-47.26
-26.43
-11.54
-3.37
-0.18
1.61
6.04
16.10
32.64
53.91
76.34
95.78
108.80
113.51
109.76
98.59
81.69
60.89
37.88
14.22
-8.68
-29.69
-48.03
-63.40
-75.88
-85.78
-93.41
-98.85
-101.96
-102.38
-99.71
-93.66
-84.34
-72.38
-58.98
-45.68
-33.94
-24.66
-17.97
-13.29
-9.75
-6.50
-2.95
1.56
7.95
17.37
30.65
47.46
65.69
81.56
90.68
89.63
77.40
55.91
29.58
4.09
-14.92
-22.92
-17.10
3.24
36.44
78.43
123.14
163.40
192.34
204.83
198.61
174.67
137.04
91.87
46.26
6.83
-21.69
-37.43
-41.78
-38.81
-34.00
-32.48
-37.54
-49.96
-67.88
-87.62
-104.72
-115.02
-115.71
-106.05
-87.57
-63.84
-39.69
-19.89
-7.79
-4.24
-7.18
-12.33
-14.79
-10.96
-0.03
15.51
30.90
40.82
41.55
32.23
15.10
-5.53
-24.78
-38.75
-45.47
-44.92
-38.67
-29.03
-18.40
-8.81
-1.58
2.88
5.06
6.30
8.50
13.43
22.07
34.01
47.20
58.46
64.41
62.52
51.97
34.09
11.99
-10.16
-28.30
-39.54
-42.75
-38.72
-29.66
-18.38
-7.30
2.03
9.09
14.03
17.15
18.50
17.82
14.78
9.38
2.23
-5.50
-12.27
-16.71
-17.93
-15.75
-10.65
-3.67
3.94
10.94
16.27
19.28
19.75
17.86
14.14
9.31
4.12
-0.83
-5.16
-8.88
-12.23
-15.59
-19.30
-23.39
-27.66
-31.69
-35.10
-37.50
-38.60
-38.03
-35.35
-30.15
-22.27
-12.15
-0.78
10.44
20.12
27.25
31.47
33.07
32.67
31.01
28.69
26.10
23.40
20.71
18.09
15.72
13.75
12.30
11.46
11.17
11.28
11.53
11.56
11.03
9.67
7.32
3.89
-0.60
-6.02
-12.14
-18.66
-25.20
-31.43
-37.14
-42.26
-46.93
-51.19
-54.85
-57.25
-57.35
-54.04
-46.59
-35.10
-20.60
-4.86
10.11
22.60
31.58
36.89
38.96
38.53
36.29
32.77
28.37
23.52
18.71
14.46
11.26
9.30
8.48
8.44
8.70
8.83
8.56
7.73
6.26
4.12
1.31
-2.09
-5.88
-9.69
-13.18
-16.09
-18.36
-20.16
-21.81
-23.60
-25.76
-28.31
-31.01
-33.44
-34.98
-34.98
-32.88
-28.38
-21.51
-12.71
-2.77
7.40
16.82
24.72
30.68
34.60
36.84
37.89
38.33
38.48
38.44
38.02
36.98
35.22
32.84
30.18
27.68
25.66
24.35
23.75
23.65
23.77
23.78
23.43
22.56
21.18
19.44
17.52
15.57
13.56
11.33
8.59
5.03
0.44
-5.18
-11.54
-18.05
-23.86
-27.98
-29.50
-27.89
-23.25
-16.27
-8.22
-0.45
5.94
10.41
12.99
14.11
14.25
13.72
12.69
11.22
9.51
7.89
6.76
6.37
6.68
7.40
8.15
8.64
8.84
8.94
9.15
9.59
10.10
10.33
9.93
8.71
6.78
4.49
2.23
0.26
-1.41
-2.96
-4.65
-6.61
-8.82
-11.10
-13.27
-15.20
-16.93
-18.59
-20.34
-22.28
-24.37
-26.38
-27.87
-28.24
-26.84
-23.19
-17.21
-9.40
-0.81
7.25
13.58
17.45
18.75
17.88
15.48
12.23
8.71
5.45
2.96
1.69
1.97
3.76
6.58
9.67
12.14
13.44
13.43
12.46
11.12
9.87
8.86
7.81
6.28
3.81
0.29
-3.99
-8.38
-12.05
-14.18
-14.35
-12.62
-9.74
-7.05
-6.08
-8.14
-13.73
-22.16
-31.56
-39.38
-43.12
-41.26
-33.89
-22.60
-10.00
1.29
9.54
14.38
16.54
17.26
17.53
17.66
17.37
16.23
14.15
11.61
9.46
8.45
8.81
10.18
11.78
12.92
13.33
13.24
13.12
13.35
13.89
14.27
13.84
12.13
9.10
5.18
1.04
-2.72
-5.84
-8.36
-10.54
-12.60
-14.56
-16.19
-17.25
-17.64
-17.59
-17.57
-18.15
-19.68
-22.08
-24.87
-27.24
-28.28
-27.26
-23.78
-17.88
-10.04
-1.14
7.72
15.33
20.73
23.43
23.46
21.36
17.93
14.03
10.34
7.37
5.29
4.16
3.96
4.59
5.93
7.85
10.14
12.48
14.50
15.75
15.90
14.79
12.53
9.44
5.96
2.53
-0.56
-3.13
-5.13
-6.57
-7.53
-8.15
-8.64
-9.24
-10.16
-11.47
-13.03
-14.62
-16.03
-17.20
-18.29
-19.55
-21.20
-23.31
-25.62
-27.65
-28.73
-28.17
-25.42
-20.19
-12.64
-3.47
6.20
14.95
21.53
25.10
25.56
23.48
19.82
15.61
11.61
8.22
5.53
3.51
2.15
1.54
1.84
3.07
5.14
7.71
10.34
12.55
13.98
14.38
13.73
12.14
9.87
7.20
4.39
1.64
-0.97
-3.37
-5.55
-7.40
-8.75
-9.44
-9.41
-8.83
-8.05
-7.54
-7.69
-8.65
-10.30
-12.32
-14.35
-16.17
-17.74
-19.18
-20.64
-22.19
-23.95
-25.97
-28.25
-30.59
-32.34
-32.53
-30.03
-24.18
-15.17
-4.26
6.53
15.14
20.20
21.58
20.21
17.58
15.00
13.05
11.55
9.93
7.71
4.91
2.17
0.40
0.39
2.53
6.68
12.37
18.93
25.50
30.94
33.85
32.75
26.73
16.08
2.58
-10.89
-21.33
-26.88
-27.54
-24.98
-21.68
-19.55
-19.13
-19.62
-19.66
-18.42
-16.20
-14.25
-14.03
-16.20
-20.20
-24.52
-27.53
-28.30
-27.01
-24.62
-22.21
-20.21
-18.18
-15.09
-10.01
-2.77
5.76
13.88
19.66
21.63
19.46
13.92
6.66
-0.39
-5.72
-8.62
-9.35
-8.91
-8.55
-9.18
-11.07
-13.73
-16.20
-17.49
-17.00
-14.82
-11.72
-8.94
-7.82
-9.47
-14.43
-22.31
-31.31
-38.05
-38.09
-27.30
-3.90
30.02
68.15
101.55
121.66
123.26
106.38
75.98
39.79
5.45
-21.74
-39.72
-49.10
-52.00
-50.86
-47.73
-44.09
-40.90
-38.61
-37.22
-36.37
-35.51
-34.11
-31.91
-29.12
-26.28
-24.22
-23.76
-25.35
-28.81
-33.09
-36.53
-37.22
-33.79
-25.97
-14.81
-2.31
9.48
19.34
27.33
34.36
41.37
48.53
55.15
60.24
63.54
66.13
70.13
77.64
89.51
104.61
120.27
133.44
142.02
145.46
144.32
139.29
130.31
116.63
97.68
74.26
48.84
24.84
5.02
-9.98
-21.97
-34.32
-50.08
-70.53
-94.80
-120.77
-146.48
-171.14
-195.02
-218.70
-241.98
-263.66
-282.17
-296.44
-306.35
-312.28
-314.10
-310.27
-298.18
-275.05
-239.68
-193.41
-139.93
-83.95
-29.28
22.67
73.17
124.99
180.08
237.34
291.72
335.42
360.93
364.42
347.89
318.90
287.84
264.14
253.19
255.16
265.84
278.71
287.04
285.35
269.90
238.98
193.13
135.62
72.42
11.68
-37.94
-69.58
-80.41
-72.78
-53.42
-31.10
-13.40
-4.36
-4.03
-10.07
-20.37
-34.82
-55.14
-82.58
-115.09
-146.24
-166.82
-168.79
-149.49
-113.83
-72.91
-39.54
-23.38
-27.55
-48.40
-78.16
-108.69
-134.12
-151.75
-160.96
-161.64
-153.45
-136.04
-110.12
-78.34
-45.30
-16.57
3.04
10.98
7.74
-3.52
-18.27
-32.30
-42.97
-49.55
-52.49
-52.51
-49.92
-44.65
-36.85
-27.18
-16.68
-6.43
2.96
11.33
18.65
24.75
29.39
32.71
35.73
40.33
48.39
60.67
75.98
91.21
102.60
107.50
105.69
99.73
94.14
93.79
101.86
118.47
139.94
159.63
170.00
165.25
143.51
107.29
62.58
16.38
-25.50
-59.83
-86.00
-105.41
-120.77
-135.33
-152.15
-172.90
-196.89
-220.70
-239.12
-247.22
-242.73
-227.34
-205.94
-184.36
-166.91
-155.16
-148.15
-143.44
-138.14
-129.06
-112.61
-84.65
-41.65
17.22
87.73
160.30
222.43
263.00
276.81
266.15
239.48
207.61
179.27
157.94
141.72
126.09
107.52
85.93
64.18
46.00
33.99
28.44
26.96
25.45
19.76
7.02
-14.06
-44.19
-83.91
-132.65
-184.08
-225.75
-244.48
-235.05
-203.90
-164.09
-128.34
-104.28
-92.94
-90.27
-90.94
-92.44
-94.42
-97.36
-100.40
-101.19
-96.72
-84.54
-63.78
-35.67
-3.16
30.65
62.84
93.04
123.21
156.40
195.29
240.73
290.49
339.31
380.55
408.33
419.73
414.96
396.62
368.24
333.08
293.25
249.69
202.86
153.50
103.45
55.08
10.74
-27.56
-57.98
-78.15
-85.20
-76.36
-50.74
-11.07
35.40
78.10
106.42
113.35
98.01
65.47
23.99
-18.75
-58.56
-95.12
-130.02
-163.73
-193.75
-215.18
-223.42
-217.40
-200.96
-181.91
-168.84
-167.51
-179.13
-201.50
-231.55
-267.79
-310.41
-358.97
-409.68
-454.40
-482.73
-486.34
-463.07
-418.24
-362.53
-307.78
-262.57
-230.28
-209.61
-196.85
-188.52
-182.63
-178.67
-176.54
-175.70
-174.83
-172.35
-167.01
-158.28
-146.69
-133.39
-119.60
-106.17
-93.30
-80.45
-66.67
-51.02
-32.88
-12.28
10.20
33.70
57.44
80.97
104.34
128.06
152.84
179.43
208.53
240.86
276.90
316.30
357.17
395.83
427.36
447.06
452.45
444.28
426.39
404.11
382.21
363.36
347.85
334.53
322.09
310.15
299.29
290.63
284.97
282.40
282.16
282.75
282.27
278.72
270.70
257.85
241.17
222.80
205.00
188.95
173.93
157.61
137.23
111.34
80.88
49.06
19.87
-3.72
-21.33
-35.22
-49.09
-66.61
-90.12
-120.49
-157.28
-198.94
-242.42
-282.95
-314.42
-330.60
-327.16
-303.05
-260.83
-205.43
-142.11
-74.68
-5.11
65.45
134.97
199.22
252.01
287.08
300.39
291.83
265.16
226.31
180.91
132.38
81.66
29.11
-23.41
-71.26
-107.97
-127.75
-128.25
-111.80
-84.66
-54.58
-28.26
-9.61
0.60
4.10
4.00
3.71
6.33
13.97
27.54
46.58
69.42
93.56
116.12
134.30
145.46
147.48
139.14
120.31
92.04
56.29
15.84
-25.62
-63.61
-93.28
-110.83
-115.06
-108.67
-97.72
-89.88
-91.70
-106.65
-134.63
-173.16
-218.94
-268.77
-319.27
-366.06
-403.97
-428.44
-437.89
-435.42
-428.58
-426.65
-436.63
-459.81
-490.67
-518.71
-532.63
-524.59
-493.09
-442.90
-382.74
-322.02
-267.93
-224.18
-191.39
-168.31
-153.06
-143.82
-138.44
-134.18
-127.73
-115.77
-96.11
-68.38
-34.05
4.14
43.18
80.82
115.79
147.71
176.49
201.86
223.36
240.94
255.45
268.84
283.53
301.18
321.74
343.05
361.51
373.13
374.63
364.27
342.43
312.19
279.59
253.27
242.72
255.64
295.00
357.32
432.88
508.15
569.39
606.02
612.63
589.24
540.47
474.18
399.70
326.17
260.92
208.02
167.66
136.84
110.85
85.31
57.77
28.21
-1.59
-29.46
-54.18
-76.31
-98.08
-122.62
-152.45
-187.98
-226.32
-260.97
-283.14
-284.39
-260.11
-211.92
-148.05
-80.98
-23.24
16.74
36.85
40.82
35.47
27.40
20.57
15.54
10.34
2.14
-11.37
-31.23
-57.13
-87.95
-122.25
-158.70
-196.22
-234.23
-272.66
-311.84
-351.73
-391.01
-426.28
-452.19
-462.65
-452.79
-421.06
-370.37
-307.71
-242.07
-181.94
-133.19
-97.96
-74.73
-59.11
-44.94
-25.47
5.07
49.84
107.73
172.50
233.57
278.38
296.06
281.58
238.40
178.63
119.78
79.10
67.74
87.00
128.17
176.14
215.23
234.37
229.88
204.55
164.83
117.43
67.31
17.66
-29.20
-71.24
-107.23
-137.63
-164.69
-191.05
-217.66
-242.15
-259.14
-262.57
-248.90
-219.44
-180.22
-139.63
-104.99
-80.10
-64.56
-54.77
-45.82
-33.00
-12.56
18.25
60.80
114.12
173.80
231.65
277.40
301.73
300.22
275.68
237.44
197.75
166.65
148.11
139.31
133.34
123.55
107.28
86.82
67.43
53.88
47.65
46.31
45.03
39.27
26.97
9.45
-9.77
-27.09
-40.77
-51.57
-62.16
-75.40
-92.97
-114.81
-139.41
-164.43
-186.90
-203.31
-209.60
-201.87
-177.76
-137.88
-86.61
-31.24
20.44
63.01
95.29
120.49
144.23
171.84
205.67
243.59
279.44
304.89
312.26
297.07
259.68
205.10
141.47
77.57
20.54
-25.39
-59.19
-82.29
-97.42
-107.61
-115.76
-124.46
-135.77
-150.92
-169.74
-190.45
-210.03
-225.21
-234.07
-237.06
-236.83
-236.70
-238.26
-239.51
-235.05
-218.22
-184.48
-134.38
-74.17
-13.67
37.28
72.42
90.77
95.93
93.74
89.65
87.00
86.91
89.06
92.77
97.58
103.29
109.48
115.29
119.59
121.42
120.48
117.29
112.94
108.62
105.04
102.14
99.21
95.28
89.52
81.75
72.56
63.22
55.12
49.14
45.11
41.81
37.55
30.92
21.63
10.52
-0.89
-11.43
-21.11
-31.50
-45.16
-64.83
-92.44
-128.41
-171.39
-218.34
-264.87
-305.94
-336.93
-354.70
-358.34
-349.15
-329.99
-303.96
-273.58
-240.18
-204.14
-165.32
-123.53
-78.69
-31.22
17.75
66.08
110.49
147.30
173.50
187.65
190.32
183.69
170.46
152.95
132.55
109.81
84.98
58.24
29.94
0.75
-28.12
-54.57
-75.56
-87.71
-88.57
-78.07
-59.29
-38.09
-21.21
-13.88
-17.98
-31.49
-49.66
-67.24
-80.49
-88.02
-90.35
-88.44
-82.71
-72.71
-57.73
-37.71
-13.53
13.35
41.78
71.29
101.79
132.43
160.77
182.96
194.96
194.43
181.88
160.66
135.37
110.10
87.28
67.54
50.55
35.90
23.45
12.88
3.18
-7.55
-21.51
-40.11
-63.08
-88.20
-112.10
-131.56
-144.68
-151.21
-151.73
-146.50
-134.48
-113.68
-82.35
-40.63
8.72
60.81
110.26
153.00
187.14
212.60
229.78
238.64
238.50
228.92
210.87
187.19
161.87
138.50
119.05
103.30
89.49
75.49
59.83
42.15
22.99
3.33
-15.83
-33.49
-48.72
-60.70
-68.95
-73.64
-75.54
-75.73
-75.12
-74.14
-72.62
-70.15
-66.26
-60.48
-52.29
-41.12
-26.81
-10.07
7.08
21.64
30.61
32.23
26.84
16.80
5.45
-4.25
-10.77
-14.12
-15.31
-15.39
-14.90
-13.84
-12.16
-10.13
-8.69
-9.13
-12.70
-20.32
-32.28
-48.20
-67.04
-87.31
-107.28
-125.27
-139.98
-150.51
-156.33
-157.09
-152.50
-142.49
-127.34
-107.98
-85.87
-62.77
-40.30
-19.67
-1.60
13.46
25.21
33.60
39.08
42.92
47.12
53.88
64.59
79.08
95.30
109.94
119.63
122.17
117.25
106.38
92.15
77.55
65.61
59.20
60.84
72.17
93.18
121.77
153.92
184.45
208.21
220.95
219.84
203.52
172.29
128.27
75.47
19.34
-34.32
-80.96
-118.53
-147.85
-172.10
-195.66
-222.74
-256.15
-296.16
-339.81
-381.11
-412.59
-427.72
-423.29
-400.61
-364.73
-322.12
-277.98
-234.89
-193.04
-151.80
-111.35
-73.21
-39.44
-11.16
12.56
34.80
59.98
92.42
134.57
185.49
240.09
289.82
324.78
337.15
324.35
290.45
244.91
199.00
161.43
135.48
118.72
105.16
88.08
62.22
24.74
-24.66
-83.52
-146.48
-205.48
-251.26
-276.06
-276.24
-253.45
-213.96
-165.82
-115.78
-67.31
-20.89
24.44
69.03
111.38
148.09
174.49
185.79
177.81
148.34
98.75
34.94
-32.98
-92.91
-134.46
-152.11
-146.25
-121.67
-84.47
-39.59
9.78
61.01
110.63
153.97
186.79
207.43
217.46
220.34
218.65
211.65
195.17
164.15
116.36
54.73
-12.77
-75.97
-126.15
-158.84
-174.50
-177.03
-171.15
-160.25
-145.26
-125.34
-99.70
-69.19
-36.92
-7.45
15.17
29.24
36.03
38.96
41.62
45.93
51.42
55.92
57.36
55.66
52.87
52.24
56.35
65.57
77.87
89.91
98.63
102.56
102.35
100.00
97.91
97.80
100.21
104.59
110.12
116.36
123.76
133.48
146.40
162.13
178.45
191.75
198.43
196.65
187.24
173.26
158.54
145.65
134.88
124.36
111.39
94.11
72.50
48.28
23.97
1.83
-16.93
-32.18
-44.48
-54.49
-62.52
-68.48
-72.05
-72.85
-70.65
-65.44
-57.42
-47.03
-34.97
-22.07
-9.35
2.14
11.44
18.00
21.78
23.47
24.16
25.05
27.01
30.29
34.46
38.53
41.29
41.57
38.66
32.52
23.82
13.91
4.45
-2.88
-7.11
-8.47
-8.91
-11.89
-21.42
-40.52
-69.64
-106.03
-144.26
-177.94
-201.70
-212.53
-210.03
-195.54
-171.20
-139.20
-101.86
-61.82
-22.17
14.03
44.54
68.43
86.07
98.28
105.38
106.65
100.86
87.31
66.91
42.52
18.24
-2.07
-16.11
-23.55
-25.56
-23.75
-19.24
-12.50
-3.79
6.03
15.34
22.06
24.66
22.98
18.31
12.61
7.38
2.67
-3.09
-12.12
-26.26
-46.02
-70.50
-98.03
-127.11
-156.58
-184.99
-209.47
-225.13
-225.95
-207.21
-168.16
-113.63
-53.27
1.57
41.63
62.85
66.90
59.43
47.08
34.87
25.09
17.71
11.70
6.08
0.40
-5.43
-11.24
-16.41
-19.54
-18.60
-11.47
2.99
23.95
48.07
70.20
84.86
88.11
78.98
59.76
35.01
9.94
-11.18
-25.98
-34.05
-36.58
-35.60
-33.42
-32.21
-33.57
-38.29
-46.28
-56.67
-68.14
-79.35
-89.31
-97.41
-103.31
-106.75
-107.57
-105.78
-101.67
-95.84
-89.04
-81.99
-75.32
-69.44
-64.49
-60.32
-56.49
-52.44
-47.65
-41.78
-35.01
-28.18
-22.83
-20.65
-22.56
-27.53
-32.05
-30.91
-19.14
5.73
42.44
86.33
131.36
172.35
206.21
231.36
246.23
248.49
235.77
208.13
169.99
130.34
100.09
88.03
97.25
124.19
160.58
197.11
226.99
247.56
259.68
265.80
267.92
266.66
261.48
251.56
236.66
217.53
195.85
173.72
153.09
135.20
120.53
108.95
100.14
93.96
90.70
90.89
95.00
103.06
114.43
127.73
140.89
151.36
156.43
153.72
141.97
121.58
94.89
65.82
38.92
17.91
4.78
-0.69
-0.73
1.49
2.47
-0.92
-11.14
-29.60
-56.14
-88.78
-124.00
-157.98
-188.20
-214.73
-240.08
-267.85
-300.60
-338.27
-378.19
-416.43
-449.80
-477.31
-500.48
-522.16
-544.48
-567.02
-585.89
-594.55
-585.85
-554.86
-500.92
-428.32
-344.64
-258.15
-175.42
-99.76
-31.93
28.56
82.42
130.21
172.63
210.39
244.01
273.36
297.58
315.40
325.63
327.33
319.65
301.89
273.81
236.54
192.89
147.08
103.07
62.97
26.13
-10.21
-48.98
-91.60
-136.95
-182.07
-223.57
-259.03
-287.44
-309.43
-327.24
-343.85
-361.70
-381.17
-399.54
-411.10
-409.37
-389.95
-353.19
-304.65
-253.19
-207.54
-173.07
-150.25
-135.71
-124.54
-112.58
-97.67
-79.13
-56.35
-28.08
6.94
48.27
92.22
132.13
160.44
172.20
167.86
153.61
138.68
131.22
134.85
147.72
164.56
180.32
193.05
204.37
217.57
234.22
252.40
266.55
269.68
256.22
224.07
174.51
111.00
37.20
-43.62
-127.38
-207.79
-275.81
-321.48
-337.39
-322.16
-281.66
-227.01
-170.25
-119.81
-78.12
-41.91
-4.94
38.61
91.47
151.95
214.31
270.02
309.87
326.04
314.31
275.83
217.24
149.66
86.03
37.67
11.33
7.85
22.76
48.72
78.45
106.88
131.73
152.73
169.94
182.85
190.41
191.87
187.48
178.55
166.49
152.04
134.99
114.69
91.01
64.92
38.25
12.87
-10.11
-30.61
-48.79
-64.14
-75.07
-79.44
-75.95
-65.43
-51.47
-39.54
-35.14
-41.44
-57.33
-77.15
-92.00
-92.76
-73.42
-33.43
21.86
83.08
140.08
184.95
213.75
226.37
224.97
212.36
191.01
162.95
130.35
95.84
62.34
32.31
7.10
-13.44
-30.61
-46.24
-61.93
-78.57
-96.24
-114.43
-132.51
-149.66
-164.85
-176.93
-184.85
-188.34
-188.39
-187.54
-189.29
-196.83
-211.30
-230.74
-250.02
-262.50
-262.45
-247.29
-218.40
-180.29
-138.34
-96.56
-56.41
-17.10
23.07
65.13
108.87
153.00
196.00
236.87
275.44
312.04
346.97
380.20
411.20
438.99
462.53
480.81
492.87
497.65
493.81
479.96
454.88
418.10
370.40
313.82
251.27
185.85
120.34
56.98
-2.22
-55.61
-102.21
-142.35
-178.14
-213.21
-251.58
-295.85
-345.71
-397.35
-444.36
-479.96
-499.24
-500.63
-485.88
-458.82
-423.77
-384.42
-343.64
-303.87
-267.59
-237.18
-214.14
-198.08
-186.19
-173.78
-155.87
-129.05
-92.89
-50.36
-7.19
29.64
53.78
61.33
52.12
30.09
2.55
-21.68
-34.83
-32.58
-15.44
11.69
41.47
66.83
83.30
89.90
88.55
82.53
74.94
67.93
62.65
59.42
57.90
56.95
54.73
49.10
38.48
22.92
4.45
-13.20
-25.93
-30.88
-27.79
-19.22
-9.77
-4.27
-5.75
-14.08
-25.85
-35.57
-37.96
-30.08
-12.41
11.44
36.32
57.47
71.84
78.53
78.27
72.69
63.67
53.26
43.50
36.39
33.35
34.70
39.22
44.42
47.31
45.48
38.08
26.15
12.40
0.36
-6.68
-6.59
1.07
15.04
32.84
51.57
68.58
82.10
91.46
96.95
99.43
99.78
98.59
96.03
92.03
86.51
79.69
72.13
64.52
57.47
51.24
45.76
40.78
36.14
31.94
28.39
25.72
23.85
22.44
20.87
18.57
15.25
10.95
5.92
0.42
-5.34
-11.22
-16.91
-21.89
-25.44
-26.81
-25.60
-21.85
-16.13
-9.33
-2.43
3.80
8.83
12.34
14.18
14.25
12.60
9.56
5.76
2.10
-0.47
-1.21
0.14
3.36
7.79
12.61
17.18
21.00
23.81
25.40
25.53
23.93
20.52
15.46
9.28
2.89
-2.84
-7.20
-9.94
-11.27
-11.74
-12.01
-12.62
-13.91
-15.89
-18.42
-21.23
-24.08
-26.77
-29.04
-30.49
-30.50
-28.33
-23.38
-15.49
-5.12
6.66
18.40
28.82
37.02
42.70
46.04
47.36
46.96
45.05
41.83
37.68
33.19
29.16
26.23
24.80
24.86
26.16
28.30
30.94
33.71
36.16
37.74
37.82
35.96
32.14
26.75
20.54
14.29
8.55
3.60
-0.62
-4.33
-7.79
-11.26
-14.91
-18.87
-23.16
-27.66
-32.15
-36.39
-40.16
-43.33
-45.82
-47.52
-48.23
-47.65
-45.44
-41.40
-35.58
-28.32
-20.16
-11.72
-3.57
3.95
10.73
16.81
22.26
27.11
31.29
34.67
37.16
38.72
39.53
39.87
40.04
40.18
40.21
39.88
38.93
37.28
35.12
32.80
30.59
28.42
25.95
22.68
18.21
12.31
4.80
-4.63
-16.19
-29.45
-42.62
-52.40
-54.76
-46.55
-27.03
1.48
34.32
66.15
92.58
110.77
119.08
116.35
101.58
74.68
37.53
-5.55
-48.38
-84.88
-111.00
-125.96
-131.97
-132.84
-132.39
-133.09
-135.80
-139.89
-143.71
-145.18
-142.11
-132.48
-115.01
-89.36
-56.45
-18.35
22.18
62.30
99.64
132.68
160.62
182.93
199.07
208.25
209.68
203.09
189.09
169.28
145.91
121.23
96.75
73.09
50.01
26.87
3.18
-21.15
-45.72
-69.91
-93.15
-115.09
-135.55
-154.36
-171.20
-185.38
-195.72
-200.50
-197.57
-184.57
-159.55
-121.72
-72.43
-15.70
41.98
92.77
129.69
147.92
146.67
128.91
100.04
65.82
30.64
-3.41
-36.37
-69.23
-103.55
-140.01
-178.25
-216.63
-252.05
-280.01
-295.28
-293.62
-273.11
-237.12
-192.43
-147.55
-109.47
-81.05
-60.39
-42.49
-22.33
4.30
35.99
71.53
110.22
152.40
198.30
246.11
290.96
326.21
349.02
354.19
343.89
322.73
294.89
261.63
221.39
172.48
116.17
62.61
14.95
-20.66
-42.94
-55.75
-64.93
-74.08
-81.89
-83.10
-65.97
-34.12
10.06
60.95
113.15
164.51
216.31
270.81
290.55
315.84
331.62
329.45
304.54
258.10
197.24
132.38
73.74
28.17
3.78
-7.21
-8.33
-2.61
8.31
23.71
41.99
59.38
69.75
70.92
53.67
18.30
-29.07
-77.76
-115.60
-132.86
-125.70
-97.67
-55.84
-16.37
8.58
11.75
-7.19
-42.08
-82.95
-119.90
-146.22
-158.32
-159.03
-151.23
-137.38
-118.68
-95.76
-69.69
-42.62
-17.21
5.20
23.98
40.58
56.61
72.11
84.55
89.75
84.05
66.65
40.63
11.92
-12.95
-29.45
-36.47
-36.01
-31.79
-27.60
-26.16
-28.66
-34.64
-42.12
-48.02
-49.08
-43.08
-29.82
-11.19
9.76
30.52
50.23
69.77
90.63
113.34
136.50
157.19
172.43
180.61
182.09
178.30
170.18
157.04
136.68
106.74
66.63
18.81
-31.42
-77.52
-113.65
-136.62
-146.53
-146.35
-140.80
-135.09
-133.95
-140.89
-157.32
-181.78
-209.89
-234.95
-249.96
-250.10
-234.94
-209.08
-181.18
-161.26
-157.37
-172.83
-205.01
-246.23
-286.34
-315.79
-327.90
-319.82
-291.77
-245.78
-184.47
-110.99
-29.77
52.83
129.45
193.83
243.32
279.91
308.89
335.92
363.71
390.59
411.53
420.92
415.08
393.64
358.98
314.58
263.35
207.16
147.19
84.77
21.94
-38.61
-93.92
-141.09
-177.90
-203.03
-216.29
-218.70
-212.45
-200.89
-188.40
-180.27
-182.06
-198.15
-229.73
-273.36
-321.02
-362.13
-387.02
-390.15
-371.82
-337.35
-294.57
-251.08
-212.25
-180.82
-157.31
-141.00
-130.29
-122.88
-115.87
-106.24
-91.90
-72.54
-49.91
-27.25
-8.09
5.58
14.38
21.75
32.67
51.63
80.51
117.75
158.99
198.93
233.60
261.60
284.15
303.82
322.99
342.67
362.04
378.85
390.47
394.82
390.66
377.79
356.72
328.29
293.76
254.83
213.88
173.88
137.63
106.76
80.88
57.59
33.48
5.82
-26.11
-60.58
-94.06
-122.67
-143.59
-155.84
-160.30
-159.02
-154.54
-149.76
-147.96
-152.87
-167.79
-194.22
-230.39
-270.81
-307.25
-331.11
-336.18
-320.63
-287.35
-242.79
-194.71
-149.96
-112.91
-85.10
-65.72
-52.64
-43.38
-35.98
-29.10
-22.00
-14.06
-4.62
7.09
21.56
38.68
57.81
77.78
97.26
114.73
128.48
136.63
137.58
130.82
117.73
101.84
88.04
81.25
84.88
99.88
124.59
155.43
187.99
217.91
241.45
255.70
258.77
250.00
230.01
200.55
163.95
122.45
77.63
30.40
-18.66
-68.82
-119.00
-168.09
-215.32
-260.55
-303.83
-344.94
-382.77
-415.37
-440.42
-455.75
-459.75
-451.41
-430.49
-397.67
-354.96
-305.78
-254.50
-205.47
-161.76
-124.57
-93.32
-66.56
-42.77
-20.88
-0.11
20.58
42.72
68.35
99.72
138.97
187.56
245.29
309.10
372.50
426.30
460.86
469.35
450.29
408.19
351.78
290.84
233.12
182.89
141.38
108.32
83.15
65.44
54.28
47.74
43.07
37.59
29.90
20.37
10.83
3.66
0.56
1.79
6.18
11.74
16.52
19.39
20.29
20.06
19.96
20.90
23.18
26.32
29.44
31.69
32.63
32.31
31.20
29.93
28.97
28.51
28.42
28.31
27.43
24.87
19.76
11.80
1.50
-9.70
-19.96
-27.79
-32.87
-36.35
-40.25
-46.62
-56.69
-70.55
-87.61
-107.39
-129.68
-153.80
-177.90
-198.55
-211.24
-212.05
-199.20
-174.50
-143.23
-112.35
-87.79
-71.96
-63.00
-56.12
-46.23
-30.23
-7.88
19.04
48.45
78.99
109.66
138.63
162.45
176.89
179.45
171.69
159.89
152.36
154.88
166.99
181.74
188.94
180.41
154.23
115.55
73.85
38.43
14.23
0.75
-6.47
-12.79
-21.65
-33.50
-46.41
-57.52
-64.27
-64.97
-58.59
-44.63
-23.45
3.38
32.85
61.03
84.04
99.43
107.05
109.12
109.51
112.20
119.93
133.13
149.84
166.19
177.70
180.62
173.02
155.19
129.44
99.38
68.82
41.01
17.93
0.24
-12.63
-21.91
-29.11
-35.63
-42.52
-50.41
-59.56
-70.05
-81.92
-95.17
-109.63
-124.63
-139.08
-151.69
-161.53
-168.48
-173.44
-177.85
-182.98
-189.40
-196.72
-204.05
-210.44
-215.23
-217.99
-218.18
-215.02
-207.68
-195.82
-180.06
-161.96
-143.49
-126.29
-111.18
-98.16
-86.87
-77.06
-68.84
-62.48
-58.06
-55.19
-53.23
-51.55
-49.94
-48.75
-48.69
-50.56
-54.73
-60.98
-68.33
-75.17
-79.59
-79.80
-74.73
-64.51
-50.53
-35.05
-20.45
-8.47
0.33
6.36
10.59
13.80
16.26
17.69
17.63
15.86
12.62
8.64
4.67
1.29
-1.34
-3.32
-4.83
-5.96
-6.71
-7.06
-7.16
-7.31
-7.89
-9.25
-11.54
-14.67
-18.43
-22.41
-26.07
-28.87
-30.36
-30.33
-28.94
-26.79
-24.62
-23.21
-23.15
-24.71
-27.85
-32.19
-36.96
-41.07
-43.32
-42.61
-38.34
-30.59
-20.16
-8.34
3.53
14.40
23.68
31.17
36.82
40.55
42.22
41.70
39.11
34.97
30.10
25.34
21.33
18.23
15.90
14.12
12.77
11.98
11.93
12.71
14.12
15.69
16.76
16.74
15.27
12.30
8.14
3.32
-1.40
-5.31
-7.93
-9.23
-9.69
-10.20
-11.66
-14.61
-19.02
-24.16
-28.89
-31.96
-32.31
-29.36
-23.07
-13.92
-2.93
8.60
19.24
27.82
33.73
36.98
38.14
37.96
37.11
35.99
34.77
33.51
32.33
31.37
30.74
30.46
30.37
30.29
29.98
29.33
28.34
27.08
25.61
23.96
21.99
19.50
16.32
12.45
8.15
3.87
0.04
-3.06
-5.41
-7.33
-9.22
-11.47
-14.32
-17.85
-21.98
-26.51
-31.04
-34.86
-37.07
-36.78
-33.37
-26.77
-17.59
-6.85
4.24
14.66
23.80
31.44
37.53
42.06
44.86
45.78
44.83
42.36
38.98
35.46
32.40
30.03
28.16
26.40
24.48
22.50
20.84
20.00
20.23
21.22
22.28
22.58
21.49
18.94
15.37
11.39
7.58
4.26
1.41
-1.12
-3.48
-5.81
-8.22
-10.85
-13.85
-17.33
-21.18
-25.20
-28.96
-31.95
-33.61
-33.36
-30.80
-25.81
-18.67
-10.03
-0.80
8.19
16.32
23.31
29.19
34.06
37.96
40.84
42.50
42.74
41.52
39.05
35.77
32.33
29.35
27.28
26.29
26.25
26.91
27.97
29.22
30.45
31.50
32.12
32.06
31.11
29.26
26.65
23.60
20.47
17.54
15.02
13.00
11.57
10.83
10.88
11.72
13.05
14.41
15.32
15.66
15.82
16.85
20.04
26.49
36.49
49.26
63.05
75.72
85.22
90.23
90.42
86.42
79.56
71.39
63.15
55.35
47.60
38.83
27.65
13.01
-5.42
-27.24
-51.60
-77.66
-104.82
-132.64
-160.60
-187.80
-213.16
-235.63
-254.42
-269.18
-279.75
-285.93
-287.43
-284.09
-276.24
-265.02
-252.18
-239.41
-227.38
-215.36
-201.39
-183.61
-161.87
-138.77
-119.46
-109.62
-112.68
-127.49
-147.92
-164.89
-169.78
-157.78
-129.29
-89.04
-43.44
2.25
45.49
86.46
126.82
168.13
210.96
254.65
297.64
338.28
375.05
406.75
432.60
452.14
465.35
472.99
476.82
479.36
482.87
487.64
490.68
485.80
465.59
424.67
362.78
285.81
204.29
129.88
71.42
32.53
11.47
2.87
0.40
-1.38
-6.28
-16.72
-33.98
-57.99
-86.88
-116.97
-143.40
-161.11
-166.26
-157.36
-135.70
-105.26
-71.93
-42.26
-21.96
-14.54
-20.35
-36.49
-58.17
-80.86
-102.64
-124.98
-151.16
-182.98
-217.65
-247.02
-259.93
-246.68
-203.23
-133.42
-48.11
38.37
112.46
164.63
190.74
191.73
172.06
138.00
96.06
51.66
8.02
-34.14
-75.90
-118.21
-159.91
-196.81
-222.43
-230.25
-216.51
-181.59
-129.72
-67.22
-0.37
65.86
127.78
182.38
226.96
259.47
279.16
286.72
283.61
271.00
249.52
219.89
184.32
147.11
113.77
89.21
75.96
73.73
80.64
94.94
115.76
142.39
172.70
202.05
224.08
232.94
226.13
205.93
178.59
151.62
130.52
116.70
107.34
97.33
81.92
58.97
29.74
-2.08
-32.39
-58.61
-80.73
-101.04
-122.93
-149.59
-182.87
-223.07
-268.53
-315.48
-357.99
-388.85
-401.81
-394.06
-368.21
-331.91
-295.35
-267.28
-251.59
-246.49
-246.11
-243.92
-236.01
-222.87
-208.91
-200.27
-201.89
-215.42
-238.48
-265.57
-290.02
-306.25
-311.23
-304.67
-288.12
-263.61
-232.86
-197.39
-159.23
-121.45
-87.88
-61.96
-45.18
-36.29
-31.43
-25.67
-15.01
1.86
22.69
42.17
54.24
54.29
41.30
18.25
-9.00
-33.78
-50.88
-57.89
-55.40
-45.98
-32.77
-18.19
-3.28
12.10
28.54
46.13
64.01
80.47
93.75
102.89
108.21
111.22
113.73
116.76
120.01
122.14
121.75
118.41
112.94
106.89
101.58
97.38
93.83
90.35
86.93
84.19
82.72
82.20
81.06
77.00
68.14
54.06
36.09
16.80
-1.04
-15.11
-23.71
-25.49
-19.26
-4.16
19.85
51.59
88.66
127.79
165.43
197.97
222.18
235.59
237.24
228.35
212.52
194.90
180.59
172.84
171.94
175.33
178.87
178.55
172.02
159.19
141.96
123.20
105.69
91.40
81.46
76.66
78.20
87.85
107.37
137.13
175.05
216.33
254.60
283.96
300.83
304.67
297.39
281.94
260.93
236.13
208.75
179.93
150.84
122.33
94.60
67.24
40.16
14.41
-7.11
-20.29
-21.37
-8.95
14.68
43.48
69.38
84.85
85.41
71.11
46.14
16.76
-11.14
-34.06
-51.73
-66.21
-80.18
-95.39
-111.93
-128.42
-142.39
-150.90
-151.26
-141.97
-123.55
-99.35
-75.43
-58.93
-55.52
-66.53
-87.46
-108.80
-119.41
-110.90
-81.48
-37.13
10.39
48.01
66.06
61.08
35.91
-3.03
-49.31
-99.24
-152.08
-207.32
-261.86
-308.58
-338.07
-342.78
-321.34
-280.68
-233.95
-195.54
-175.47
-175.99
-191.82
-213.63
-232.41
-242.64
-242.75
-233.65
-216.70
-192.61
-161.78
-125.41
-86.36
-49.00
-18.30
1.91
10.27
8.45
0.57
-8.21
-13.48
-12.92
-6.63
3.31
14.06
23.16
29.34
32.54
33.64
33.75
33.82
34.31
35.20
36.21
36.99
37.44
37.67
37.94
38.46
39.16
39.63
39.15
37.07
32.98
27.08
20.03
12.78
6.17
0.75
-3.41
-6.71
-9.90
-14.00
-20.20
-29.52
-42.39
-58.06
-74.42
-88.37
-96.65
-96.89
-88.42
-72.26
-50.65
-26.20
-1.17
22.66
43.86
61.03
72.86
78.43
77.95
72.99
66.45
61.98
62.88
71.19
87.10
108.69
132.22
152.97
166.32
169.02
160.23
141.72
117.27
91.40
67.75
48.02
31.91
17.71
3.51
-11.74
-27.98
-44.39
-59.92
-73.84
-85.82
-95.81
-103.83
-109.98
-114.47
-117.74
-120.39
-123.06
-126.14
-129.62
-132.98
-135.42
-136.18
-134.71
-130.93
-125.07
-117.49
-108.52
-98.33
-87.01
-74.80
-62.17
-49.62
-37.55
-25.91
-14.34
-2.50
9.51
21.10
31.25
39.12
44.52
47.95
50.30
52.23
53.69
53.96
52.16
48.00
42.05
35.87
31.28
29.64
31.09
34.38
37.34
37.89
35.02
29.34
22.82
17.71
15.33
15.36
15.88
14.38
9.00
-0.48
-12.56
-24.77
-34.96
-42.17
-46.79
-50.07
-53.04
-55.52
-55.94
-51.79
-40.86
-22.35
2.48
30.60
58.08
81.25
97.43
105.20
104.29
95.45
80.61
62.78
45.92
34.17
30.68
36.66
50.96
70.40
90.85
108.49
120.52
125.60
123.59
115.16
101.45
83.75
63.57
42.58
22.57
5.17
-8.61
-18.75
-26.35
-33.19
-40.99
-50.42
-60.75
-69.92
-75.49
-75.55
-69.57
-58.35
-43.63
-27.37
-11.27
3.32
15.29
23.64
27.79
27.82
24.81
20.60
17.11
15.60
16.29
18.46
21.08
23.44
25.54
27.83
30.77
34.20
37.25
38.61
37.05
32.09
24.05
13.92
2.91
-7.81
-17.43
-25.42
-31.47
-35.52
-37.82
-38.88
-39.43
-40.24
-41.77
-44.04
-46.46
-48.16
-48.22
-46.09
-41.64
-35.24
-27.49
-19.01
-10.43
-2.28
4.85
10.41
14.09
15.98
16.66
17.10
18.22
20.56
24.05
28.10
31.81
34.31
35.10
34.17
32.29
30.79
31.03
33.72
38.24
42.63
44.29
41.17
32.78
20.54
7.11
-4.90
-13.95
-20.11
-24.35
-27.64
-30.00
-30.35
-26.96
-18.29
-3.68
16.21
39.21
61.78
79.24
86.48
79.11
55.01
15.75
-33.08
-82.75
-123.79
-148.66
-153.91
-140.67
-113.66
-79.19
-43.35
-10.99
14.50
30.83
36.86
32.79
20.53
3.88
-12.11
-22.29
-22.88
-12.52
7.32
32.76
58.52
79.17
90.47
90.29
79.05
59.44
35.62
11.94
-8.21
-23.10
-32.65
-37.84
-39.90
-39.68
-37.58
-33.70
-28.36
-22.33
-16.78
-12.82
-11.04
-11.24
-12.41
-13.14
-12.17
-8.97
-3.92
1.82
6.76
9.69
10.17
8.65
6.27
4.43
4.28
6.40
10.69
16.41
22.34
27.13
29.55
28.67
24.03
15.60
3.85
-10.35
-25.81
-41.10
-54.81
-65.76
-73.27
-77.20
-77.97
-76.35
-73.20
-69.28
-65.06
-60.67
-55.85
-50.18
-43.24
-34.96
-25.74
-16.45
-7.94
-0.59
6.05
13.14
21.83
32.52
44.34
55.54
64.37
70.16
73.76
76.89
81.09
86.60
92.13
95.51
94.96
90.04
81.92
72.72
64.40
57.86
52.65
47.27
39.89
29.21
14.99
-1.70
-18.72
-33.60
-44.17
-49.25
-48.87
-43.98
-36.18
-27.28
-19.06
-13.14
-10.77
-12.52
-18.16
-26.56
-35.89
-44.24
-50.16
-53.00
-52.94
-50.70
-47.04
-42.58
-37.57
-31.95
-25.47
-17.93
-9.24
0.38
10.30
19.65
27.54
33.34
37.01
39.08
40.44
42.08
44.58
48.00
51.85
55.32
57.49
57.58
55.12
49.97
42.53
33.50
23.80
14.15
4.83
-4.36
-13.82
-23.54
-32.85
-40.21
-43.73
-41.79
-33.76
-20.36
-3.62
13.59
28.33
38.20
41.79
38.70
29.44
15.28
-1.84
-19.25
-33.72
-41.92
-41.35
-31.27
-13.39
8.34
28.73
42.83
47.43
41.69
27.16
6.98
-14.94
-34.71
-48.91
-55.05
-52.02
-40.32
-22.28
-1.59
17.58
31.57
38.28
37.63
31.38
22.59
14.77
11.06
13.61
23.17
38.96
58.76
79.32
97.10
108.62
110.83
101.38
79.01
44.22
-0.12
-48.84
-95.44
-133.78
-160.03
-173.58
-176.71
-173.00
-165.65
-156.25
-144.93
-131.39
-115.73
-98.97
-82.34
-66.51
-50.92
-34.19
-14.88
7.43
31.56
54.85
74.01
86.21
90.06
85.99
75.97
62.71
48.69
35.53
23.74
13.08
3.23
-5.66
-12.86
-17.30
-18.19
-15.46
-9.99
-3.19
3.45
8.84
12.57
14.69
15.54
15.39
14.42
12.64
10.05
6.61
2.29
-2.89
-8.93
-15.63
-22.72
-29.76
-36.28
-41.85
-46.23
-49.38
-51.59
-53.37
-55.38
-58.23
-62.21
-67.15
-72.44
-77.27
-81.04
-83.60
-85.38
-87.20
-89.88
-93.85
-98.91
-104.04
-107.46
-106.76
-99.42
-83.27
-57.20
-21.62
21.48
68.98
117.41
163.84
206.33
243.93
276.18
302.48
321.88
333.35
336.23
330.82
318.39
300.65
279.09
254.38
226.30
194.17
157.67
117.33
74.65
31.64
-9.80
-48.37
-83.49
-115.07
-143.04
-167.04
-186.24
-199.46
-205.50
-203.69
-194.41
-179.23
-160.75
-141.89
-125.15
-111.88
-101.97
-94.05
-86.15
-76.34
-63.59
-48.02
-30.94
-14.57
-1.52
5.82
5.89
-1.43
-14.76
-31.44
-48.30
-62.34
-71.34
-74.01
-69.75
-58.52
-40.83
-17.96
7.95
34.09
57.71
77.02
91.76
102.98
112.24
120.55
127.77
132.80
134.30
131.49
124.60
114.66
102.93
90.47
77.81
65.17
52.75
40.89
30.06
20.76
13.23
7.28
2.40
-2.07
-6.59
-11.35
-16.25
-21.17
-26.08
-31.12
-36.44
-41.93
-47.16
-51.42
-54.11
-54.97
-54.03
-51.50
-47.39
-41.45
-33.49
-23.73
-13.16
-3.39
3.65
6.52
4.69
-1.37
-10.22
-20.00
-28.78
-35.02
-37.75
-36.87
-33.10
-27.73
-22.36
-18.28
-16.21
-16.11
-17.40
-19.17
-20.72
-21.69
-22.10
-22.20
-22.01
-21.28
-19.38
-15.64
-9.68
-1.70
7.51
16.91
25.57
33.00
39.09
44.00
47.86
50.61
52.15
52.33
51.16
48.81
45.52
41.57
37.14
32.44
27.58
22.64
17.71
12.95
8.65
5.13
2.62
1.02
-0.05
-1.18
-2.88
-5.35
-8.47
-11.84
-15.14
-18.21
-21.07
-23.81
-26.46
-29.00
-31.42
-33.87
-36.47
-39.26
-41.99
-44.03
-44.56
-42.74
-38.07
-30.48
-20.44
-8.83
3.17
14.32
23.51
30.03
33.66
34.72
33.92
32.08
29.88
27.67
25.54
23.43
21.24
19.04
16.98
15.33
14.48
14.82
16.69
20.19
25.09
30.75
36.31
40.86
43.68
44.32
42.61
38.67
32.87
25.92
18.76
12.44
7.70
4.71
2.92
1.35
-0.96
-4.54
-9.26
-14.42
-19.03
-22.19
-23.31
-22.34
-19.69
-16.05
-12.19
-8.64
-5.64
-3.13
-1.05
0.64
1.74
1.87
0.78
-1.62
-5.18
-9.70
-15.09
-21.34
-28.51
-36.51
-45.04
-53.55
-61.28
-67.28
-70.62
-70.53
-66.64
-59.18
-49.11
-37.93
-27.37
-18.85
-13.11
-10.09
-9.20
-9.62
-10.68
-11.98
-13.45
-15.18
-17.29
-19.79
-22.37
-24.53
-25.60
-25.08
-22.85
-19.25
-14.99
-10.75
-6.91
-3.33
0.48
5.07
10.68
17.12
23.79
29.91
34.74
37.72
38.54
37.17
33.89
29.13
23.41
17.31
11.34
5.95
1.49
-1.77
-3.79
-4.75
-5.02
-5.01
-4.97
-4.87
-4.43
-3.34
-1.43
1.18
4.03
6.50
7.91
7.78
5.84
2.10
-3.12
-9.26
-15.49
-20.77
-24.03
-24.31
-21.06
-14.39
-5.09
5.51
15.91
24.92
31.92
36.92
40.29
42.44
43.55
43.58
42.51
40.65
38.71
37.66
38.22
40.44
43.60
46.41
47.59
46.37
42.79
37.57
31.74
26.15
21.20
16.93
13.18
9.90
7.15
5.00
3.33
1.65
-0.79
-4.72
-10.50
-17.94
-26.34
-34.78
-42.56
-49.40
-55.49
-61.13
-66.56
-71.67
-76.14
-79.52
-81.54
-82.26
-82.00
-81.25
-80.50
-80.04
-79.93
-79.99
-79.64
-77.92
-73.48
-64.94
-51.24
-32.19
-8.72
17.18
42.93
66.12
85.16
99.56
109.81
116.91
121.78
124.96
126.58
126.41
124.05
118.86
109.99
96.52
77.84
54.16
26.92
-1.46
-27.96
-49.77
-65.01
-72.98
-74.16
-69.90
-62.06
-52.59
-43.43
-36.08
-31.44
-29.68
-30.31
-32.38
-34.89
-37.01
-38.12
-37.88
-36.09
-32.62
-27.43
-20.51
-12.07
-2.50
7.38
16.45
23.32
26.78
26.25
22.09
15.66
8.91
3.83
1.81
3.35
7.95
14.48
21.54
27.85
32.58
35.43
36.72
37.14
37.52
38.46
40.12
42.09
43.63
43.96
42.56
39.43
35.11
30.50
26.58
24.11
23.34
24.01
25.45
26.84
27.51
27.08
25.58
23.37
21.00
19.03
17.93
18.00
19.44
22.35
26.65
32.14
38.41
44.84
50.71
55.26
57.78
57.72
54.76
48.70
39.61
27.71
13.36
-2.91
-20.53
-38.80
-56.90
-73.87
-88.73
-100.71
-109.61
-115.89
-120.64
-125.12
-130.28
-136.37
-142.69
-147.80
-149.79
-146.83
-137.74
-122.43
-102.18
-79.38
-56.97
-37.56
-22.53
-11.54
-2.75
6.30
17.63
31.84
48.06
64.39
78.95
90.68
99.58
106.40
111.88
116.15
118.45
117.49
111.93
101.14
85.46
66.21
45.35
24.84
6.27
-9.50
-22.17
-31.76
-38.29
-41.72
-42.17
-40.11
-36.67
-33.33
-31.46
-31.79
-34.06
-37.10
-39.34
-39.43
-36.71
-31.39
-24.43
-16.99
-10.08
-4.15
0.84
5.18
8.99
12.08
13.93
14.02
12.20
8.79
4.47
0.04
-3.97
-7.44
-10.56
-13.74
-17.33
-21.39
-25.66
-29.44
-31.83
-31.94
-29.24
-23.83
-16.52
-8.58
-1.34
4.15
7.40
8.44
7.63
5.44
2.25
-1.70
-6.11
-10.64
-14.84
-18.21
-20.39
-21.23
-20.82
-19.42
-17.36
-14.83
-11.94
-8.82
-5.58
-2.34
0.92
4.50
8.99
15.06
23.18
33.32
44.82
56.56
67.14
75.20
79.69
79.92
75.75
67.62
56.71
44.80
34.02
26.23
22.40
22.22
24.06
25.47
24.00
18.02
7.17
-7.59
-24.48
-41.39
-56.39
-67.93
-74.92
-76.72
-73.24
-65.09
-53.50
-40.10
-26.52
-13.90
-2.72
7.22
16.42
25.31
33.85
41.40
46.88
49.04
46.95
40.31
29.78
16.80
3.25
-9.15
-19.21
-26.54
-31.44
-34.59
-36.61
-37.85
-38.31
-37.84
-36.27
-33.66
-30.26
-26.48
-22.73
-19.29
-16.13
-12.95
-9.34
-4.89
0.54
6.66
12.83
18.12
21.66
22.77
21.16
16.92
10.64
3.04
-5.00
-12.73
-19.66
-25.70
-31.02
-35.98
-40.84
-45.56
-49.84
-53.18
-54.94
-54.56
-51.51
-45.40
-36.04
-23.69
-9.19
6.02
20.41
32.83
42.93
51.13
58.17
64.43
69.51
72.47
72.33
68.78
62.49
54.85
47.42
41.29
36.83
33.77
31.52
29.46
27.18
24.58
21.94
19.87
19.21
20.66
24.47
30.23
36.87
43.02
47.43
49.38
48.80
46.16
42.24
37.85
33.58
29.65
25.81
21.45
15.64
7.41
-3.95
-18.50
-35.42
-52.91
-68.53
-79.80
-84.94
-83.47
-76.47
-66.27
-55.76
-47.48
-42.88
-41.95
-43.43
-45.34
-45.76
-43.34
-37.74
-29.56
-20.02
-10.46
-1.93
4.93
9.78
12.31
12.21
9.32
4.04
-2.48
-8.50
-12.25
-12.76
-10.17
-5.64
-0.56
4.18
8.64
13.43
19.10
25.36
30.99
34.43
34.60
31.40
25.80
19.14
12.42
5.86
-0.97
-8.69
-17.38
-26.45
-34.68
-40.77
-43.84
-43.62
-40.47
-35.07
-28.20
-20.59
-13.01
-6.16
-0.70
2.96
4.90
5.48
5.34
4.95
4.48
3.79
2.69
1.22
-0.34
-1.54
-2.14
-2.24
-2.33
-3.03
-4.85
-7.98
-12.20
-17.01
-21.49
-24.46
-24.67
-21.16
-13.68
-2.83
9.97
23.06
34.96
44.70
51.84
56.27
58.01
57.16
53.97
48.73
41.86
33.66
24.44
14.63
4.98
-3.45
-9.50
-12.37
-11.85
-8.43
-2.97
3.60
10.54
17.32
23.62
29.18
33.84
37.61
40.62
43.04
44.86
45.75
45.10
42.22
36.69
28.59
18.61
7.87
-2.39
-11.22
-18.21
-23.50
-27.52
-30.73
-33.31
-35.11
-35.88
-35.47
-34.03
-31.97
-29.77
-27.62
-25.45
-22.92
-19.78
-16.07
-12.35
-9.37
-7.88
-8.33
-10.68
-14.45
-18.80
-22.62
-24.69
-23.78
-18.87
-9.55
3.70
19.28
34.83
47.68
55.82
58.35
55.75
49.54
41.52
33.19
25.42
18.52
12.60
7.93
4.97
4.13
5.54
8.77
12.89
16.71
19.11
19.36
17.27
13.19
7.79
1.89
-3.78
-8.74
-12.73
-15.69
-17.65
-18.67
-18.85
-18.41
-17.67
-17.11
-17.13
-17.95
-19.54
-21.54
-23.35
-24.22
-23.47
-20.66
-15.89
-9.86
-3.75
1.12
3.81
4.13
2.65
0.33
-2.00
-4.04
-6.05
-8.46
-11.51
-14.99
-18.42
-21.39
-23.90
-26.27
-28.81
-31.42
-33.30
-33.27
-30.32
-24.16
-15.46
-5.60
3.96
12.19
18.69
23.59
27.09
29.14
29.46
27.90
24.78
21.07
18.10
17.10
18.64
22.45
27.59
32.89
37.46
40.88
43.12
44.36
44.80
44.60
43.87
42.83
41.71
40.70
39.84
39.03
38.01
36.50
34.33
31.40
27.74
23.51
18.90
14.14
9.39
4.78
0.32
-3.91
-7.72
-10.75
-12.63
-13.14
-12.41
-11.01
-9.69
-9.15
-9.77
-11.55
-14.16
-17.19
-20.28
-23.16
-25.66
-27.56
-28.70
-29.02
-28.76
-28.35
-28.30
-28.95
-30.17
-31.48
-32.04
-31.04
-27.93
-22.71
-15.90
-8.43
-1.36
4.42
8.43
10.70
11.57
11.45
10.53
8.71
5.75
1.55
-3.58
-8.91
-13.48
-16.49
-17.59
-17.04
-15.53
-13.85
-12.61
-11.95
-11.64
-11.20
-10.14
-8.25
-5.62
-2.74
-0.26
1.22
1.40
0.36
-1.45
-3.49
-5.28
-6.67
-7.90
-9.55
-12.35
-16.76
-22.77
-29.64
-36.10
-40.80
-42.80
-42.00
-39.22
-35.88
-33.29
-32.14
-32.02
-31.70
-29.63
-24.70
-16.82
-7.07
2.57
9.90
13.08
11.26
4.63
-5.60
-17.52
-29.03
-38.20
-43.75
-45.29
-43.40
-39.28
-34.41
-30.04
-26.94
-25.34
-25.14
-25.98
-27.19
-27.75
-26.31
-21.57
-12.73
-0.04
15.18
30.89
44.98
55.88
62.84
65.94
65.68
62.84
58.34
53.24
48.78
46.04
45.67
47.56
50.77
53.84
55.21
53.78
49.12
41.58
31.94
21.21
10.25
-0.26
-9.73
-17.66
-23.55
-27.05
-28.13
-27.19
-25.10
-23.00
-22.03
-22.95
-26.02
-30.81
-36.54
-42.35
-47.65
-52.41
-57.01
-62.04
-67.67
-73.34
-77.64
-78.82
-75.36
-66.64
-53.19
-36.46
-18.42
-0.87
14.79
27.66
37.18
43.06
45.37
44.61
41.82
38.28
35.24
33.55
33.42
34.48
36.04
37.46
38.26
38.30
37.68
36.67
35.47
34.11
32.34
29.73
25.88
20.69
14.50
8.02
2.07
-2.74
-6.15
-8.20
-9.08
-8.94
-7.85
-5.86
-3.27
-0.61
1.45
2.38
2.07
0.87
-0.58
-1.63
-1.95
-1.68
-1.27
-1.26
-1.98
-3.46
-5.46
-7.66
-9.85
-11.94
-13.87
-15.60
-16.94
-17.77
-18.05
-17.99
-17.95
-18.39
-19.69
-21.90
-24.82
-27.88
-30.37
-31.53
-30.70
-27.54
-22.15
-15.15
-7.54
-0.51
4.91
8.22
9.53
9.57
9.38
9.96
11.94
15.43
20.02
24.92
29.20
31.95
32.56
30.69
26.53
20.71
14.19
8.07
3.24
0.25
-0.77
0.05
2.48
6.23
10.96
16.15
21.15
25.18
27.71
28.59
28.15
27.00
25.75
24.78
24.16
23.83
23.80
24.23
25.30
27.07
29.22
31.08
31.89
31.02
28.27
23.87
18.36
12.33
6.30
0.65
-4.47
-8.98
-13.00
-16.73
-20.47
-24.50
-28.83
-33.11
-36.57
-38.25
-37.36
-33.56
-27.25
-19.39
-11.31
-4.35
0.49
2.77
2.59
0.53
-2.65
-6.21
-9.58
-12.57
-15.26
-17.81
-20.35
-22.79
-24.89
-26.46
-27.46
-27.98
-28.26
-28.36
-28.07
-26.85
-24.14
-19.60
-13.43
-6.42
0.28
5.46
8.23
8.34
6.21
2.78
-0.59
-2.55
-2.14
0.90
6.05
11.98
17.05
19.71
19.07
15.11
8.62
0.87
-6.75
-13.07
-17.30
-19.05
-18.38
-15.75
-12.04
-8.32
-5.63
-4.50
-4.90
-6.20
-7.50
-8.07
-7.50
-5.85
-3.34
-0.11
3.97
9.10
15.42
22.68
30.17
36.84
41.68
43.93
43.44
40.67
36.50
31.87
27.43
23.33
19.27
14.89
10.07
5.23
1.24
-1.02
-1.04
0.92
4.02
7.19
9.63
11.01
11.45
11.32
10.87
10.16
9.08
7.57
5.83
4.30
3.61
4.32
6.69
10.61
15.55
20.75
25.45
29.07
31.29
32.12
31.69
30.23
28.01
25.25
22.21
19.01
15.74
12.28
8.54
4.47
0.18
-4.08
-8.07
-11.68
-15.06
-18.55
-22.45
-26.85
-31.61
-36.47
-41.19
-45.66
-49.81
-53.42
-55.96
-56.58
-54.43
-49.05
-40.71
-30.41
-19.65
-9.86
-2.03
3.53
7.10
9.19
10.24
10.41
9.65
7.83
5.06
1.69
-1.64
-4.22
-5.49
-5.24
-3.61
-1.01
2.07
5.17
7.98
10.29
11.95
12.77
12.65
11.60
9.87
7.86
6.03
4.72
4.02
3.84
3.94
4.08
4.07
3.86
3.44
2.88
2.24
1.57
0.87
0.09
-0.83
-2.06
-3.77
-6.04
-8.89
-12.16
-15.61
-18.93
-21.87
-24.37
-26.55
-28.64
-30.78
-32.98
-34.90
-35.98
-35.58
-33.17
-28.58
-22.01
-14.09
-5.65
2.38
9.11
13.86
16.40
16.84
15.73
13.80
11.75
10.18
9.38
9.09
8.88
8.29
7.21
5.82
4.66
4.33
5.44
8.23
11.87
15.06
16.39
14.94
10.64
4.47
-2.00
-6.65
-8.19
-7.35
-6.04
-6.52
-10.55
-18.61
-29.68
-41.88
-52.44
-59.52
-63.85
-67.45
-72.95
-83.39
-101.36
-128.29
-163.92
-205.05
-240.32
-258.13
-249.59
-213.50
-158.22
-96.99
-41.93
-2.85
22.55
39.96
53.92
68.59
87.25
110.95
137.44
162.70
178.83
179.64
170.73
157.80
142.48
127.69
115.52
106.87
101.61
98.73
97.73
97.81
96.76
93.32
87.95
81.41
74.02
65.08
52.71
35.28
11.61
-19.34
-57.23
-100.64
-148.48
-199.92
-253.39
-305.28
-348.96
-376.15
-380.04
-357.53
-311.15
-249.58
-185.16
-129.91
-91.63
-71.49
-64.46
-62.23
-56.26
-40.63
-13.94
20.47
55.77
83.76
97.53
93.93
74.68
46.04
16.72
-5.44
-15.97
-14.55
-3.73
13.52
35.79
63.83
99.66
145.21
201.24
266.96
339.82
415.38
487.26
547.66
589.10
606.66
599.64
571.73
529.41
479.52
427.10
374.81
323.57
273.52
224.89
178.03
132.83
88.62
44.31
-0.96
-47.29
-94.09
-140.79
-187.64
-235.94
-287.16
-341.34
-395.71
-444.57
-480.68
-497.99
-493.87
-470.06
-431.87
-385.87
-337.83
-291.40
-248.15
-208.21
-170.97
-135.32
-100.02
-64.37
-28.96
3.96
31.01
49.12
57.20
56.73
51.33
45.19
41.43
41.29
44.47
49.99
57.06
65.42
74.98
85.34
95.45
103.82
109.03
110.29
107.70
102.02
94.33
85.37
75.33
63.73
49.90
33.50
14.96
-4.41
-22.72
-37.97
-48.72
-54.34
-55.15
-52.21
-46.89
-40.41
-33.53
-26.47
-19.07
-11.27
-3.25
4.44
11.14
16.32
19.84
21.89
22.90
23.40
23.79
24.51
25.92
28.28
31.54
35.28
38.81
41.40
42.67
42.68
42.03
41.43
41.45
42.35
44.07
46.30
48.59
50.33
50.78
49.18
45.01
38.37
30.10
21.49
13.86
7.91
3.58
0.07
-3.61
-8.10
-13.48
-19.28
-24.79
-29.50
-33.29
-36.34
-39.04
-41.73
-44.56
-47.48
-50.30
-52.86
-55.02
-56.90
-58.77
-60.99
-63.87
-67.52
-71.63
-75.56
-78.34
-79.07
-77.15
-72.61
-66.14
-58.89
-52.26
-47.42
-44.90
-44.41
-44.88
-44.76
-42.54
-37.30
-29.06
-18.88
-8.46
0.48
6.98
11.22
14.44
18.37
24.40
32.88
43.06
53.35
62.15
68.51
72.41
74.53
75.65
76.09
75.67
73.89
70.44
65.58
60.03
54.76
50.43
47.01
43.82
39.82
34.15
26.60
17.82
9.06
1.84
-2.55
-3.45
-1.02
3.72
9.24
13.90
16.60
17.07
15.90
14.25
13.24
13.46
14.75
16.49
17.98
19.04
19.97
21.20
22.81
24.17
24.04
21.21
15.08
6.03
-4.63
-15.18
-23.99
-29.90
-32.38
-31.42
-27.47
-21.44
-14.61
-8.37
-3.90
-1.79
-1.93
-3.71
-6.48
-9.77
-13.32
-16.80
-19.51
-20.35
-18.25
-12.49
-3.20
8.59
21.15
32.12
38.67
37.66
26.23
2.66
-32.67
-76.96
-125.46
-172.55
-213.29
-244.44
-264.56
-273.61
-272.17
-261.03
-241.24
-214.46
-182.97
-149.23
-114.99
-80.47
-44.60
-5.91
35.95
79.16
119.59
152.22
173.04
180.70
177.05
166.05
152.03
138.07
125.40
113.71
102.26
90.64
78.88
67.16
55.30
42.76
28.95
13.79
-2.12
-17.58
-31.32
-42.34
-49.94
-53.59
-52.69
-46.81
-36.00
-21.28
-4.66
11.27
23.99
31.72
33.91
31.25
25.46
18.88
13.88
12.21
14.46
19.78
26.23
31.52
33.83
32.28
27.01
18.62
7.82
-4.83
-18.74
-32.89
-45.74
-55.44
-60.36
-59.55
-52.96
-41.34
-25.91
-8.11
10.59
28.80
45.16
58.35
67.25
71.07
69.64
63.55
54.16
43.36
33.16
25.10
19.92
17.50
17.05
17.60
18.28
18.50
17.96
16.55
14.36
11.65
8.85
6.38
4.56
3.39
2.43
0.97
-1.78
-6.32
-12.60
-19.86
-26.76
-31.69
-33.25
-30.72
-24.29
-14.97
-4.32
6.11
15.20
22.37
27.60
31.22
33.67
35.27
36.20
36.35
35.58
33.82
31.29
28.54
26.36
25.37
25.70
26.76
27.40
26.47
23.26
17.97
11.70
6.05
2.44
1.52
2.96
5.70
8.53
10.69
12.24
13.87
16.30
19.55
22.56
23.46
20.38
12.55
0.99
-11.48
-21.22
-25.29
-22.76
-15.19
-6.11
0.40
1.46
-3.49
-12.62
-22.67
-30.29
-33.50
-32.35
-28.94
-27.10
-31.46
-46.34
-74.09
-113.43
-158.39
-198.90
-223.40
-223.03
-195.49
-146.60
-88.40
-34.36
5.94
30.03
42.08
49.40
57.87
69.15
80.80
88.81
90.58
86.57
79.65
73.04
68.34
64.69
59.70
51.30
39.22
25.41
13.30
6.32
6.39
13.20
24.35
36.31
45.66
50.18
49.41
44.33
36.69
28.07
19.40
10.89
2.43
-5.86
-13.40
-19.13
-21.98
-21.21
-16.81
-9.49
-0.56
8.45
16.21
21.82
25.08
26.32
26.23
25.43
24.23
22.45
19.58
15.16
8.99
1.47
-6.48
-13.72
-19.22
-22.50
-23.82
-24.03
-24.32
-25.76
-29.08
-34.48
-41.70
-50.07
-58.64
-66.27
-71.86
-74.56
-74.02
-70.36
-64.08
-55.75
-45.80
-34.46
-21.92
-8.58
4.90
17.72
29.16
38.71
46.22
51.76
55.46
57.48
57.91
56.85
54.38
50.58
45.60
39.69
33.38
27.38
22.45
19.06
17.19
16.33
15.61
14.30
12.02
8.76
4.83
0.57
-3.86
-8.39
-13.07
-17.89
-22.75
-27.49
-31.95
-35.90
-38.97
-40.63
-40.26
-37.28
-31.50
-23.19
-13.11
-2.38
7.87
16.71
23.53
28.03
30.11
29.78
27.27
22.93
17.33
11.23
5.45
0.73
-2.40
-3.73
-3.47
-2.01
0.12
2.38
4.43
6.12
7.40
8.36
9.04
9.41
9.40
8.92
7.90
6.33
4.33
2.11
-0.04
-1.83
-3.10
-3.93
-4.63
-5.53
-6.88
-8.71
-10.79
-12.78
-14.34
-15.33
-15.88
-16.31
-16.96
-18.09
-19.84
-22.11
-24.56
-26.56
-27.35
-26.17
-22.59
-16.76
-9.47
-2.00
4.33
8.58
10.51
10.67
9.99
9.48
9.72
10.72
12.06
13.16
13.51
12.89
11.44
9.57
7.76
6.33
5.42
4.94
4.74
4.62
4.56
4.69
5.23
6.36
8.01
9.90
11.65
13.02
14.02
14.98
16.40
18.60
21.61
25.11
28.61
31.64
33.88
35.03
34.71
32.40
27.62
20.23
10.63
-0.24
-11.17
-21.01
-28.98
-34.67
-38.00
-39.08
-38.05
-35.06
-30.15
-23.25
-14.15
-2.80
10.42
24.40
37.43
47.61
53.47
54.58
51.59
45.83
38.74
31.21
23.57
15.73
7.66
-0.20
-6.81
-10.73
-10.64
-5.84
3.41
15.79
29.22
41.42
50.40
54.88
54.24
48.50
38.06
23.64
6.32
-12.44
-30.76
-46.67
-58.45
-65.11
-66.53
-63.57
-57.76
-50.83
-44.27
-38.94
-35.00
-32.15
-29.96
-28.12
-26.51
-24.93
-22.91
-19.68
-14.51
-7.21
1.49
10.09
16.87
20.54
20.83
18.44
14.71
10.98
8.22
6.86
6.90
8.08
9.92
11.78
12.96
12.80
11.02
7.78
3.66
-0.54
-4.15
-6.75
-8.34
-9.15
-9.55
-9.92
-10.66
-12.11
-14.43
-17.52
-20.95
-24.10
-26.36
-27.40
-27.35
-26.81
-26.61
-27.49
-29.80
-33.20
-36.78
-39.32
-39.79
-37.70
-33.24
-27.17
-20.41
-13.80
-7.87
-2.75
1.72
6.05
10.95
17.19
25.30
35.23
46.20
56.79
65.49
71.06
73.05
71.72
67.83
62.34
56.10
49.85
44.10
39.29
35.60
33.07
31.44
30.25
28.92
26.82
23.40
18.32
11.55
3.44
-5.31
-13.86
-21.44
-27.54
-32.03
-34.99
-36.54
-36.79
-35.84
-33.88
-31.30
-28.58
-26.18
-24.35
-23.06
-22.03
-20.89
-19.45
-17.64
-15.65
-13.67
-11.90
-10.42
-9.23
-8.35
-7.88
-8.07
-9.15
-11.23
-14.06
-17.07
-19.43
-20.40
-19.64
-17.36
-14.20
-10.93
-8.19
-6.20
-4.81
-3.70
-2.53
-1.20
0.29
1.84
3.48
5.41
8.04
11.82
17.03
23.74
31.55
39.68
47.07
52.58
55.31
54.86
51.49
46.01
39.57
33.23
27.63
22.92
18.91
15.19
11.52
7.75
3.84
-0.25
-4.66
-9.51
-14.85
-20.48
-26.07
-31.22
-35.68
-39.40
-42.52
-45.28
-47.80
-50.08
-52.03
-53.46
-54.17
-53.86
-52.04
-48.17
-41.75
-32.63
-21.25
-8.65
3.70
14.38
22.38
27.32
29.52
29.59
28.26
26.06
23.26
19.97
16.29
12.44
8.75
5.69
3.66
2.85
3.16
4.27
5.67
6.94
7.87
8.41
8.66
8.69
8.43
7.68
6.28
4.18
1.66
-0.78
-2.61
-3.34
-2.74
-0.88
1.84
4.82
7.37
8.94
9.27
8.41
6.72
4.60
2.31
-0.16
-3.04
-6.50
-10.44
-14.41
-17.85
-20.36
-22.03
-23.32
-24.81
-26.80
-28.98
-30.45
-30.02
-26.89
-20.95
-13.05
-4.58
3.02
8.77
12.36
14.04
14.29
13.48
11.76
9.06
5.40
1.10
-3.14
-6.40
-7.85
-7.05
-4.11
0.35
5.33
9.92
13.48
15.84
17.19
17.85
18.09
18.02
17.63
16.84
15.64
14.10
12.41
10.73
9.18
7.88
6.82
5.90
4.99
3.93
2.69
1.36
0.10
-0.93
-1.67
-2.27
-3.03
-4.28
-6.24
-8.91
-12.12
-15.48
-18.50
-20.63
-21.33
-20.26
-17.35
-13.02
-8.07
-3.47
-0.04
1.84
2.29
1.80
1.07
0.59
0.57
0.88
1.21
1.28
0.83
-0.22
-1.85
-3.92
-6.13
-8.10
-9.46
-9.94
-9.41
-8.02
-6.05
-3.84
-1.69
0.19
1.69
2.74
3.36
3.58
3.39
2.86
2.03
0.98
-0.17
-1.17
-1.74
-1.61
-0.70
0.82
2.57
4.07
5.00
5.27
5.08
4.69
4.31
3.93
3.35
2.31
0.49
-2.29
-6.05
-10.63
-15.62
-20.31
-23.84
-25.49
-24.86
-22.17
-18.17
-13.90
-10.32
-7.94
-6.68
-5.97
-5.07
-3.37
-0.66
2.88
6.81
10.61
13.83
16.08
17.03
16.42
14.17
10.54
6.28
2.46
0.11
-0.15
1.55
4.39
7.23
9.05
9.31
8.06
5.86
3.44
1.49
0.50
0.67
2.01
4.37
7.48
10.98
14.48
17.51
19.68
20.70
20.49
19.19
17.08
14.47
11.64
8.73
5.81
3.01
0.44
-1.87
-3.99
-6.17
-8.65
-11.67
-15.27
-19.25
-23.16
-26.40
-28.33
-28.47
-26.66
-23.13
-18.49
-13.56
-9.11
-5.59
-3.08
-1.34
-0.03
1.10
2.13
2.97
3.51
3.69
3.56
3.18
2.67
2.15
1.71
1.47
1.56
2.08
3.05
4.37
5.85
7.22
8.23
8.62
8.26
7.18
5.60
3.91
2.52
1.73
1.57
1.87
2.23
2.27
1.78
0.79
-0.46
-1.65
-2.58
-3.19
-3.62
-4.05
-4.65
-5.49
-6.51
-7.60
-8.63
-9.49
-10.09
-10.42
-10.53
-10.42
-10.16
-9.71
-9.05
-8.07
-6.58
-4.33
-1.20
2.90
7.81
13.18
18.53
23.32
27.12
29.63
30.74
30.47
28.97
26.42
22.95
18.75
13.98
8.86
3.69
-1.20
-5.44
-8.77
-11.05
-12.31
-12.72
-12.48
-11.78
-10.76
-9.62
-8.57
-7.94
-8.00
-8.90
-10.48
-12.37
-14.08
-15.20
-15.56
-15.30
-14.71
-14.12
-13.71
-13.40
-13.01
-12.37
-11.42
-10.27
-9.23
-8.58
-8.56
-9.24
-10.44
-11.86
-13.13
-14.02
-14.45
-14.59
-14.72
-15.16
-16.07
-17.32
-18.55
-19.11
-18.36
-15.88
-11.60
-5.98
0.09
5.49
9.12
10.14
8.19
3.39
-3.65
-11.93
-20.21
-27.24
-32.00
-33.91
-32.91
-29.35
-23.74
-16.47
-7.67
2.66
14.36
26.88
39.20
50.08
58.47
63.83
66.24
66.16
64.08
60.30
54.87
47.76
39.16
29.54
19.64
10.19
1.80
-5.25
-10.87
-15.19
-18.47
-20.94
-22.75
-23.97
-24.60
-24.81
-24.93
-25.39
-26.54
-28.46
-30.95
-33.57
-35.84
-37.19
-37.01
-34.51
-28.88
-19.64
-7.11
7.41
21.76
33.62
41.25
44.06
42.67
38.50
33.26
28.43
24.99
23.31
23.25
24.38
26.06
27.85
29.58
31.42
33.83
37.25
41.79
46.99
51.92
55.45
56.70
55.42
51.97
47.10
41.50
35.55
29.14
22.03
14.10
5.51
-3.36
-12.12
-20.67
-29.10
-37.48
-45.65
-53.02
-58.77
-62.11
-62.64
-60.58
-56.69
-52.04
-47.63
-44.16
-41.76
-40.05
-38.33
-35.86
-32.18
-27.24
-21.44
-15.38
-9.67
-4.69
-0.51
2.98
6.05
8.85
11.48
13.87
15.92
17.48
18.53
19.15
19.51
19.87
20.45
21.44
22.85
24.56
26.29
27.68
28.42
28.23
27.04
24.85
21.77
18.06
14.05
10.13
6.74
4.17
2.50
1.64
1.30
1.10
0.78
0.21
-0.63
-1.74
-3.20
-5.18
-7.74
-10.79
-14.01
-16.91
-19.06
-20.30
-20.77
-20.95
-21.36
-22.37
-23.99
-25.88
-27.46
-28.10
-27.28
-24.70
-20.46
-14.93
-8.80
-2.80
2.36
6.23
8.67
9.88
10.29
10.32
10.35
10.50
10.76
11.10
11.48
11.97
12.63
13.51
14.57
15.68
16.57
17.03
16.92
16.25
15.15
13.76
12.13
10.13
7.48
3.88
-0.81
-6.34
-12.13
-17.41
-21.50
-24.09
-25.32
-25.78
-26.11
-26.81
-27.93
-29.18
-29.98
-29.83
-28.58
-26.48
-24.15
-22.32
-21.59
-22.24
-24.19
-27.09
-30.46
-33.80
-36.57
-38.15
-37.95
-35.51
-30.78
-24.24
-16.82
-9.68
-3.77
0.48
3.31
5.47
7.80
10.92
14.94
19.39
23.49
26.42
27.62
27.00
24.87
21.80
18.39
15.18
12.53
10.62
9.52
9.14
9.22
9.46
9.50
9.09
8.15
6.79
5.28
3.91
2.85
2.01
1.19
0.04
-1.69
-4.05
-6.85
-9.66
-12.04
-13.66
-14.46
-14.67
-14.67
-14.84
-15.44
-16.54
-17.98
-19.46
-20.58
-20.93
-20.11
-17.82
-13.97
-8.73
-2.59
3.85
10.04
15.65
20.66
25.23
29.56
33.60
37.06
39.49
40.56
40.22
38.75
36.63
34.33
32.14
30.04
27.88
25.42
22.53
19.20
15.57
11.82
8.16
4.80
1.86
-0.58
-2.51
-3.97
-5.07
-5.83
-6.30
-6.47
-6.39
-6.16
-5.90
-5.77
-5.87
-6.16
-6.44
-6.42
-5.93
-4.97
-3.85
-3.08
-3.28
-4.89
-8.05
-12.50
-17.70
-22.96
-27.69
-31.42
-33.87
-34.83
-34.09
-31.55
-27.28
-21.67
-15.42
-9.40
-4.42
-0.94
1.05
1.97
2.37
2.68
3.01
3.19
3.08
2.65
2.18
2.10
2.79
4.36
6.63
9.19
11.55
13.34
14.36
14.55
14.00
12.84
11.23
9.33
7.27
5.17
3.16
1.43
0.18
-0.37
-0.13
0.83
2.22
3.63
4.69
5.24
5.50
5.91
7.05
9.43
13.19
18.15
23.59
28.52
31.77
32.42
30.03
24.92
18.10
10.87
4.49
-0.47
-4.11
-7.18
-10.60
-14.91
-19.98
-24.96
-28.58
-29.63
-27.46
-22.21
-14.71
-6.23
1.98
8.94
14.13
17.40
18.83
18.61
16.94
14.07
10.31
6.07
1.79
-2.08
-5.20
-7.30
-8.32
-8.33
-7.55
-6.37
-5.04
-3.75
-2.52
-1.32
-0.17
0.79
1.41
1.66
1.79
2.31
3.78
6.55
10.56
15.25
19.76
23.26
25.17
25.28
23.84
21.20
17.83
14.11
10.33
6.67
3.16
-0.21
-3.54
-6.83
-10.11
-13.42
-16.80
-20.47
-24.59
-29.31
-34.44
-39.59
-44.04
-47.11
-48.23
-47.10
-43.69
-38.22
-31.17
-23.25
-15.42
-8.60
-3.40
0.15
2.59
4.78
7.53
11.22
15.63
20.13
24.00
26.83
28.60
29.75
30.74
31.97
33.51
35.13
36.33
36.54
35.37
32.67
28.77
24.25
19.86
16.20
13.61
11.99
10.98
10.09
9.00
7.59
5.94
4.12
2.12
-0.20
-2.96
-6.11
-9.41
-12.36
-14.45
-15.30
-14.88
-13.52
-11.84
-10.49
-9.82
-9.85
-10.17
-10.27
-9.75
-8.65
-7.44
-6.87
-7.58
-9.85
-13.46
-17.92
-22.65
-27.19
-31.24
-34.53
-36.76
-37.66
-37.20
-35.67
-33.65
-31.77
-30.32
-29.14
-27.70
-25.34
-21.80
-17.21
-12.07
-6.89
-1.95
2.67
7.12
11.45
15.66
19.44
22.37
23.97
23.88
22.03
18.66
14.28
9.37
4.27
-0.99
-6.55
-12.48
-18.52
-23.97
-27.90
-29.48
-28.39
-24.84
-19.59
-13.55
-7.48
-1.89
3.00
7.19
10.70
13.54
15.71
17.32
18.46
19.23
19.62
19.55
18.93
17.87
16.60
15.39
14.31
13.07
11.22
8.33
4.38
-0.26
-5.04
-9.58
-13.79
-17.64
-20.77
-22.17
-20.49
-14.79
-5.25
6.53
18.00
26.66
31.11
31.53
29.45
26.84
25.19
24.96
25.67
26.26
25.73
23.54
19.63
14.27
7.87
0.82
-6.49
-13.46
-19.38
-23.41
-24.93
-23.80
-20.53
-16.20
-12.14
-9.48
-8.85
-10.22
-12.88
-15.75
-17.51
-17.04
-13.69
-7.53
0.59
9.26
16.85
22.16
24.55
24.14
21.46
17.03
11.20
4.17
-3.75
-12.00
-19.80
-26.54
-32.24
-37.49
-43.18
-49.84
-57.15
-63.99
-69.08
-71.43
-70.78
-67.24
-60.80
-51.06
-37.44
-19.88
0.50
21.26
39.22
51.64
57.16
56.21
50.49
42.15
32.93
23.86
15.40
7.92
1.94
-1.82
-2.76
-0.86
3.15
7.95
11.95
13.91
13.31
10.42
6.18
1.91
-1.23
-2.54
-1.91
0.25
3.22
6.32
9.00
11.01
12.35
13.24
14.01
15.00
16.58
18.92
21.93
25.10
27.57
28.19
25.86
19.96
10.68
-0.79
-12.59
-22.72
-29.84
-33.60
-34.74
-34.50
-33.93
-33.35
-32.24
-29.75
-25.22
-18.69
-10.99
-3.23
3.60
9.05
13.20
16.42
18.87
20.43
20.74
19.46
16.69
13.00
9.28
6.45
5.08
5.25
6.74
9.17
12.23
15.77
19.69
23.77
27.74
31.15
33.57
34.67
34.27
32.40
29.27
25.26
20.83
16.48
12.61
9.44
7.01
5.18
3.79
2.77
2.05
1.58
1.28
0.97
0.44
-0.51
-2.00
-4.04
-6.57
-9.39
-12.21
-14.64
-16.11
-16.03
-13.84
-9.31
-2.64
5.47
14.00
21.91
28.43
33.29
36.69
39.11
40.96
42.43
43.34
43.32
41.97
39.00
34.43
28.55
21.91
15.21
9.14
4.32
1.10
-0.52
-0.90
-0.66
-0.56
-1.20
-2.91
-5.61
-8.95
-12.43
-15.55
-18.00
-19.55
-20.18
-19.98
-19.19
-18.16
-17.30
-16.99
-17.42
-18.55
-20.08
-21.59
-22.72
-23.31
-23.50
-23.59
-23.99
-24.99
-26.64
-28.69
-30.61
-31.65
-31.12
-28.55
-23.94
-17.83
-11.08
-4.65
0.81
5.10
8.46
11.30
13.91
16.24
17.92
18.52
17.82
15.95
13.44
11.02
9.33
8.73
9.17
10.34
11.86
13.50
15.20
17.07
19.24
21.64
24.04
26.01
27.16
27.26
26.29
24.41
21.91
19.02
15.84
12.41
8.72
4.93
1.29
-1.79
-4.01
-5.23
-5.67
-5.81
-6.18
-7.14
-8.73
-10.63
-12.39
-13.57
-14.00
-13.76
-13.25
-12.93
-13.29
-14.62
-16.89
-19.62
-21.98
-23.01
-21.96
-18.64
-13.45
-7.39
-1.52
3.30
6.64
8.59
9.41
9.47
9.04
8.26
7.19
5.94
4.67
3.49
2.61
2.10
1.97
2.14
2.47
2.80
3.11
3.47
4.05
5.03
6.45
8.18
9.86
11.05
11.37
10.61
8.79
6.17
3.24
0.43
-1.90
-3.60
-4.77
-5.60
-6.32
-7.08
-7.87
-8.60
-9.20
-9.71
-10.21
-10.82
-11.68
-12.76
-14.00
-15.28
-16.57
-17.91
-19.35
-20.92
-22.50
-23.83
-24.63
-24.68
-24.06
-23.08
-22.23
-21.95
-22.56
-24.03
-26.03
-27.94
-29.00
-28.52
-26.12
-21.80
-16.02
-9.57
-3.33
2.02
6.07
8.76
10.21
10.61
10.12
8.95
7.33
5.68
4.44
3.93
4.36
5.56
7.16
8.74
9.95
10.65
10.86
10.78
10.53
10.29
10.08
9.88
9.62
9.26
8.82
8.38
8.06
7.90
7.96
8.18
8.37
8.35
7.94
7.13
6.04
4.88
3.79
2.82
1.80
0.52
-1.23
-3.45
-5.90
-8.25
-10.18
-11.57
-12.46
-13.10
-13.71
-14.45
-15.36
-16.33
-17.17
-17.59
-17.24
-15.75
-12.86
-8.55
-3.13
2.71
8.14
12.42
15.18
16.41
16.44
15.72
14.65
13.50
12.39
11.31
10.32
9.49
8.96
8.85
9.22
10.05
11.19
12.45
13.61
14.46
14.92
15.00
14.74
14.22
13.45
12.42
11.07
9.42
7.61
5.86
4.46
3.57
3.23
3.29
3.52
3.63
3.43
2.88
2.02
0.94
-0.23
-1.43
-2.67
-3.97
-5.34
-6.73
-8.04
-9.27
-10.43
-11.62
-12.89
-14.23
-15.51
-16.45
-16.85
-16.77
-16.53
-16.69
-17.75
-20.00
-23.21
-26.75
-29.69
-31.14
-30.46
-27.53
-22.62
-16.41
-9.73
-3.39
2.00
6.05
8.73
10.26
11.02
11.43
11.79
12.24
12.75
13.28
13.72
14.09
14.47
14.97
15.59
16.25
16.84
17.27
17.59
17.87
18.25
18.74
19.25
19.64
19.77
19.65
19.42
19.33
19.61
20.31
21.36
22.47
23.40
23.92
24.04
23.93
23.99
24.66
26.28
28.91
32.14
35.10
36.59
35.48
31.14
23.77
14.40
4.56
-4.25
-11.13
-15.83
-18.71
-20.38
-21.37
-22.07
-22.69
-23.50
-24.81
-26.99
-30.19
-34.32
-39.04
-43.90
-48.49
-52.51
-55.77
-58.03
-59.02
-58.32
-55.57
-50.60
-43.67
-35.57
-27.40
-20.29
-14.93
-11.29
-8.64
-5.81
-1.69
4.36
12.25
21.35
30.60
38.82
44.78
47.30
45.49
39.05
28.62
15.76
2.69
-8.35
-15.86
-19.43
-19.79
-18.24
-16.13
-14.26
-12.80
-11.39
-9.60
-7.13
-4.08
-0.77
2.38
4.97
6.76
7.66
7.67
6.96
5.80
4.62
3.74
3.38
3.46
3.67
3.65
3.15
2.09
0.65
-0.91
-2.34
-3.47
-4.24
-4.70
-5.03
-5.47
-6.30
-7.62
-9.18
-10.38
-10.32
-8.15
-3.41
3.67
12.23
20.98
28.65
34.31
37.67
39.00
38.85
37.80
36.26
34.41
32.29
30.00
27.60
25.21
22.90
20.58
18.09
15.28
12.12
8.73
5.39
2.40
-0.09
-2.01
-3.48
-4.61
-5.45
-5.96
-5.92
-5.13
-3.37
-0.67
2.72
6.27
9.27
11.05
11.09
9.40
6.33
2.57
-1.13
-4.15
-6.19
-7.25
-7.47
-7.14
-6.44
-5.53
-4.58
-3.80
-3.41
-3.54
-4.22
-5.32
-6.69
-8.16
-9.72
-11.35
-12.91
-14.02
-14.14
-12.79
-9.84
-5.78
-1.54
1.75
3.23
2.71
0.61
-2.14
-4.57
-5.89
-5.74
-4.09
-1.17
2.62
6.87
11.21
15.39
19.26
22.80
25.97
28.68
30.76
31.94
32.06
31.05
29.04
26.24
22.97
19.44
15.86
12.48
9.56
7.36
5.97
5.26
4.84
4.18
2.78
0.42
-2.74
-6.22
-9.42
-11.89
-13.55
-14.57
-15.43
-16.52
-18.10
-20.06
-22.07
-23.72
-24.74
-25.10
-25.09
-25.20
-25.94
-27.70
-30.62
-34.60
-39.25
-43.96
-48.02
-50.67
-51.32
-49.67
-45.79
-40.18
-33.56
-26.85
-20.81
-15.94
-12.36
-9.86
-7.98
-6.22
-4.31
-2.20
-0.15
1.52
2.64
3.40
4.28
5.93
8.85
13.09
18.34
23.92
29.11
33.33
36.29
37.86
38.06
36.92
34.53
31.13
27.16
23.17
19.68
17.03
15.24
14.07
13.15
12.15
10.94
9.49
7.93
6.37
4.90
3.51
2.16
0.70
-1.05
-3.27
-6.16
-9.78
-13.97
-18.32
-22.26
-25.18
-26.76
-27.00
-26.28
-25.16
-24.15
-23.48
-23.08
-22.63
-21.70
-19.91
-17.03
-12.92
-7.59
-1.23
5.71
12.54
18.55
23.07
25.82
26.80
26.32
24.74
22.44
19.65
16.57
13.46
10.64
8.41
6.95
6.18
5.78
5.39
4.67
3.49
1.93
0.21
-1.46
-2.93
-4.18
-5.32
-6.42
-7.46
-8.29
-8.67
-8.36
-7.35
-5.75
-3.90
-2.17
-0.77
0.28
1.16
2.15
3.49
5.27
7.32
9.33
10.87
11.57
11.15
9.62
7.13
3.99
0.47
-3.25
-7.11
-11.15
-15.40
-19.75
-23.87
-27.25
-29.25
-29.43
-27.58
-23.94
-19.08
-13.73
-8.65
-4.41
-1.33
0.52
1.21
1.03
0.24
-0.87
-2.07
-3.19
-4.10
-4.67
-4.71
-4.03
-2.62
-0.68
1.38
3.09
4.13
4.42
4.14
3.60
3.03
2.49
1.89
1.09
0.03
-1.15
-2.24
-3.02
-3.41
-3.54
-3.62
-3.90
-4.55
-5.56
-6.81
-8.07
-9.20
-10.21
-11.29
-12.67
-14.54
-16.85
-19.34
-21.56
-23.07
-23.65
-23.44
-22.87
-22.46
-22.67
-23.67
-25.29
-27.07
-28.36
-28.43
-26.55
-22.30
-15.60
-6.96
2.63
11.81
19.28
24.08
25.90
25.09
22.37
18.63
14.61
10.82
7.52
4.90
3.06
2.05
1.87
2.41
3.44
4.66
5.67
6.05
5.26
2.84
-1.47
-7.54
-14.79
-22.30
-29.03
-34.12
-37.04
-37.64
-36.11
-32.81
-28.19
-22.85
-17.37
-12.36
-8.22
-5.03
-2.58
-0.44
1.89
4.78
8.37
12.54
17.01
21.33
25.10
27.97
29.78
30.46
29.90
27.93
24.28
18.73
11.23
2.16
-7.73
-17.29
-25.25
-30.55
-32.57
-31.19
-26.91
-20.61
-13.33
-5.95
0.89
7.00
12.33
16.91
20.62
23.15
24.17
23.49
21.26
17.92
14.24
11.05
9.03
8.57
9.68
12.05
15.20
18.66
22.13
25.47
28.62
31.49
33.77
34.97
34.65
32.58
28.98
24.48
19.86
15.80
12.61
10.22
8.39
6.95
5.96
5.75
6.62
8.66
11.63
14.98
18.10
20.56
22.21
23.23
23.94
24.59
25.18
25.44
24.83
22.74
18.73
12.57
4.36
-5.46
-16.10
-26.51
-35.50
-41.93
-44.97
-44.34
-40.33
-33.85
-26.04
-18.04
-10.75
-4.62
0.20
3.85
6.58
8.63
10.20
11.45
12.54
13.63
14.89
16.34
17.84
18.99
19.24
18.14
15.56
11.77
7.42
3.24
-0.25
-2.89
-4.87
-6.55
-8.25
-10.09
-12.11
-14.37
-16.93
-19.87
-23.02
-25.92
-27.87
-28.29
-26.98
-24.39
-21.36
-18.70
-16.87
-15.72
-14.67
-13.11
-10.77
-7.91
-5.24
-3.57
-3.46
-5.05
-8.06
-11.86
-15.71
-18.78
-20.27
-19.47
-15.95
-9.74
-1.50
7.60
16.08
22.57
26.20
26.93
25.37
22.51
19.32
16.37
13.89
11.83
10.13
8.94
8.55
9.27
11.15
13.94
17.08
19.99
22.15
23.30
23.30
22.15
19.91
16.61
12.43
7.53
2.29
-2.92
-7.69
-11.73
-14.86
-17.08
-18.48
-19.21
-19.44
-19.29
-18.81
-18.01
-16.88
-15.53
-14.11
-12.87
-12.01
-11.69
-11.90
-12.52
-13.41
-14.46
-15.70
-17.23
-19.23
-21.71
-24.49
-27.18
-29.23
-30.08
-29.32
-26.86
-22.92
-18.10
-13.12
-8.63
-5.04
-2.43
-0.64
0.58
1.40
1.85
1.94
1.74
1.49
1.51
2.09
3.28
4.90
6.57
7.98
9.00
9.74
10.39
11.09
11.79
12.18
11.81
10.25
7.28
3.01
-2.12
-7.43
-12.19
-15.75
-17.74
-18.09
-17.04
-15.02
-12.62
-10.40
-8.78
-7.97
-7.88
-8.24
-8.69
-9.02
-9.21
-9.47
-10.13
-11.41
-13.38
-15.85
-18.54
-21.01
-22.81
-23.45
-22.45
-19.59
-15.03
-9.37
-3.52
1.54
5.17
7.29
8.25
8.68
9.12
9.83
10.72
11.53
12.06
12.31
12.51
13.04
14.21
16.18
18.91
22.13
25.45
28.40
30.56
31.59
31.23
29.37
26.07
21.55
16.20
10.48
4.94
0.13
-3.55
-5.88
-6.87
-6.80
-6.12
-5.28
-4.62
-4.27
-4.18
-4.17
-4.07
-3.75
-3.23
-2.67
-2.35
-2.46
-3.09
-4.10
-5.17
-5.90
-5.86
-4.79
-2.60
0.55
4.27
8.05
11.28
13.45
14.27
13.74
12.22
10.18
8.11
6.27
4.72
3.43
2.44
1.92
2.10
3.22
5.30
8.12
11.23
14.16
16.54
18.27
19.33
19.87
20.03
19.97
19.82
19.66
19.59
19.60
19.63
19.59
19.31
18.67
17.56
15.90
13.60
10.65
7.08
3.10
-1.03
-4.93
-8.34
-11.14
-13.39
-15.35
-17.33
-19.62
-22.37
-25.56
-28.83
-31.62
-33.28
-33.21
-31.06
-26.95
-21.42
-15.28
-9.43
-4.62
-1.31
0.40
0.68
-0.08
-1.42
-2.85
-4.00
-4.62
-4.60
-3.92
-2.61
-0.75
1.57
4.16
6.77
9.13
10.98
12.21
12.81
12.92
12.64
12.10
11.28
10.22
8.91
7.41
5.80
4.19
2.65
1.18
-0.18
-1.52
-2.85
-4.19
-5.46
-6.57
-7.41
-7.91
-8.12
-8.23
-8.51
-9.24
-10.59
-12.56
-14.96
-17.47
-19.65
-20.98
-20.99
-19.33
-15.87
-10.88
-4.90
1.30
6.97
11.60
14.92
16.95
17.87
17.89
17.16
15.80
14.12
12.50
11.53
11.75
13.56
17.00
21.67
26.85
31.64
35.30
37.33
37.67
36.48
34.07
30.75
26.72
22.23
17.48
12.81
8.60
5.17
2.66
0.97
-0.17
-1.11
-2.15
-3.45
-5.01
-6.80
-8.69
-10.69
-12.84
-15.19
-17.77
-20.54
-23.46
-26.39
-29.16
-31.44
-32.77
-32.65
-30.63
-26.55
-20.66
-13.63
-6.34
0.34
5.84
9.95
12.81
14.73
16.04
17.01
17.74
18.30
18.73
19.17
19.77
20.61
21.69
22.82
23.73
24.16
23.96
23.06
21.51
19.37
16.68
13.52
9.95
6.15
2.33
-1.28
-4.51
-7.23
-9.34
-10.80
-11.61
-11.88
-11.77
-11.53
-11.35
-11.39
-11.65
-12.01
-12.34
-12.52
-12.56
-12.53
-12.61
-12.97
-13.73
-14.88
-16.31
-17.89
-19.45
-20.83
-21.69
-21.61
-20.11
-16.84
-11.86
-5.66
0.83
6.63
10.93
13.41
14.18
13.64
12.28
10.40
8.21
5.76
3.17
0.73
-1.15
-2.07
-1.72
-0.14
2.30
4.97
7.19
8.50
8.81
8.39
7.70
7.15
6.90
6.84
6.67
6.08
4.96
3.45
1.87
0.58
-0.24
-0.71
-1.21
-2.17
-3.84
-6.13
-8.58
-10.67
-12.10
-12.97
-13.82
-15.32
-17.85
-21.23
-24.68
-27.17
-27.80
-26.32
-23.20
-19.48
-16.25
-14.04
-12.53
-10.71
-7.42
-1.84
6.24
16.55
28.57
41.34
52.99
60.07
57.92
42.61
13.49
-24.48
-60.97
-83.08
-79.86
-45.94
17.31
103.15
202.28
304.82
401.06
481.44
537.23
562.36
555.85
522.93
473.78
420.08
370.83
329.96
296.46
266.52
236.30
203.99
170.43
138.61
112.39
94.93
87.22
87.22
90.12
90.20
82.90
66.75
43.66
17.46
-8.39
-32.59
-56.16
-81.27
-109.40
-140.28
-172.34
-203.91
-234.15
-262.96
-290.11
-314.46
-334.17
-347.75
-355.22
-358.63
-360.78
-364.05
-369.16
-375.30
-381.32
-387.10
-394.06
-404.14
-417.97
-432.86
-442.88
-440.84
-422.14
-388.02
-346.83
-311.97
-296.91
-309.40
-347.44
-399.56
-449.12
-480.78
-486.12
-465.56
-426.24
-377.46
-326.48
-276.62
-228.26
-181.11
-136.21
-96.36
-64.55
-41.95
-26.66
-14.12
0.93
21.99
49.46
80.45
110.03
133.50
148.11
153.98
153.84
151.75
151.31
154.38
160.61
167.71
172.74
173.27
168.30
158.57
146.09
133.41
122.74
115.36
111.33
109.85
109.63
109.61
109.25
108.55
107.85
107.43
107.31
107.19
106.81
106.07
105.23
104.68
104.47
104.15
102.78
99.30
93.02
84.18
73.97
64.14
56.47
52.17
51.58
54.25
59.14
64.99
70.56
74.75
76.67
75.85
72.37
66.98
60.94
55.56
51.84
50.05
49.68
49.77
49.38
48.04
45.81
43.18
40.67
38.53
36.70
34.85
32.65
29.96
26.80
23.38
20.00
17.00
14.64
13.04
12.00
10.98
9.29
6.26
1.74
-3.74
-9.06
-12.86
-14.03
-12.20
-7.82
-1.91
4.44
10.44
15.83
20.63
24.96
28.73
31.54
32.97
32.72
30.82
27.61
23.69
19.97
17.70
18.37
23.16
32.35
44.72
57.65
67.99
73.35
73.13
68.83
63.18
58.74
56.77
56.76
57.05
55.86
52.22
46.18
38.59
30.48
22.77
16.29
12.00
11.00
14.21
21.72
32.37
43.75
52.85
57.11
55.43
48.46
38.31
27.64
18.69
12.71
9.68
8.54
7.64
5.24
-0.10
-8.99
-21.10
-35.13
-49.07
-60.77
-68.44
-71.12
-68.87
-62.61
-53.86
-44.19
-34.91
-26.77
-20.00
-14.50
-10.07
-6.55
-3.92
-2.09
-0.88
0.03
1.03
2.42
4.37
6.88
9.81
13.00
16.25
19.34
22.08
24.31
25.97
27.11
27.89
28.50
29.22
30.20
31.49
33.07
34.66
35.98
36.76
36.88
36.31
35.21
33.72
31.93
29.93
27.80
25.77
24.11
23.12
22.91
23.35
24.02
24.46
24.22
23.08
20.90
17.53
12.74
6.38
-1.35
-9.56
-16.74
-21.13
-21.46
-17.55
-10.60
-2.81
3.49
6.57
5.81
1.66
-4.69
-11.76
-18.02
-22.15
-23.37
-21.72
-18.32
-14.91
-13.02
-12.72
-12.03
-7.32
5.09
26.94
56.48
88.37
115.15
129.86
128.70
112.51
86.45
57.97
33.89
17.86
9.20
3.73
-3.88
-17.37
-37.16
-60.50
-82.95
-100.45
-110.85
-113.98
-110.97
-103.72
-94.89
-88.07
-87.21
-95.03
-111.06
-130.63
-146.12
-150.18
-139.12
-114.80
-83.49
-52.56
-26.97
-7.80
6.92
19.62
31.07
40.02
44.51
43.84
39.35
33.92
30.12
28.88
29.05
28.26
24.65
18.26
11.22
6.80
7.70
14.49
25.21
36.25
43.78
45.47
41.21
32.85
23.13
14.39
7.70
2.92
-0.79
-4.15
-7.25
-9.87
-12.04
-14.36
-17.75
-22.35
-26.68
-27.81
-22.68
-10.07
8.00
26.76
40.81
46.71
44.72
38.41
32.64
30.92
34.16
40.87
48.66
55.85
62.04
67.49
72.24
75.45
75.69
71.77
63.51
52.07
39.45
27.69
18.07
10.80
5.20
0.37
-4.34
-8.91
-12.68
-14.70
-14.05
-10.18
-3.16
6.13
16.28
25.62
32.89
37.72
40.88
43.99
48.57
54.89
61.08
63.19
56.78
39.05
10.91
-22.49
-53.15
-73.05
-77.15
-65.05
-40.76
-10.69
18.77
43.05
59.78
68.39
69.17
62.80
50.42
33.82
15.47
-1.99
-16.62
-28.14
-38.23
-50.08
-67.10
-91.15
-121.10
-152.47
-178.58
-192.85
-191.39
-174.41
-146.04
-112.61
-80.35
-53.54
-33.95
-21.15
-13.42
-8.56
-4.37
1.10
9.29
20.86
35.54
52.08
68.49
82.38
91.51
94.22
90.19
80.84
69.28
59.58
55.17
57.42
64.93
74.21
81.28
83.39
80.03
72.64
63.59
55.00
48.19
43.55
41.07
40.70
42.47
46.33
51.79
57.75
62.67
64.98
63.67
58.52
50.16
39.63
27.87
15.22
1.50
-13.71
-30.37
-47.67
-63.97
-77.33
-86.30
-90.35
-90.20
-87.44
-84.08
-81.77
-81.36
-82.76
-85.12
-87.30
-88.15
-86.89
-83.21
-77.41
-70.42
-63.76
-59.28
-58.58
-62.48
-70.55
-81.01
-91.30
-98.87
-101.90
-99.81
-93.16
-83.26
-71.75
-59.90
-48.47
-37.44
-26.08
-13.29
1.97
20.05
40.25
60.75
79.19
93.27
101.46
103.43
99.91
92.38
82.53
71.94
61.81
52.86
45.32
38.91
33.18
27.70
22.47
18.10
15.68
16.36
20.77
28.60
38.36
47.77
54.35
56.29
53.09
45.62
35.72
25.49
16.67
10.28
6.72
5.95
7.63
11.16
15.58
19.67
22.25
22.61
20.75
17.32
13.34
9.67
6.76
4.56
2.68
0.62
-2.10
-5.82
-10.67
-16.49
-22.85
-29.10
-34.51
-38.45
-40.60
-40.94
-39.66
-37.01
-33.28
-28.77
-23.77
-18.58
-13.26
-7.58
-1.04
6.90
16.42
27.14
38.04
47.86
55.41
59.84
60.74
58.10
52.31
44.11
34.53
24.65
15.40
7.26
0.12
-6.37
-12.54
-18.39
-23.60
-27.84
-31.13
-33.90
-36.81
-40.30
-44.28
-48.14
-51.03
-52.27
-51.66
-49.44
-46.26
-42.81
-39.64
-37.04
-35.03
-33.39
-31.71
-29.45
-26.03
-20.92
-13.84
-4.82
5.70
16.87
27.55
36.51
42.60
45.01
43.48
38.32
30.34
20.74
10.87
1.96
-4.99
-9.40
-11.10
-10.34
-7.68
-3.90
0.15
3.73
6.43
8.23
9.51
10.79
12.47
14.62
16.95
18.96
20.18
20.42
19.86
18.90
17.99
17.45
17.38
17.68
18.18
18.71
19.12
19.33
19.25
18.78
17.79
16.19
14.06
11.73
9.83
9.11
10.15
13.18
17.90
23.68
29.75
35.48
40.35
44.04
46.17
46.37
44.41
40.38
34.72
28.02
20.74
12.82
3.72
-7.33
-20.85
-36.65
-53.71
-70.47
-85.19
-96.49
-103.71
-106.97
-107.06
-105.01
-101.77
-97.90
-93.54
-88.42
-82.16
-74.43
-65.21
-54.78
-43.69
-32.59
-22.09
-12.63
-4.48
2.34
8.02
12.97
17.72
22.70
28.03
33.37
37.99
41.04
41.89
40.45
37.24
33.28
29.79
27.76
27.72
29.57
32.70
36.14
38.84
39.95
38.95
35.82
30.95
25.02
18.81
13.01
8.11
4.32
1.59
-0.38
-1.99
-3.57
-5.29
-7.00
-8.35
-8.97
-8.75
-7.82
-6.67
-5.73
-5.29
-5.26
-5.28
-4.89
-3.77
-1.89
0.57
3.11
5.14
5.98
5.01
1.84
-3.42
-10.06
-16.76
-21.86
-23.90
-21.94
-15.92
-6.56
5.04
17.67
30.36
42.31
52.77
60.96
66.18
67.92
66.15
61.47
54.85
47.35
39.64
31.83
23.34
13.43
1.52
-12.43
-27.76
-43.36
-58.01
-70.59
-80.26
-86.39
-88.22
-84.85
-75.39
-59.43
-37.62
-11.90
14.70
38.71
57.19
68.50
72.65
71.02
65.74
58.93
52.22
46.50
42.11
38.99
36.88
35.40
34.03
32.21
29.42
25.50
20.58
15.29
10.43
6.78
4.93
5.11
7.17
10.40
13.44
14.32
10.98
1.78
-13.86
-35.26
-60.60
-87.29
-112.35
-132.63
-145.19
-147.79
-139.69
-122.29
-99.15
-75.04
-54.47
-40.27
-32.90
-30.85
-31.55
-32.40
-31.28
-26.60
-17.38
-3.50
14.09
33.20
50.97
64.68
72.67
74.80
72.19
66.59
59.66
52.55
45.90
39.97
34.89
30.57
26.78
23.07
18.86
13.77
7.80
1.46
-4.43
-9.01
-11.75
-12.72
-12.49
-11.91
-11.57
-11.60
-11.51
-10.66
-8.49
-5.00
-0.70
3.63
7.24
9.76
11.22
11.84
11.79
11.12
9.76
7.67
5.01
1.97
-1.24
-4.60
-8.22
-12.16
-16.30
-20.31
-23.82
-26.58
-28.53
-29.77
-30.43
-30.55
-30.16
-29.36
-28.52
-28.22
-29.03
-31.24
-34.68
-38.79
-42.84
-46.19
-48.54
-50.00
-50.97
-51.93
-53.10
-54.23
-54.49
-52.63
-47.21
-37.16
-22.14
-2.88
18.97
41.14
61.26
77.41
88.47
94.18
95.04
92.05
86.43
79.37
71.93
64.94
58.78
53.31
47.71
40.81
31.42
19.02
4.02
-12.14
-27.55
-40.37
-49.43
-54.45
-55.84
-54.34
-50.61
-45.13
-38.27
-30.50
-22.39
-14.63
-7.74
-1.96
2.73
6.45
9.20
10.80
10.89
9.25
6.00
1.66
-2.92
-6.95
-9.84
-11.46
-12.12
-12.35
-12.70
-13.55
-15.02
-16.93
-18.92
-20.59
-21.66
-22.01
-21.65
-20.61
-18.85
-16.19
-12.42
-7.45
-1.38
5.39
12.28
18.55
23.38
26.00
25.91
23.11
18.17
12.19
6.43
2.00
-0.50
-1.10
-0.32
1.08
2.41
3.19
3.19
2.41
0.98
-0.85
-2.63
-3.74
-3.52
-1.50
2.42
7.85
13.92
19.63
24.15
27.08
28.54
28.89
28.57
27.89
26.99
26.08
25.46
25.52
26.53
28.41
30.57
32.00
31.54
28.25
21.78
12.53
1.51
-9.99
-20.84
-30.32
-38.22
-44.65
-49.74
-53.42
-55.32
-55.03
-52.26
-47.10
-40.03
-31.86
-23.49
-15.77
-9.36
-4.59
-1.45
0.45
1.64
2.62
3.61
4.43
4.63
3.73
1.47
-1.94
-5.88
-9.55
-12.23
-13.50
-13.33
-12.00
-9.86
-7.25
-4.41
-1.53
1.16
3.32
4.58
4.69
3.74
2.19
0.81
0.27
0.97
2.86
5.51
8.40
11.21
13.96
16.90
20.32
24.18
28.03
31.10
32.62
32.15
29.75
25.96
21.47
16.84
12.39
8.12
3.94
-0.14
-3.88
-6.96
-9.13
-10.39
-11.06
-11.62
-12.57
-14.13
-16.10
-17.85
-18.67
-18.05
-15.98
-12.97
-9.79
-7.14
-5.30
-4.15
-3.23
-2.20
-0.87
0.55
1.70
2.25
2.01
1.10
-0.15
-1.21
-1.46
-0.41
2.18
6.15
10.95
15.87
20.12
23.06
24.29
23.73
21.52
18.04
13.79
9.37
5.36
2.21
0.18
-0.74
-0.80
-0.40
-0.00
0.02
-0.56
-1.80
-3.63
-5.87
-8.19
-10.28
-11.80
-12.50
-12.38
-11.69
-10.87
-10.33
-10.28
-10.56
-10.89
-10.93
-10.53
-9.77
-8.84
-7.78
-6.44
-4.47
-1.61
2.12
6.23
9.92
12.29
12.75
11.23
8.13
4.13
-0.00
-3.70
-6.62
-8.53
-9.28
-8.74
-6.95
-4.26
-1.31
1.12
2.40
2.30
1.10
-0.65
-2.36
-3.67
-4.53
-5.11
-5.51
-5.77
-5.73
-5.23
-4.21
-2.85
-1.39
-0.15
0.57
0.52
-0.54
-2.69
-5.92
-9.92
-14.23
-18.16
-21.11
-22.69
-22.81
-21.72
-19.77
-17.45
-15.24
-13.62
-13.00
-13.60
-15.26
-17.29
-18.62
-18.10
-14.95
-9.09
-1.26
7.20
14.79
20.31
23.21
23.56
21.95
19.14
15.93
12.96
10.69
9.42
9.18
9.84
11.05
12.38
13.39
13.80
13.55
12.78
11.76
10.77
9.99
9.34
8.56
7.39
5.65
3.42
0.98
-1.28
-3.19
-4.74
-6.18
-7.70
-9.18
-10.23
-10.19
-8.51
-4.98
0.15
6.27
12.64
18.61
23.77
27.88
30.71
32.06
31.69
29.53
25.72
20.77
15.35
10.16
5.76
2.54
0.69
0.19
0.89
2.45
4.41
6.14
7.06
6.71
4.97
2.06
-1.50
-5.09
-8.10
-10.08
-10.89
-10.58
-9.51
-8.11
-6.83
-5.99
-5.78
-6.14
-6.79
-7.40
-7.66
-7.41
-6.76
-6.09
-5.84
-6.46
-8.15
-10.85
-14.27
-18.02
-21.74
-25.25
-28.49
-31.46
-34.15
-36.58
-38.79
-40.84
-42.76
-44.50
-45.81
-46.34
-45.82
-44.19
-41.67
-38.75
-35.83
-33.05
-30.18
-26.79
-22.53
-17.36
-11.59
-5.82
-0.66
3.47
6.43
8.34
9.43
9.95
10.15
10.19
10.21
10.36
10.75
11.48
12.62
14.20
16.17
18.40
20.73
22.92
24.74
26.06
26.84
27.15
27.08
26.66
25.77
24.22
21.86
18.69
14.91
10.84
6.86
3.24
0.19
-2.16
-3.63
-3.93
-2.86
-0.29
3.61
8.40
13.52
18.35
22.31
25.03
26.25
25.94
24.25
21.46
17.99
14.28
10.76
7.76
5.51
4.20
3.85
4.40
5.64
7.17
8.61
9.59
9.90
9.43
8.20
6.21
3.51
0.21
-3.56
-7.49
-11.26
-14.56
-17.24
-19.32
-21.07
-22.76
-24.52
-26.31
-27.96
-29.36
-30.68
-32.36
-34.86
-38.37
-42.67
-47.15
-51.18
-54.41
-56.94
-59.14
-61.38
-63.77
-66.05
-67.71
-68.13
-66.68
-62.93
-56.83
-48.89
-40.29
-32.55
-27.12
-24.96
-26.28
-30.65
-37.05
-43.90
-49.16
-50.54
-46.05
-34.88
