1564582217.00
64.000000
-0.00
-0.00
-0.00
-0.00
-0.00
-0.00
-0.00
-0.00
-0.00
-0.00
0.00
0.01
0.01
-0.00
-0.03
-0.05
-0.05
0.00
0.13
0.36
0.66
1.01
1.37
1.72
2.06
2.40
2.79
3.24
3.80
4.43
5.08
5.70
6.27
6.81
7.37
8.03
8.84
9.91
11.15
12.45
13.70
14.84
15.92
17.11
18.61
20.57
23.22
26.36
29.72
33.01
36.07
38.98
42.07
45.78
50.43
56.42
63.40
70.84
78.19
85.11
91.69
98.44
106.09
115.19
126.29
138.90
152.24
165.42
177.92
189.80
201.73
215.08
228.58
244.54
263.54
285.70
309.82
333.00
350.95
359.07
354.01
334.94
304.27
265.83
223.94
181.82
141.01
101.78
63.99
27.86
-5.85
-35.91
-61.75
-83.56
-101.91
-117.39
-130.20
-140.17
-146.89
-150.12
-149.93
-147.16
-142.99
-138.64
-135.01
-132.17
-129.77
-127.21
-123.99
-119.83
-114.92
-109.73
-104.78
-100.39
-96.61
-93.28
-90.08
-86.76
-83.16
-79.38
-75.66
-72.21
-69.16
-66.51
-64.15
-61.96
-59.82
-57.69
-55.64
-53.73
-52.06
-50.63
-49.38
-48.25
-47.17
-46.15
-45.24
-44.57
-44.28
-44.45
-45.06
-46.00
-47.13
-48.33
-49.59
-51.03
-52.86
-55.26
-58.29
-61.81
-65.54
-69.18
-72.56
-75.74
-79.03
-82.85
-87.52
-93.12
-99.43
-106.04
-112.62
-119.13
-125.84
-133.17
-141.44
-150.66
-160.57
-171.08
-182.61
-195.94
-211.53
-228.56
-244.73
-256.61
-261.24
-257.36
-245.87
-229.11
-209.43
-188.03
-164.90
-139.93
-114.07
-89.73
-69.98
-56.93
-50.32
-47.50
-44.81
-39.37
-30.49
-19.68
-9.56
-2.22
1.83
3.84
5.95
9.63
14.88
20.12
23.26
22.87
19.37
14.87
11.92
12.29
15.66
19.75
21.63
19.32
12.92
4.80
-1.76
-4.41
-3.12
-0.19
1.06
-1.82
-8.86
-17.62
-24.58
-27.19
-25.29
-21.19
-18.33
-19.14
-23.61
-29.31
-32.81
-31.68
-25.95
-18.06
-11.40
-8.39
-9.11
-11.32
-11.96
-8.93
-2.47
4.96
10.18
11.12
8.06
3.51
0.69
1.65
6.17
11.92
15.91
16.23
13.12
8.81
6.24
7.25
11.66
17.45
21.90
23.25
21.72
19.43
19.00
22.05
28.09
34.73
39.17
39.84
37.54
34.93
35.15
39.72
47.65
55.93
61.21
61.80
58.74
55.15
54.41
58.24
65.58
73.17
77.50
76.70
71.59
65.27
61.33
61.78
66.06
71.49
74.74
73.87
69.24
63.20
58.62
57.12
58.17
59.43
58.34
53.70
46.57
39.65
35.72
35.95
39.08
42.18
42.24
37.97
30.58
23.14
18.86
19.27
23.39
28.19
30.37
28.15
22.27
15.55
11.20
10.98
14.16
17.94
19.19
16.35
10.30
3.99
0.66
1.87
6.68
12.11
14.86
13.16
7.69
1.15
-3.34
-3.90
-1.03
2.95
5.22
4.16
0.36
-3.83
-5.65
-3.69
1.15
6.20
8.51
6.75
2.03
-2.70
-4.42
-1.81
3.88
9.55
12.13
10.28
5.19
-0.18
-2.81
-1.42
2.87
7.22
8.72
6.20
0.84
-4.43
-6.70
-4.58
0.70
6.21
8.83
7.09
2.00
-3.49
-6.26
-4.71
0.34
6.11
9.55
9.00
5.13
0.47
-2.10
-1.06
3.02
7.76
10.49
9.81
6.32
2.28
0.18
1.30
4.99
8.96
10.75
9.11
4.84
0.37
-1.69
0.01
4.53
9.26
11.38
9.48
4.47
-0.86
-3.57
-2.17
2.38
7.32
9.57
7.64
2.47
-3.18
-6.21
-5.14
-0.87
3.92
6.35
5.01
0.81
-3.55
-5.36
-3.47
1.01
5.21
6.25
3.01
-3.25
-9.43
-12.31
-10.39
-4.72
1.71
5.53
4.87
0.41
-5.00
-8.09
-6.98
-2.27
3.33
6.68
6.15
2.48
-1.69
-3.46
-1.60
2.79
6.92
8.07
5.29
-0.06
-5.00
-6.76
-4.33
0.96
6.22
8.61
6.99
2.41
-2.56
-5.09
-3.81
0.39
5.01
7.26
5.67
1.01
-4.12
-6.88
-5.79
-1.60
3.04
5.22
3.63
-0.72
-5.01
-6.26
-3.26
2.58
8.14
10.27
7.81
2.30
-2.96
-4.86
-2.30
3.15
8.05
9.31
5.98
-0.13
-5.62
-7.34
-4.42
1.21
6.05
7.02
3.28
-3.19
-8.80
-10.42
-7.22
-1.06
4.48
6.31
3.55
-1.94
-6.78
-7.88
-4.43
1.69
7.05
8.58
5.43
-0.45
-5.50
-6.60
-2.91
3.71
9.64
11.68
8.93
3.17
-2.15
-3.93
-1.24
4.22
9.19
10.77
8.07
2.67
-2.44
-4.57
-2.88
1.29
5.13
6.25
3.93
-0.55
-4.67
-6.20
-4.57
-1.15
1.62
1.69
-1.38
-6.16
-10.11
-11.11
-8.59
-3.90
0.46
2.33
1.06
-2.15
-4.88
-4.95
-1.72
3.51
8.09
9.54
7.06
2.02
-2.71
-4.38
-2.00
3.07
7.83
9.35
6.53
0.73
-4.96
-7.56
-5.77
-0.85
4.27
6.62
4.97
0.40
-4.26
-6.22
-4.30
0.43
5.23
7.38
5.72
1.38
-2.89
-4.34
-1.81
3.48
8.70
10.89
8.77
3.46
-2.17
-5.12
-4.01
0.15
4.56
6.39
4.40
-0.42
-5.30
-7.55
-6.02
-1.88
2.21
3.62
1.43
-3.09
-7.21
-8.38
-5.74
-0.73
3.75
5.03
2.19
-3.27
-8.32
-10.18
-7.75
-2.48
2.69
4.95
3.30
-0.97
-5.05
-6.39
-4.17
0.30
4.25
5.20
2.54
-2.22
-6.25
-6.97
-3.68
1.98
7.07
8.80
6.31
1.17
-3.58
-5.19
-2.74
2.37
7.20
9.14
7.28
2.95
-1.17
-2.67
-0.72
3.46
7.29
8.33
5.77
0.78
-3.94
-5.73
-3.54
1.47
6.57
8.89
7.12
2.36
-2.61
-4.91
-3.18
1.34
5.76
7.19
4.50
-0.92
-5.93
-7.56
-4.77
0.94
6.35
8.44
6.11
0.82
-4.40
-6.63
-4.94
-0.77
2.97
3.63
0.48
-4.92
-9.54
-10.71
-7.60
-1.79
3.67
5.88
3.82
-1.13
-5.97
-7.71
-5.19
0.29
5.72
8.05
5.97
0.65
-4.84
-7.47
-5.85
-1.03
4.06
6.44
4.82
0.32
-4.28
-6.12
-4.19
0.29
4.47
5.65
2.94
-2.24
-6.91
-8.29
-5.44
0.14
5.42
7.54
5.49
0.71
-3.68
-4.79
-1.60
4.33
9.68
11.28
7.93
1.17
-5.58
-8.97
-7.59
-2.73
2.46
4.85
3.15
-1.41
-5.83
-7.12
-4.14
1.82
7.72
10.60
9.21
4.78
0.18
-1.85
-0.28
3.51
6.61
6.44
2.29
-4.19
-9.77
-11.60
-8.81
-2.98
2.74
5.34
3.62
-1.20
-6.31
-8.83
-7.45
-3.12
1.53
3.74
2.19
-2.09
-6.33
-7.64
-4.70
1.31
7.33
10.26
8.68
3.76
-1.44
-3.84
-2.19
2.28
6.61
7.92
5.22
0.03
-4.71
-6.19
-3.55
1.63
6.26
7.53
4.43
-1.50
-7.15
-9.58
-7.72
-2.94
1.73
3.41
1.14
-3.57
-7.55
-7.96
-3.95
2.72
8.61
10.57
7.56
1.16
-5.28
-8.51
-7.19
-2.58
2.46
5.06
4.01
0.52
-2.74
-3.23
-0.09
5.32
10.15
11.83
9.49
4.53
-0.17
-1.98
-0.06
4.21
8.06
8.95
6.10
0.85
-4.05
-6.15
-4.67
-0.94
2.28
2.56
-0.87
-6.53
-11.42
-12.81
-9.68
-3.50
2.63
5.71
4.45
0.04
-4.62
-6.54
-4.49
0.49
5.54
7.77
5.92
1.08
-4.05
-6.57
-5.13
-0.71
4.02
6.21
4.51
-0.19
-5.14
-7.38
-5.46
-0.29
5.33
8.31
7.08
2.50
-2.68
-5.51
-4.52
-0.64
3.34
4.59
2.03
-3.04
-7.57
-8.58
-5.08
1.35
7.42
9.86
7.44
1.60
-4.45
-7.50
-6.18
-1.61
3.23
5.37
3.53
-1.29
-6.34
-8.79
-7.33
-2.87
2.08
4.78
4.00
0.60
-3.01
-4.32
-2.30
2.07
6.20
7.53
5.06
-0.01
-4.87
-6.68
-4.22
1.34
7.01
9.58
7.43
1.54
-5.10
-9.06
-8.41
-3.73
2.20
6.06
5.88
2.16
-2.62
-5.43
-4.67
-1.08
2.84
4.34
2.16
-2.55
-7.10
-8.77
-6.54
-1.62
3.21
5.30
3.63
-0.55
-4.38
-5.24
-2.15
3.46
8.54
10.23
7.53
1.95
-3.35
-5.22
-2.51
3.25
8.82
10.98
8.39
2.48
-3.59
-6.63
-5.26
-0.67
4.23
6.55
4.98
0.61
-3.93
-5.91
-4.19
0.03
3.91
4.69
1.35
-4.64
-9.98
-11.52
-8.06
-1.20
5.48
8.44
6.29
0.52
-5.48
-8.29
-6.60
-1.84
2.98
4.96
3.15
-1.06
-4.94
-6.07
-3.65
1.00
5.45
7.47
6.23
2.72
-0.84
-2.33
-0.90
2.70
6.29
7.54
5.41
0.72
-4.17
-6.52
-4.98
-0.36
4.88
7.81
6.88
2.81
-1.95
-4.58
-3.62
0.20
4.38
6.13
4.12
-0.73
-5.73
-7.98
-6.08
-1.11
3.98
6.06
3.63
-2.20
-8.22
-11.05
-9.19
-3.82
1.77
4.19
2.09
-3.11
-8.04
-9.42
-6.10
0.36
6.62
9.42
7.48
2.23
-3.20
-5.64
-3.64
1.77
7.76
11.28
10.69
6.65
1.73
-1.17
-0.47
3.30
7.60
9.59
7.77
2.81
-2.79
-6.19
-6.05
-3.17
0.01
1.02
-1.21
-5.67
-9.84
-11.39
-9.46
-5.16
-0.97
0.71
-0.99
-5.07
-9.24
-11.31
-10.39
-7.47
-4.79
-4.46
-7.19
-11.82
-15.94
-17.35
-15.38
-11.36
-7.98
-7.65
-11.12
-17.01
-22.60
-25.41
-24.77
-22.19
-20.52
-22.24
-27.94
-35.90
-43.06
-46.76
-46.34
-43.66
-42.06
-44.58
-52.15
-62.89
-72.79
-77.80
-75.62
-66.79
-54.32
-42.12
-33.26
-28.98
-28.96
-32.63
-40.42
-53.80
-74.14
-100.71
-129.51
-153.79
-166.18
-161.64
-139.46
-103.21
-58.78
-11.87
33.49
75.05
111.18
140.24
160.98
173.82
181.72
189.53
201.68
219.86
241.96
263.24
279.17
287.60
289.70
288.58
286.88
285.05
281.05
271.37
252.28
221.17
177.24
122.33
61.14
1.04
-49.47
-83.16
-96.63
-91.77
-74.99
-54.67
-38.13
-29.39
-28.81
-34.55
-44.33
-56.71
-71.11
-86.79
-102.06
-114.20
-120.34
-118.96
-110.84
-99.14
-88.04
-80.89
-78.68
-79.75
-80.80
-78.63
-71.85
-61.56
-50.64
-42.22
-38.11
-37.90
-39.35
-39.67
-36.99
-31.35
-24.54
-18.92
-16.07
-15.95
-16.93
-16.86
-14.49
-10.06
-5.26
-2.07
-1.48
-2.95
-4.70
-4.83
-2.52
1.48
5.19
6.57
4.76
0.66
-3.54
-5.51
-4.12
-0.08
4.41
6.92
6.18
2.78
-1.15
-3.25
-2.27
1.17
4.85
6.37
4.55
0.13
-4.49
-6.80
-5.59
-1.60
2.77
4.87
3.41
-0.82
-5.37
-7.47
-5.69
-0.85
4.44
7.22
5.88
1.12
-4.23
-7.02
-5.46
-0.25
5.73
9.00
7.58
2.07
-4.53
-8.69
-8.19
-3.54
2.41
6.26
5.99
2.08
-2.84
-5.67
-4.70
-0.51
4.37
7.07
6.15
2.38
-1.73
-3.50
-1.70
2.61
6.68
7.69
4.46
-1.79
-8.01
-11.06
-9.51
-4.52
0.92
3.69
2.42
-1.91
-6.42
-8.30
-6.31
-1.58
3.19
5.20
3.32
-1.37
-6.14
-8.17
-6.18
-1.21
4.03
6.57
4.92
0.07
-5.15
-7.56
-5.55
-0.06
5.89
8.86
7.02
1.13
-5.82
-10.26
-10.14
-5.93
-0.29
3.52
3.61
0.40
-3.68
-5.74
-4.24
0.04
4.58
6.54
4.61
-0.21
-5.18
-7.40
-5.49
-0.45
4.95
7.88
6.93
2.97
-1.49
-3.78
-2.61
1.27
5.53
7.61
6.28
2.22
-2.37
-5.02
-4.45
-1.30
2.32
3.98
2.38
-1.81
-6.43
-8.86
-7.63
-3.21
2.19
5.86
6.10
3.19
-0.81
-3.37
-2.85
0.41
4.34
6.49
5.42
1.68
-2.53
-4.69
-3.58
0.03
3.79
5.15
2.99
-1.70
-6.47
-8.69
-7.25
-3.13
1.20
3.19
1.65
-2.45
-6.74
-8.71
-7.13
-2.82
1.89
4.50
3.72
0.28
-3.51
-5.17
-3.46
0.85
5.35
7.56
6.28
2.41
-1.59
-3.13
-1.08
3.64
8.49
10.80
9.27
4.62
-0.85
-4.52
-4.93
-2.44
1.04
3.14
2.40
-0.90
-4.94
-7.34
-6.54
-2.77
2.01
5.27
5.26
2.18
-1.90
-4.35
-3.45
0.47
5.10
7.70
6.51
1.97
-3.51
-6.98
-6.63
-2.70
2.61
6.43
6.91
4.09
-0.21
-3.35
-3.64
-1.10
2.53
4.80
4.16
0.85
-3.18
-5.44
-4.43
-0.66
3.57
5.63
4.06
-0.42
-5.22
-7.48
-5.71
-0.74
4.70
7.53
6.12
1.19
-4.59
-8.10
-7.58
-3.60
1.35
4.28
3.49
-0.30
-4.52
-6.11
-3.52
2.44
8.93
12.69
12.01
7.64
2.37
-0.66
0.25
4.33
8.89
10.88
8.71
3.13
-3.16
-7.09
-6.91
-3.19
1.58
4.42
3.57
-0.42
-5.10
-7.55
-6.14
-1.62
3.31
5.61
3.67
-1.65
-7.44
-10.41
-8.90
-3.76
2.03
5.04
3.44
-2.01
-8.35
-12.11
-11.21
-6.19
0.16
4.48
4.65
1.08
-3.60
-6.32
-5.17
-0.76
4.20
6.72
5.16
0.36
-4.85
-7.33
-5.58
-0.45
5.23
8.29
7.09
2.35
-3.34
-6.89
-6.62
-3.09
1.30
3.64
2.29
-2.11
-7.01
-9.49
-7.92
-3.01
2.59
5.83
5.05
1.00
-3.51
-5.36
-2.83
3.22
9.77
13.36
12.08
6.66
0.17
-3.75
-2.95
2.03
8.24
12.03
11.11
5.90
-0.89
-5.65
-6.02
-2.17
3.44
7.44
7.51
3.59
-2.08
-6.36
-7.04
-4.01
0.63
3.86
3.56
-0.15
-5.03
-7.89
-6.64
-1.60
4.69
8.84
8.68
4.61
-0.68
-3.87
-2.99
1.43
6.67
9.51
8.08
3.15
-2.54
-5.78
-4.75
-0.10
5.44
8.67
7.75
3.16
-2.48
-6.00
-5.53
-1.48
3.64
6.68
5.79
1.39
-4.13
-7.75
-7.70
-4.48
-0.31
2.15
1.40
-1.95
-5.64
-7.20
-5.35
-0.85
3.93
6.33
4.89
0.18
-5.51
-9.40
-9.70
-6.53
-1.76
2.09
3.29
1.74
-1.04
-2.94
-2.57
-0.06
2.98
4.41
2.94
-1.08
-5.81
-8.86
-8.68
-5.56
-1.30
1.65
1.70
-1.01
-4.64
-6.84
-6.05
-2.46
2.07
5.13
5.17
2.33
-1.64
-4.43
-4.49
-1.95
1.58
3.92
3.61
0.84
-2.71
-4.87
-4.23
-1.02
3.09
5.93
6.09
3.67
0.23
-2.25
-2.48
-0.56
2.14
3.82
3.31
0.78
-2.42
-4.54
-4.40
-2.12
1.03
3.32
3.55
1.76
-0.83
-2.52
-2.08
0.46
3.86
6.34
6.52
4.28
0.85
-1.90
-2.45
-0.49
2.82
5.57
6.19
4.27
0.86
-2.14
-3.17
-1.84
0.85
3.13
3.56
1.88
-0.89
-3.10
-3.48
-1.92
0.43
1.91
1.38
-1.10
-4.20
-6.09
-5.57
-2.71
1.07
3.85
4.31
2.38
-0.65
-2.94
-3.18
-1.32
1.46
3.39
3.27
1.09
-1.92
-3.94
-3.76
-1.41
1.81
4.04
3.97
1.71
-1.35
-3.37
-3.20
-1.07
1.48
2.59
1.27
-2.00
-5.47
-7.09
-5.80
-2.12
2.10
4.71
4.42
1.54
-2.22
-4.77
-4.72
-2.15
1.52
4.32
4.90
3.26
0.64
-1.16
-0.94
1.23
4.05
5.80
5.39
3.00
0.03
-1.79
-1.44
0.74
3.29
4.43
3.21
0.00
-3.67
-5.95
-5.69
-3.17
0.16
2.41
2.27
-0.16
-3.46
-5.68
-5.41
-2.60
1.34
4.31
4.79
2.60
-0.85
-3.40
-3.45
-0.85
2.93
5.64
5.68
2.91
-1.17
-4.33
-4.87
-2.66
0.92
3.69
4.03
1.88
-1.36
-3.56
-3.20
-0.30
3.61
6.35
6.41
3.86
0.31
-2.11
-2.02
0.44
3.60
5.33
4.34
0.87
-3.37
-6.16
-6.14
-3.41
0.51
3.54
4.28
2.69
0.03
-1.96
-1.96
0.00
2.74
4.55
4.21
1.77
-1.50
-3.77
-3.74
-1.40
1.96
4.44
4.63
2.40
-1.06
-3.90
-4.68
-3.16
-0.44
1.71
1.87
-0.20
-3.47
-6.14
-6.77
-5.11
-2.21
0.15
0.53
-1.27
-4.08
-6.07
-5.77
-3.06
0.85
3.98
4.84
3.19
0.20
-2.26
-2.74
-1.00
1.91
4.20
4.50
2.66
-0.22
-2.31
-2.19
0.28
3.88
6.67
7.05
4.75
1.00
-2.23
-3.27
-1.78
1.09
3.38
3.51
1.13
-2.56
-5.53
-6.16
-4.17
-0.72
2.13
2.77
0.92
-2.15
-4.49
-4.48
-1.92
1.91
4.99
5.74
3.95
0.80
-1.78
-2.36
-0.70
2.04
4.06
4.03
1.82
-1.41
-3.87
-4.22
-2.37
0.50
2.57
2.44
0.05
-3.39
-5.98
-6.29
-4.18
-0.95
1.44
1.50
-0.90
-4.33
-6.73
-6.49
-3.44
0.97
4.56
5.62
3.85
0.50
-2.39
-3.21
-1.61
1.30
3.67
4.02
2.08
-1.05
-3.55
-3.91
-1.85
1.56
4.40
5.01
3.03
-0.49
-3.59
-4.55
-2.94
0.18
2.84
3.37
1.39
-1.94
-4.66
-5.14
-3.07
0.37
3.17
3.76
1.92
-1.06
-3.18
-2.90
-0.16
3.62
6.32
6.38
3.79
0.03
-2.77
-3.07
-0.87
2.44
4.82
4.82
2.40
-1.09
-3.68
-3.90
-1.59
2.08
5.20
6.22
4.76
1.77
-1.02
-2.07
-0.93
1.55
3.74
4.15
2.40
-0.59
-3.16
-3.82
-2.20
0.73
3.26
3.80
1.93
-1.38
-4.31
-5.17
-3.45
-0.13
2.79
3.50
1.40
-2.48
-6.05
-7.43
-5.98
-2.75
0.17
0.92
-0.99
-4.44
-7.34
-7.93
-5.82
-2.23
0.82
1.62
-0.17
-3.37
-6.01
-6.43
-4.26
-0.63
2.55
3.68
2.41
-0.16
-2.23
-2.30
-0.16
3.03
5.42
5.55
3.25
-0.27
-3.11
-3.78
-2.08
0.85
3.13
3.31
1.15
-2.16
-4.73
-5.01
-2.70
1.06
4.24
5.14
3.27
-0.29
-3.50
-4.56
-2.88
0.60
3.90
5.16
3.70
0.49
-2.50
-3.27
-1.10
3.07
7.15
9.06
8.01
4.96
2.08
1.30
3.25
6.80
9.62
9.72
6.66
1.83
-2.19
-3.23
-0.79
3.69
7.61
8.73
6.40
1.98
-1.99
-3.34
-1.40
2.47
5.74
6.20
3.30
-1.57
-5.88
-7.42
-5.73
-2.21
0.68
0.88
-1.99
-6.43
-9.84
-10.13
-6.80
-1.36
3.50
5.42
3.62
-0.71
-4.96
-6.63
-4.82
-0.52
3.75
5.54
3.91
0.01
-3.65
-4.76
-2.59
1.48
4.76
4.97
1.61
-3.64
-7.85
-8.59
-5.33
0.32
5.39
7.41
5.70
1.63
-2.09
-3.09
-0.62
3.96
8.09
9.40
7.16
2.61
-1.73
-3.52
-1.99
1.64
4.92
5.57
2.82
-2.11
-6.75
-8.85
-7.59
-4.09
-0.71
0.41
-1.39
-4.94
-7.79
-7.75
-4.17
1.65
6.90
8.99
6.90
1.81
-3.56
-6.38
-5.40
-1.53
2.77
4.91
3.83
0.51
-2.74
-3.66
-1.49
2.48
5.86
6.53
3.87
-0.81
-5.02
-6.58
-4.73
-0.58
3.46
5.16
3.63
-0.25
-4.18
-5.91
-4.41
-0.43
3.86
6.24
5.69
2.90
-0.19
-1.54
-0.42
2.20
4.31
4.03
0.93
-3.66
-7.44
-8.37
-5.97
-1.69
1.97
2.77
0.06
-4.70
-8.74
-9.59
-6.39
-0.52
5.11
7.74
6.28
1.89
-2.52
-4.19
-2.00
3.00
7.93
10.05
8.26
3.61
-1.27
-3.79
-2.97
0.13
3.12
3.67
1.07
-3.40
-7.23
-8.04
-5.10
0.26
5.28
7.29
5.16
-0.04
-5.61
-8.63
-7.64
-3.33
1.84
5.13
5.04
2.13
-1.43
-3.10
-1.64
2.31
6.56
8.71
7.66
4.22
0.69
-0.57
1.37
5.41
9.03
9.72
6.59
0.89
-4.70
-7.45
-6.38
-2.58
1.24
2.49
0.20
-4.49
-8.97
-10.71
-8.69
-4.00
0.96
3.73
3.22
0.26
-3.20
-5.04
-4.27
-1.52
1.43
2.78
1.67
-1.27
-4.28
-5.53
-4.12
-0.58
3.28
5.42
4.67
1.37
-2.74
-5.44
-5.44
-2.94
0.35
2.22
1.43
-1.53
-4.74
-5.87
-3.66
1.15
6.37
9.38
8.70
4.93
0.27
-2.76
-2.66
0.13
3.64
5.64
4.84
1.70
-1.94
-4.04
-3.55
-0.92
2.11
3.64
2.78
0.06
-2.82
-4.00
-2.70
0.34
3.25
4.11
2.14
-1.68
-5.19
-6.25
-3.95
0.70
5.44
7.97
7.21
3.92
0.23
-1.73
-0.89
2.06
5.16
6.42
4.94
1.40
-2.30
-4.15
-3.19
0.02
3.63
5.58
4.79
1.77
-1.75
-3.70
-2.96
-0.02
3.33
5.00
3.76
0.07
-4.26
-7.04
-6.92
-4.20
-0.61
1.72
1.54
-0.86
-3.82
-5.30
-4.17
-0.88
2.86
4.98
4.36
1.51
-1.82
-3.63
-2.85
-0.03
3.00
4.24
2.66
-1.09
-5.02
-6.99
-5.89
-2.33
1.72
4.07
3.61
0.83
-2.43
-4.10
-3.12
0.05
3.70
5.85
5.40
2.72
-0.70
-3.01
-3.08
-1.25
1.08
2.16
0.93
-2.22
-5.69
-7.61
-6.83
-3.73
0.00
2.35
2.09
-0.56
-4.00
-6.25
-6.07
-3.59
-0.26
2.06
2.19
0.25
-2.43
-4.04
-3.43
-0.66
3.03
5.91
6.75
5.54
3.43
1.97
2.33
4.31
6.57
7.41
5.70
1.77
-2.67
-5.39
-4.97
-1.58
2.97
6.18
6.33
3.36
-1.08
-4.51
-5.15
-2.86
0.88
3.82
4.32
2.30
-0.80
-2.98
-2.85
-0.58
2.21
3.50
2.03
-1.88
-6.32
-9.06
-8.67
-5.39
-1.09
1.91
2.11
-0.39
-3.87
-6.10
-5.63
-2.66
1.15
3.54
3.04
-0.15
-4.40
-7.42
-7.64
-5.08
-1.23
1.80
2.52
0.92
-1.61
-3.18
-2.53
0.18
3.48
5.45
4.89
1.96
-1.79
-4.36
-4.42
-1.99
1.52
4.13
4.51
2.59
-0.27
-2.16
-1.76
0.91
4.47
6.95
6.98
4.60
1.21
-1.27
-1.43
0.59
3.36
4.89
3.87
0.57
-3.29
-5.46
-4.43
-0.35
4.92
8.91
9.80
7.42
3.38
0.07
-0.70
1.30
4.64
7.09
7.06
4.45
0.70
-2.01
-2.27
-0.13
2.84
4.48
3.46
0.06
-3.90
-6.04
-4.82
-0.55
4.82
8.63
9.03
6.06
1.49
-2.14
-3.04
-1.18
1.70
3.29
1.96
-2.11
-7.07
-10.48
-10.71
-7.83
-3.63
-0.46
0.07
-2.09
-5.37
-7.62
-7.39
-4.69
-1.02
1.56
1.73
-0.35
-3.19
-4.70
-3.67
-0.35
3.62
6.10
5.74
2.79
-1.15
-3.97
-4.22
-1.91
1.62
4.50
5.36
4.04
1.60
-0.44
-0.94
0.25
2.15
3.33
2.79
0.47
-2.55
-4.77
-5.09
-3.43
-0.81
1.15
1.33
-0.38
-2.88
-4.54
-4.13
-1.58
1.95
4.71
5.34
3.72
0.90
-1.44
-2.08
-0.91
1.03
2.22
1.63
-0.68
-3.55
-5.44
-5.38
-3.55
-1.09
0.51
0.33
-1.46
-3.75
-5.10
-4.56
-2.26
0.76
3.06
3.59
2.24
-0.02
-1.80
-1.98
-0.35
2.22
4.29
4.71
3.23
0.77
-1.16
-1.42
0.13
2.47
3.95
3.42
0.86
-2.49
-4.88
-5.02
-2.91
0.18
2.47
2.61
0.57
-2.42
-4.59
-4.64
-2.44
0.86
3.56
4.34
2.91
0.19
-2.27
-3.22
-2.31
-0.30
1.48
1.94
0.90
-0.93
-2.23
-1.96
-0.07
2.63
4.70
5.00
3.37
0.79
-1.24
-1.47
0.31
3.03
5.04
4.99
2.62
-1.00
-4.07
-5.24
-4.26
-2.18
-0.70
-0.97
-2.95
-5.42
-6.68
-5.66
-2.58
1.17
3.84
4.27
2.64
0.22
-1.27
-0.70
1.90
5.28
7.70
7.81
5.46
1.85
-1.17
-2.13
-0.71
1.96
4.04
4.06
1.83
-1.45
-3.77
-3.63
-0.92
2.91
5.59
5.34
1.97
-3.09
-7.44
-9.06
-7.50
-3.93
-0.54
0.79
-0.41
-3.01
-5.05
-4.95
-2.48
1.07
3.69
3.91
1.66
-1.64
-3.89
-3.58
-0.74
3.11
5.63
5.16
1.70
-3.00
-6.31
-6.19
-2.47
3.09
7.70
9.14
7.04
2.98
-0.33
-0.73
2.15
6.66
10.15
10.46
7.28
2.31
-1.78
-2.78
-0.27
4.10
7.57
7.88
4.54
-0.86
-5.48
-7.02
-5.02
-1.01
2.26
2.63
-0.16
-4.36
-7.22
-6.69
-2.65
2.83
6.69
6.72
2.82
-2.94
-7.34
-8.04
-4.86
0.18
3.92
4.06
0.49
-4.71
-8.43
-8.34
-4.33
1.56
6.30
7.58
5.16
0.83
-2.68
-3.39
-1.19
2.14
4.03
2.75
-1.45
-6.40
-9.21
-8.02
-3.17
2.90
6.89
6.52
1.90
-4.65
-9.76
-10.96
-8.08
-3.23
0.53
1.00
-1.77
-5.53
-7.30
-5.08
0.72
7.51
11.90
11.68
7.12
0.90
-3.44
-3.56
0.42
5.99
9.73
9.39
5.10
-0.71
-4.87
-5.24
-1.99
2.61
5.57
4.95
1.02
-3.92
-6.97
-6.27
-2.16
3.01
6.18
5.33
0.67
-5.33
-9.38
-9.16
-4.64
1.81
6.79
7.74
4.43
-0.97
-5.16
-5.61
-2.15
3.09
6.89
6.90
3.04
-2.35
-6.03
-5.70
-1.36
4.63
8.91
9.12
5.15
-0.85
-5.65
-6.87
-4.18
0.67
4.80
6.02
3.97
0.24
-2.60
-2.62
0.27
4.27
6.82
6.01
1.93
-3.35
-7.02
-7.00
-3.38
1.68
5.25
5.17
1.39
-3.92
-7.79
-8.14
-4.86
-0.05
3.32
3.16
-0.55
-5.72
-9.26
-9.03
-5.07
0.56
4.76
5.45
2.64
-1.60
-4.35
-3.70
0.16
5.01
7.99
7.23
3.00
-2.42
-6.18
-6.31
-2.94
1.87
5.37
5.58
2.51
-1.86
-4.84
-4.66
-1.42
2.74
5.01
3.66
-0.98
-6.51
-9.78
-8.80
-3.86
2.70
7.54
8.42
5.28
0.08
-4.18
-5.29
-3.06
0.75
3.52
3.23
-0.15
-4.70
-7.70
-7.12
-3.06
2.32
6.00
5.79
1.80
-3.58
-7.01
-6.23
-1.41
4.83
8.95
8.60
4.04
-2.04
-6.07
-5.69
-1.20
4.75
8.72
8.49
4.43
-0.87
-4.09
-3.17
1.51
7.46
11.45
11.28
7.09
1.04
-3.83
-5.36
-3.46
0.11
2.80
2.83
0.27
-3.05
-4.74
-3.19
1.27
6.47
9.63
8.89
4.46
-1.33
-5.40
-5.60
-1.88
3.46
7.24
7.15
3.05
-2.82
-7.09
-7.24
-3.10
3.12
7.92
8.69
5.08
-0.91
-5.97
-7.57
-5.43
-1.47
1.28
0.57
-3.49
-8.58
-11.51
-10.10
-4.66
2.14
6.81
7.00
2.91
-2.78
-6.58
-6.27
-2.10
3.31
6.42
5.12
-0.18
-6.78
-11.13
-10.96
-6.49
-0.24
4.38
5.02
1.69
-3.41
-7.24
-7.64
-4.63
-0.26
2.73
2.54
-0.65
-4.83
-7.39
-6.79
-3.40
0.68
3.03
2.23
-1.22
-5.22
-7.36
-6.29
-2.48
2.13
5.15
5.23
2.63
-0.90
-3.20
-2.90
-0.18
3.36
5.69
5.47
2.87
-0.58
-2.91
-2.80
-0.37
2.92
5.14
5.05
2.80
-0.15
-1.89
-1.22
1.63
5.21
7.61
7.56
5.21
1.96
-0.29
-0.23
2.05
5.16
7.15
6.68
3.76
-0.14
-2.99
-3.34
-1.10
2.37
5.06
5.43
3.30
-0.17
-3.12
-4.13
-3.11
-1.20
-0.07
-0.87
-3.40
-6.26
-7.62
-6.37
-2.96
0.87
2.95
2.07
-1.28
-5.07
-6.85
-5.18
-0.43
5.30
9.37
10.07
7.48
3.43
0.37
-0.06
2.13
5.28
7.16
6.31
2.95
-1.22
-3.94
-3.76
-0.99
2.59
4.67
3.68
-0.11
-4.85
-8.07
-8.14
-5.16
-0.99
1.85
1.66
-1.46
-5.60
-8.13
-7.32
-3.25
2.10
5.94
6.39
3.46
-0.95
-4.10
-4.11
-1.01
3.38
6.55
6.71
3.96
0.00
-2.85
-3.01
-0.68
2.41
4.05
2.82
-0.90
-5.06
-7.14
-5.63
-0.88
4.89
8.80
8.98
5.58
0.75
-2.49
-2.15
1.61
6.57
9.71
9.05
4.89
-0.41
-3.83
-3.42
0.45
5.41
8.45
7.65
3.26
-2.47
-6.64
-7.38
-4.90
-1.35
0.61
-0.62
-4.64
-9.22
-11.68
-10.48
-6.18
-1.08
2.00
1.39
-2.42
-7.17
-10.08
-9.43
-5.54
-0.52
3.01
3.29
0.51
-3.47
-6.18
-6.02
-3.05
1.00
3.81
3.91
1.42
-1.98
-4.08
-3.55
-0.68
2.85
4.86
4.13
1.13
-2.33
-4.11
-2.97
0.62
4.77
7.30
6.89
3.92
0.23
-2.05
-1.53
1.44
5.10
7.29
6.73
3.70
-0.01
-2.24
-1.78
0.92
4.05
5.44
4.01
0.36
-3.59
-5.62
-4.68
-1.36
2.40
4.34
3.35
-0.04
-3.91
-6.05
-5.21
-1.89
2.01
4.30
3.73
0.79
-2.60
-4.29
-3.17
0.12
3.59
5.10
3.65
-0.04
-3.91
-5.82
-4.78
-1.44
2.27
4.27
3.53
0.59
-2.79
-4.56
-3.59
-0.22
3.93
6.83
7.29
5.49
2.89
1.34
1.93
4.28
6.82
7.63
5.71
1.67
-2.61
-4.99
-4.29
-1.12
2.49
4.29
3.07
-0.55
-4.43
-6.30
-4.92
-0.95
3.39
5.72
4.85
1.46
-2.24
-3.88
-2.38
1.51
5.55
7.34
5.84
1.88
-2.22
-4.10
-2.70
1.05
4.78
6.12
3.97
-0.71
-5.50
-8.03
-7.18
-3.76
0.03
1.94
0.91
-2.38
-5.98
-7.93
-7.33
-4.81
-2.09
-0.90
-2.04
-5.04
-8.49
-10.92
-11.50
-10.45
-8.79
-7.64
-7.55
-8.20
-8.52
-7.35
-4.10
0.79
6.04
10.06
11.78
11.24
9.53
8.14
8.12
9.46
11.00
11.25
9.29
5.45
1.22
-1.58
-1.87
0.00
2.54
3.91
3.11
0.54
-2.24
-3.51
-2.43
0.41
3.29
4.44
3.07
-0.10
-3.32
-4.77
-3.64
-0.59
2.66
4.28
3.34
0.41
-2.87
-4.68
-4.05
-1.32
2.02
4.31
4.48
2.54
-0.63
-3.97
-6.83
-9.15
-11.19
-13.05
-14.18
-13.70
-10.83
-5.48
1.40
8.06
12.69
14.14
12.40
8.62
4.46
1.40
0.11
0.27
0.89
0.97
0.08
-1.38
-2.45
-2.30
-0.75
1.50
3.19
3.20
1.24
-2.04
-5.24
-7.05
-6.93
-5.33
-3.45
-2.52
-3.04
-4.54
-5.81
-5.74
-3.94
-1.03
1.64
2.76
1.82
-0.59
-3.02
-3.91
-2.56
0.55
3.86
5.58
4.72
1.68
-1.86
-3.84
-3.02
0.30
4.42
7.22
7.38
5.14
2.19
0.48
1.13
3.73
6.53
7.73
6.44
3.27
0.07
-1.37
-0.30
2.53
5.21
5.94
4.09
0.56
-2.60
-3.46
-1.41
2.46
5.96
6.99
4.83
0.54
-3.72
-5.83
-4.88
-1.69
1.75
3.49
2.51
-0.53
-3.65
-4.86
-3.09
1.06
5.53
8.06
7.33
3.73
-0.73
-3.68
-3.74
-1.27
1.63
2.54
0.30
-4.42
-9.23
-11.53
-10.07
-5.69
-0.78
2.06
1.58
-1.44
-4.69
-5.78
-3.63
0.83
5.28
7.38
6.07
2.21
-1.91
-3.96
-2.86
0.68
4.42
6.06
4.53
0.61
-3.39
-5.11
-3.40
0.91
5.48
7.90
6.95
3.32
-0.84
-3.22
-2.71
0.08
3.18
4.50
3.15
-0.22
-3.68
-5.27
-4.13
-1.01
2.15
3.27
1.42
-2.63
-6.80
-8.83
-7.50
-3.46
1.21
4.12
3.87
0.91
-2.78
-4.83
-3.81
-0.16
4.06
6.42
5.49
1.78
-2.52
-4.92
-4.07
-0.55
3.40
5.39
4.35
1.01
-2.34
-3.45
-1.52
2.39
5.92
6.89
4.63
0.49
-3.10
-3.90
-1.33
3.17
6.98
7.67
4.52
-1.11
-6.46
-8.98
-7.72
-3.81
0.21
1.88
0.21
-3.74
-7.62
-9.12
-7.37
-3.39
0.41
1.80
-0.02
-3.88
-7.25
-7.80
-4.75
0.63
5.70
7.99
6.56
2.56
-1.53
-3.30
-1.83
1.93
5.75
7.44
6.13
2.65
-0.92
-2.42
-0.92
2.75
6.46
7.90
6.01
1.64
-2.89
-5.02
-3.52
0.77
5.37
7.65
6.30
2.19
-2.21
-4.45
-3.34
0.12
3.46
4.35
1.98
-2.46
-6.33
-7.23
-4.44
0.71
5.42
7.07
4.84
-0.05
-4.88
-7.01
-5.59
-1.85
1.56
2.15
-0.74
-5.59
-9.63
-10.39
-7.20
-1.58
3.73
6.27
5.21
1.85
-1.35
-2.20
0.07
4.26
7.96
9.00
6.60
1.88
-2.72
-4.85
-3.60
0.07
3.83
5.34
3.73
0.01
-3.50
-4.58
-2.63
1.10
4.18
4.40
1.34
-3.46
-7.33
-7.96
-4.89
0.19
4.44
5.32
2.16
-3.40
-8.38
-9.96
-7.09
-1.15
4.95
8.34
7.65
3.84
-0.52
-2.78
-1.68
1.88
5.46
6.70
4.61
0.30
-3.58
-4.58
-1.86
3.18
7.55
8.55
5.28
-0.76
-6.53
-9.04
-7.28
-2.63
1.97
3.75
1.77
-2.60
-6.61
-7.79
-5.45
-1.01
2.87
4.06
2.09
-1.55
-4.37
-4.46
-1.52
2.97
6.53
7.32
5.13
1.38
-1.59
-1.99
0.41
4.23
7.19
7.50
4.90
0.82
-2.53
-3.28
-1.17
2.50
5.46
5.92
3.52
-0.45
-3.80
-4.79
-3.11
-0.05
2.23
2.03
-0.81
-4.89
-7.98
-8.33
-5.78
-1.79
1.27
1.49
-1.36
-5.68
-8.98
-9.16
-5.86
-0.66
3.85
5.44
3.56
-0.30
-3.58
-4.03
-1.00
4.12
8.75
10.72
9.38
5.98
2.98
2.33
4.46
7.94
10.25
9.35
5.03
-1.02
-5.99
-7.57
-5.35
-0.97
2.86
3.83
1.43
-2.78
-6.27
-6.90
-4.22
0.18
3.78
4.57
2.13
-2.01
-5.34
-6.00
-3.68
0.03
2.63
2.18
-1.52
-6.88
-11.23
-12.37
-9.81
-4.88
-0.10
2.22
1.36
-1.62
-4.52
-5.28
-3.21
0.58
3.96
5.01
3.17
-0.34
-3.31
-3.88
-1.57
2.31
5.48
6.15
4.00
0.38
-2.45
-2.73
-0.25
3.58
6.56
6.95
4.55
0.76
-2.20
-2.53
0.08
4.38
8.25
9.88
8.74
5.78
2.83
1.42
2.05
3.83
5.15
4.64
2.03
-1.68
-4.81
-5.98
-4.93
-2.68
-0.93
-1.06
-3.22
-6.30
-8.55
-8.57
-6.26
-2.86
-0.23
0.19
-1.75
-4.76
-6.89
-6.65
-3.88
0.10
3.28
4.16
2.56
-0.27
-2.42
-2.57
-0.72
1.87
3.48
2.99
0.63
-2.17
-3.74
-3.03
-0.33
2.90
4.94
4.73
2.54
-0.28
-2.00
-1.57
0.77
3.70
5.52
5.20
2.99
0.25
-1.27
-0.55
2.06
5.04
6.53
5.49
2.30
-1.41
-3.70
-3.48
-1.12
1.82
3.49
2.82
0.16
-2.95
-4.81
-4.45
-2.28
0.25
1.51
0.68
-1.70
-4.16
-5.06
-3.66
-0.50
2.86
4.63
3.88
0.99
-2.57
-5.06
-5.38
-3.72
-1.30
0.37
0.32
-1.23
-3.12
-3.88
-2.70
0.11
3.21
5.00
4.50
1.96
-1.26
-3.44
-3.46
-1.43
1.43
3.46
3.56
1.79
-0.62
-2.05
-1.46
0.98
3.96
5.69
5.04
2.15
-1.57
-4.25
-4.58
-2.58
0.45
2.67
2.81
0.92
-1.70
-3.27
-2.62
0.06
3.30
5.22
4.58
1.61
-2.13
-4.61
-4.51
-1.96
1.51
3.94
3.96
1.67
-1.50
-3.66
-3.49
-1.13
2.03
4.06
3.72
1.09
-2.37
-4.77
-4.75
-2.28
1.32
4.15
4.81
3.15
0.27
-2.14
-2.79
-1.53
0.62
2.10
1.84
-0.24
-3.05
-5.07
-5.24
-3.58
-1.19
0.43
0.31
-1.37
-3.41
-4.22
-2.85
0.35
4.00
6.34
6.26
3.96
0.82
-1.50
-1.86
-0.36
1.78
3.09
2.63
0.64
-1.63
-2.71
-1.83
0.65
3.35
4.73
3.98
1.51
-1.31
-2.95
-2.59
-0.68
1.44
2.27
1.11
-1.50
-4.08
-5.09
-3.74
-0.53
2.99
5.16
4.98
2.76
-0.15
-2.07
-2.02
-0.19
2.16
3.44
2.73
0.26
-2.67
-4.47
-4.24
-2.25
0.20
1.56
0.94
-1.33
-3.90
-5.24
-4.47
-1.93
1.06
3.00
3.09
1.61
-0.15
-0.87
0.02
2.00
3.69
3.79
1.89
-1.20
-3.90
-4.76
-3.34
-0.50
2.11
2.95
1.54
-1.36
-4.08
-5.11
-3.90
-1.12
1.67
3.01
2.28
-0.04
-2.58
-3.95
-3.51
-1.62
0.56
1.73
1.28
-0.53
-2.68
-4.00
-3.87
-2.57
-1.04
-0.34
-1.00
-2.61
-4.11
-4.39
-2.99
-0.44
2.01
3.03
2.06
-0.46
-3.21
-4.81
-4.51
-2.57
-0.14
1.51
1.65
0.52
-0.80
-1.09
0.27
2.95
5.69
7.11
6.49
4.29
1.91
0.98
2.29
5.19
7.88
8.36
5.67
0.61
-4.69
-7.78
-7.38
-4.09
-0.00
2.43
1.80
-1.39
-5.13
-7.14
-6.16
-2.70
1.27
3.65
3.34
0.95
-1.55
-2.16
-0.06
3.96
7.74
9.16
7.44
3.61
-0.04
-1.27
0.73
4.83
8.67
9.97
7.87
3.50
-0.78
-2.74
-1.54
1.72
4.74
5.39
2.92
-1.50
-5.51
-6.94
-5.02
-0.90
3.04
4.53
2.76
-1.26
-5.17
-6.69
-4.95
-0.91
3.18
5.04
3.79
0.38
-3.00
-4.11
-2.10
1.98
5.79
7.04
4.81
0.18
-4.34
-6.35
-4.76
-0.58
3.76
5.88
4.72
1.12
-2.70
-4.60
-3.73
-1.05
1.42
1.80
-0.37
-3.89
-6.53
-6.47
-3.42
1.10
4.57
4.86
1.53
-3.74
-8.14
-9.15
-6.04
-0.36
4.91
7.03
4.96
-0.00
-4.95
-7.18
-5.52
-1.06
3.54
5.75
4.59
1.10
-2.24
-3.08
-0.66
3.77
7.73
8.96
6.84
2.71
-0.99
-2.20
-0.51
2.53
4.54
3.62
-0.40
-5.73
-9.81
-10.67
-8.16
-3.94
-0.50
0.29
-1.83
-5.36
-7.98
-8.00
-5.17
-0.93
2.46
3.25
1.30
-1.94
-4.14
-3.46
0.22
5.27
9.13
9.76
6.91
2.30
-1.40
-2.03
0.81
5.41
9.17
9.99
7.52
3.32
-0.14
-0.98
0.87
3.80
5.49
4.34
0.50
-4.14
-7.13
-6.80
-3.27
1.53
4.92
4.97
1.51
-3.72
-7.98
-9.08
-6.59
-2.01
1.98
3.14
1.01
-2.88
-5.84
-5.54
-1.63
4.06
8.58
9.56
6.66
1.83
-1.89
-2.27
0.79
5.08
7.45
5.77
0.18
-6.72
-11.39
-11.40
-6.71
0.10
5.37
6.35
2.65
-3.53
-8.81
-10.55
-8.25
-3.74
0.04
0.83
-1.51
-5.02
-6.89
-5.15
-0.03
6.01
9.77
9.07
4.24
-2.03
-6.03
-5.26
0.07
7.08
11.72
11.24
5.74
-1.87
-7.44
-8.14
-4.00
2.24
6.80
7.13
3.39
-1.81
-5.11
-4.39
-0.00
5.41
8.64
7.71
2.96
-3.03
-6.97
-6.76
-2.49
3.42
7.64
7.99
4.47
-0.68
-4.27
-4.09
-0.37
4.54
7.40
6.02
0.77
-5.65
-9.81
-9.31
-4.38
2.26
7.09
7.64
3.94
-1.55
-5.51
-5.77
-2.46
2.01
4.47
3.07
-1.64
-6.93
-9.58
-7.82
-2.61
3.04
5.61
3.30
-2.86
-9.47
-12.82
-10.87
-4.56
2.86
7.68
7.78
3.73
-1.49
-4.43
-3.02
2.30
8.84
13.18
13.19
8.98
2.95
-1.64
-2.52
0.15
4.15
6.31
4.52
-0.78
-6.85
-10.27
-8.87
-3.29
3.32
7.24
6.21
0.88
-5.55
-9.35
-8.46
-3.63
2.07
5.21
4.19
0.03
-4.29
-5.69
-2.92
2.60
7.74
9.37
6.26
-0.22
-6.81
-10.24
-8.98
-4.12
1.30
4.14
2.89
-1.52
-6.24
-8.36
-6.74
-2.62
0.97
1.20
-2.67
-8.76
-13.52
-13.71
-8.39
0.42
8.84
13.17
11.84
6.37
0.33
-2.75
-1.19
3.68
8.49
9.87
6.49
-0.15
-6.42
-8.81
-6.09
0.14
6.14
8.32
5.50
-0.60
-6.43
-8.64
-6.19
-0.82
4.21
5.91
3.53
-1.21
-5.15
-5.72
-2.32
3.36
8.29
9.98
7.77
3.23
-0.78
-1.82
0.67
5.08
8.45
8.25
4.02
-2.28
-7.30
-8.16
-4.24
2.43
8.20
9.84
6.42
-0.09
-5.94
-7.87
-4.91
1.07
6.43
7.96
4.76
-1.28
-6.62
-8.19
-5.30
0.01
4.16
4.20
-0.26
-6.83
-11.75
-12.11
-7.69
-1.12
3.77
4.13
-0.13
-6.32
-10.57
-10.10
-4.82
2.69
8.62
10.14
6.97
1.32
-3.36
-4.50
-1.80
2.75
6.07
5.87
2.08
-3.18
-6.74
-6.29
-1.73
4.74
9.74
10.67
7.06
0.89
-4.53
-6.41
-4.03
0.98
5.43
6.63
3.93
-0.89
-4.70
-4.92
-1.16
4.36
8.26
7.83
2.91
-3.90
-8.80
-8.89
-3.94
3.27
8.65
9.16
4.40
-3.00
-8.86
-10.08
-6.20
0.34
5.55
6.38
2.49
-3.79
-8.60
-9.03
-4.77
1.99
7.70
9.61
7.32
2.74
-1.20
-2.22
-0.06
3.41
5.60
4.70
0.87
-3.71
-6.29
-5.10
-0.44
5.26
8.85
8.37
4.11
-1.45
-4.91
-4.26
0.05
5.31
7.99
6.02
0.09
-6.88
-11.14
-10.57
-5.83
0.10
3.58
2.60
-1.97
-7.08
-9.30
-6.89
-0.95
5.20
8.10
5.98
-0.10
-6.75
-10.41
-9.10
-3.61
2.97
7.10
6.77
2.51
-2.95
-6.30
-5.68
-1.61
3.27
5.77
4.27
-0.41
-5.45
-7.58
-5.26
0.52
6.69
9.92
8.67
3.98
-1.06
-3.19
-0.99
4.30
9.51
11.34
8.38
1.88
-4.88
-8.63
-7.74
-3.31
1.60
3.82
1.80
-3.40
-8.77
-11.12
-9.02
-3.54
2.27
5.08
3.41
-1.72
-7.23
-9.81
-7.90
-2.49
3.43
6.53
5.31
0.76
-4.19
-6.27
-4.04
1.32
6.73
8.89
6.33
0.45
-5.42
-7.82
-5.18
1.04
7.40
10.40
8.46
2.98
-2.66
-5.09
-2.87
2.63
8.09
10.36
8.22
3.03
-2.03
-4.15
-2.39
1.60
4.73
4.31
-0.07
-6.26
-10.72
-10.52
-5.25
2.75
9.57
11.88
8.81
2.38
-3.78
-6.35
-4.35
0.53
5.01
6.23
3.50
-1.22
-4.62
-4.13
0.48
6.81
11.19
10.89
5.74
-1.78
-7.82
-9.62
-6.85
-1.84
1.88
1.68
-2.63
-8.84
-13.52
-14.07
-10.16
-3.89
1.43
3.19
0.94
-3.37
-6.60
-6.33
-2.24
3.60
8.08
8.85
5.71
0.80
-2.69
-2.42
1.77
7.75
12.24
12.75
8.98
2.85
-2.38
-4.14
-1.86
2.72
6.60
7.25
4.14
-0.97
-5.08
-5.71
-2.41
3.04
7.54
8.66
5.97
1.31
-2.35
-2.73
0.32
4.84
7.84
7.16
2.88
-2.83
-7.00
-7.66
-5.02
-1.27
0.79
-0.46
-4.45
-8.76
-10.60
-8.50
-3.18
2.86
6.75
6.86
3.71
-0.54
-3.28
-3.02
-0.18
3.36
5.34
4.48
1.22
-2.57
-4.72
-3.99
-0.88
2.71
4.61
3.52
-0.12
-4.43
-7.21
-7.09
-4.33
-0.64
1.85
1.82
-0.60
-3.82
-5.85
-5.36
-2.47
1.35
4.16
4.68
2.96
0.30
-1.48
-1.27
0.75
3.19
4.30
3.07
-0.05
-3.48
-5.31
-4.46
-1.36
2.28
4.46
3.96
1.09
-2.58
-5.08
-5.24
-3.25
-0.56
1.07
0.67
-1.47
-3.90
-4.97
-3.89
-1.17
1.64
2.87
1.75
-1.14
-4.27
-6.04
-5.74
-3.92
-2.03
-1.54
-3.06
-6.02
-8.98
-10.60
-10.31
-8.73
-7.27
-7.23
-9.10
-12.27
-15.48
-17.45
-17.84
-17.30
-17.16
-18.62
-22.01
-26.58
-31.02
-34.16
-35.76
-36.72
-38.62
-42.79
-49.64
-58.22
-66.79
-73.73
-78.50
-81.91
-85.76
-91.79
-100.68
-111.75
-123.23
-133.32
-141.18
-147.55
-154.17
-162.80
-174.21
-187.81
-201.98
-214.93
-225.53
-233.53
-239.24
-242.22
-240.91
-233.02
-216.73
-191.68
-159.31
-121.92
-81.20
-37.30
11.85
69.27
137.12
215.03
299.58
384.88
464.05
530.87
580.09
608.85
616.30
602.94
569.99
518.97
451.76
371.31
284.89
198.00
116.24
44.87
-11.61
-50.34
-70.21
-71.80
-56.77
-28.39
7.72
44.51
74.19
90.89
92.88
84.14
70.83
62.26
66.50
86.61
120.05
159.37
195.75
222.18
235.35
235.28
224.24
204.83
178.67
148.66
113.70
71.50
19.33
-44.37
-119.95
-205.55
-296.43
-382.87
-451.24
-488.52
-486.67
-450.47
-391.65
-326.05
-268.02
-225.68
-198.33
-178.41
-156.40
-123.14
-75.09
-13.44
57.19
131.34
204.22
272.59
333.60
383.59
419.00
437.21
438.61
426.65
408.28
388.80
371.62
357.58
344.56
329.33
308.36
279.91
244.70
204.46
161.00
115.79
68.77
17.45
-39.46
-103.36
-174.26
-249.63
-326.03
-399.55
-465.93
-521.71
-565.47
-596.87
-616.57
-625.10
-621.45
-604.84
-574.68
-530.66
-466.60
-380.68
-275.07
-156.31
-43.16
51.91
120.30
156.57
161.37
137.48
90.37
28.95
-36.83
-94.39
-134.96
-157.01
-164.95
-165.42
-163.92
-163.35
-163.70
-164.15
-164.53
-165.42
-168.31
-174.14
-182.39
-191.97
-202.31
-213.69
-227.07
-243.39
-262.84
-284.80
-307.33
-327.34
-341.59
-347.44
-343.29
-330.45
-308.97
-278.81
-240.00
-192.73
-137.34
-74.79
-6.92
63.66
134.13
201.92
264.74
320.99
370.11
412.19
447.52
476.11
497.34
510.46
514.69
509.24
494.05
470.18
439.66
405.01
368.48
328.79
285.20
237.27
185.13
130.24
75.38
24.25
-19.63
-53.98
-78.40
-93.73
-101.83
-104.34
-101.79
-93.17
-76.46
-49.68
-11.43
38.30
98.29
165.47
234.59
298.39
348.55
377.89
383.27
367.62
339.57
310.98
292.21
288.43
298.25
315.45
332.55
343.97
347.48
343.06
330.74
308.71
273.59
222.90
157.90
85.02
14.26
-44.40
-85.17
-108.58
-120.77
-130.34
-144.03
-164.18
-188.84
-214.22
-237.48
-258.67
-280.23
-305.54
-336.81
-373.53
-412.72
-449.97
-480.92
-502.19
-513.04
-513.57
-504.16
-484.90
-455.58
-416.09
-366.47
-308.22
-244.40
-179.19
-117.05
-62.05
-17.17
16.31
38.83
52.37
59.67
63.58
66.21
68.66
70.96
72.75
73.92
75.16
77.92
83.86
94.27
109.96
131.53
159.74
195.10
236.85
281.73
323.46
353.59
363.95
349.67
311.41
255.17
190.15
125.37
67.23
19.08
-17.25
-39.57
-44.82
-30.65
1.69
45.46
89.24
120.38
129.81
115.36
82.14
39.33
-4.36
-44.41
-81.59
-119.71
-161.73
-206.42
-247.39
-276.01
-286.10
-277.73
-257.13
-232.87
-210.95
-191.46
-169.24
-138.13
-96.04
-47.21
-0.38
36.63
61.07
76.35
89.24
105.60
127.58
153.21
178.94
201.85
222.21
242.93
267.80
299.84
338.30
380.50
422.36
459.61
488.30
506.35
513.36
509.87
496.60
473.96
442.24
401.80
356.94
309.54
261.39
214.11
168.51
124.14
79.38
32.18
-19.05
-74.38
-132.53
-190.31
-242.75
-285.58
-316.56
-335.85
-345.70
-348.87
-347.30
-341.72
-331.15
-314.16
-290.61
-262.72
-235.17
-214.63
-208.22
-222.03
-260.05
-322.37
-404.20
-495.70
-583.14
-652.04
-692.35
-701.55
-685.93
-658.13
-631.44
-614.26
-606.94
-602.72
-587.21
-548.95
-482.21
-388.00
-272.64
-144.70
-12.65
116.38
236.42
341.99
427.44
488.86
525.31
539.42
536.80
524.34
508.37
492.99
479.36
465.77
449.74
429.59
405.44
379.17
353.28
330.22
311.12
295.12
279.59
261.63
238.98
210.86
178.98
144.21
107.57
69.98
31.40
-8.74
-50.75
-94.54
-139.90
-185.42
-231.03
-275.87
-317.06
-349.52
-366.64
-362.91
-336.54
-290.48
-231.45
-167.56
-107.07
-53.95
-11.52
17.25
30.41
28.78
17.15
3.56
-3.54
1.46
18.76
43.00
66.79
84.60
95.14
101.14
107.23
116.92
131.25
148.31
163.44
172.90
175.00
170.53
162.52
153.89
147.32
144.45
145.11
146.48
143.74
131.10
103.89
60.68
5.69
-51.07
-96.71
-120.08
-116.26
-88.61
-47.69
-8.46
15.43
14.48
-12.25
-57.28
-108.25
-153.54
-186.31
-205.84
-213.20
-212.42
-207.35
-199.31
-187.70
-171.93
-153.15
-137.05
-124.40
-112.15
-95.47
-70.01
-34.01
10.04
57.47
101.66
137.83
165.81
188.59
209.93
231.79
252.78
267.84
270.70
256.37
223.87
178.17
127.86
81.91
47.08
26.71
18.49
17.06
15.27
5.84
-16.67
-54.45
-103.76
-155.66
-198.14
-220.53
-218.33
-196.00
-165.71
-142.17
-136.90
-153.51
-186.10
-222.04
-247.50
-253.37
-239.17
-211.99
-181.84
-155.39
-131.87
-104.45
-65.84
-15.41
38.20
80.89
101.75
101.12
91.58
91.45
113.69
157.96
210.60
252.52
269.32
258.12
226.42
185.22
141.58
94.70
38.28
-32.72
-116.08
-200.79
-270.24
-309.17
-310.19
-275.48
-215.57
-144.61
-75.24
-14.66
36.42
82.34
129.35
181.15
238.43
298.30
355.25
403.19
437.77
457.28
461.96
455.73
437.45
403.24
348.62
271.42
173.52
61.27
-55.77
-165.70
-256.46
-321.32
-359.96
-378.86
-387.62
-394.57
-403.61
-413.99
-422.47
-426.56
-426.98
-425.98
-426.30
-429.00
-432.95
-435.32
-432.81
-422.64
-403.31
-377.47
-345.62
-307.89
-263.85
-212.79
-154.00
-87.12
-12.41
68.92
154.71
243.17
330.88
414.75
491.59
556.92
604.48
627.08
619.20
580.05
515.65
437.14
357.64
287.67
232.29
190.95
159.89
135.15
114.45
97.21
83.16
71.46
60.44
48.35
34.49
19.57
5.38
-6.05
-13.56
-17.46
-19.21
-20.71
-23.48
-28.00
-33.60
-38.87
-42.39
-43.41
-42.24
-39.91
-37.72
-36.57
-36.64
-37.36
-37.75
-36.96
-34.75
-31.53
-28.11
-25.31
-23.50
-22.46
-21.53
-19.95
-17.23
-13.53
-9.24
-5.38
-2.68
-1.23
-0.51
0.36
2.06
5.09
9.14
13.22
16.39
17.57
15.86
10.88
2.90
-6.85
-16.51
-24.00
-28.21
-29.36
-29.39
-31.44
-38.59
-52.44
-71.86
-93.30
-111.89
-123.17
-124.62
-116.28
-100.26
-79.37
-57.08
-35.50
-15.54
2.44
18.21
31.24
40.65
46.11
47.89
46.62
43.90
41.33
40.16
41.14
43.77
47.02
49.44
50.11
48.67
45.98
43.57
42.57
43.26
44.80
46.17
47.04
48.03
49.61
51.01
49.72
43.03
29.96
13.05
-2.12
-9.87
-7.74
1.74
12.35
17.31
13.33
1.86
-12.30
-24.25
-31.68
-35.47
-38.00
-40.98
-44.39
-46.93
-46.90
-43.83
-38.70
-33.37
-29.83
-29.08
-30.81
-33.64
-35.86
-36.27
-34.67
-31.93
-29.54
-28.74
-30.07
-33.06
-36.61
-39.47
-40.91
-41.05
-40.79
-41.35
-43.53
-47.47
-52.45
-57.36
-61.19
-63.54
-64.93
-66.47
-69.40
-74.22
-80.57
-87.11
-92.00
-93.66
-91.32
-85.20
-76.26
-65.53
-53.14
-38.52
-20.68
1.20
27.42
57.59
90.90
125.90
159.33
187.20
204.37
206.07
190.25
159.35
120.16
81.47
50.78
31.72
23.00
20.60
20.33
19.89
19.18
19.14
20.30
21.94
22.55
21.05
17.42
12.86
9.00
7.38
8.44
11.46
15.06
17.70
18.49
17.42
15.29
13.30
12.65
13.95
17.11
21.36
25.58
28.81
30.50
30.70
29.94
29.19
29.27
30.44
32.32
33.83
33.56
30.22
23.38
13.24
1.23
-10.70
-20.91
-28.27
-32.79
-35.16
-36.34
-37.41
-39.46
-43.45
-49.99
-58.63
-67.20
-72.05
-69.37
-57.20
-36.40
-12.49
7.97
19.89
21.84
16.14
7.14
-1.20
-6.91
-10.29
-12.73
-15.00
-16.74
-16.99
-15.04
-11.22
-6.82
-3.38
-2.31
-3.58
-6.20
-8.74
-9.98
-9.45
-7.56
-5.33
-3.91
-4.00
-5.58
-7.97
-10.30
-11.86
-12.51
-12.63
-12.93
-13.99
-16.01
-18.64
-21.38
-23.71
-25.53
-27.15
-29.17
-32.15
-36.21
-40.92
-45.48
-49.19
-51.82
-53.78
-56.02
-59.57
-65.06
-72.29
-80.15
-87.13
-92.02
-94.30
-94.37
-93.17
-91.47
-89.35
-85.84
-79.26
-67.50
-49.11
-23.43
9.38
48.15
90.21
130.89
163.22
180.89
180.36
162.69
133.78
102.22
75.87
58.85
50.90
48.33
47.33
45.75
43.59
41.87
41.19
40.92
39.61
36.09
30.26
23.44
17.44
13.80
12.88
13.87
15.22
15.42
13.62
10.00
5.65
1.90
-0.24
-0.53
0.49
1.82
2.50
1.99
0.37
-1.75
-3.60
-4.59
-4.62
-3.93
-3.04
-2.44
-2.38
-2.85
-3.56
-4.19
-4.46
-4.33
-3.89
-3.35
-2.89
-2.60
-2.48
-2.47
-2.48
-2.50
-2.52
-2.58
-2.68
-2.80
-2.92
-2.96
-2.93
-2.84
-2.75
-2.71
-2.76
-2.90
-3.06
-3.19
-3.23
-3.16
-3.02
-2.92
-2.96
-3.20
-3.62
-4.11
-4.48
-4.62
-4.48
-4.21
-4.06
-4.29
-5.04
-6.22
-7.52
-8.52
-8.92
-8.69
-8.16
-7.87
-8.38
-9.98
-12.44
-15.17
-17.34
-18.35
-18.11
-17.20
-16.56
-17.17
-19.51
-23.26
-27.43
-30.81
-32.59
-32.64
-31.71
-30.88
-31.10
-32.91
-36.51
-41.96
-48.93
-56.19
-61.21
-60.49
-50.86
-31.33
-4.11
25.82
52.35
70.85
79.74
80.50
76.30
70.24
64.19
58.85
54.53
51.62
50.63
51.64
53.80
55.55
55.60
53.46
49.63
45.69
43.15
43.06
45.86
51.29
58.09
63.66
64.39
57.22
41.66
21.08
2.04
-8.46
-6.50
6.60
24.93
40.63
48.14
46.32
37.94
27.28
17.24
8.26
-1.34
-12.43
-24.84
-36.77
-45.87
-50.83
-51.61
-49.67
-47.12
-45.53
-45.40
-46.25
-46.82
-45.99
-43.20
-38.82
-33.94
-29.82
-27.31
-26.46
-26.77
-27.25
-27.04
-25.71
-23.37
-20.66
-18.32
-16.92
-16.63
-17.21
-18.13
-18.76
-18.66
-17.75
-16.30
-14.86
-14.01
-14.12
-15.24
-16.98
-18.70
-19.70
-19.60
-18.51
-17.01
-15.97
-16.13
-17.75
-20.35
-22.76
-23.65
-22.03
-17.64
-11.03
-3.30
4.70
12.47
20.32
28.98
39.16
51.33
65.43
81.19
97.69
112.91
123.44
125.06
114.29
90.25
55.94
17.63
-17.08
-42.42
-56.33
-60.61
-59.05
-55.13
-50.40
-44.16
-35.78
-25.18
-13.65
-3.40
3.78
7.44
8.67
9.37
11.51
15.84
21.98
28.37
32.96
34.23
31.80
26.58
20.33
14.83
10.78
7.81
4.53
-0.85
-9.56
-21.96
-37.61
-55.70
-74.70
-92.99
-107.55
-114.53
-110.55
-94.48
-68.68
-38.67
-11.13
8.77
19.19
21.90
20.48
18.12
16.25
14.55
12.17
8.86
5.52
3.39
3.34
5.06
7.29
8.55
7.72
4.78
0.66
-3.29
-5.95
-6.84
-6.34
-5.49
-5.41
-6.84
-9.79
-13.64
-17.46
-20.45
-22.26
-23.10
-23.64
-24.67
-26.69
-29.73
-33.29
-36.54
-38.74
-39.37
-38.22
-35.69
-32.34
-28.65
-24.79
-20.44
-15.00
-8.03
0.64
10.65
20.86
29.92
36.69
40.70
42.42
43.00
43.87
46.15
50.27
55.60
60.96
65.41
68.52
70.73
73.08
76.56
80.93
87.23
95.68
106.01
116.77
124.84
126.00
116.34
94.43
62.78
27.63
-3.78
-25.66
-36.16
-37.37
-33.43
-28.19
-23.47
-19.06
-13.88
-7.65
-1.20
4.09
7.21
8.43
8.99
10.34
13.54
18.54
24.14
28.65
30.61
29.21
24.72
18.14
10.69
3.29
-3.73
-10.68
-18.08
-25.81
-34.03
-42.10
-49.07
-54.09
-56.70
-57.03
-55.71
-53.91
-52.10
-50.76
-49.86
-49.12
-48.14
-46.73
-45.01
-43.36
-42.27
-41.99
-42.69
-44.02
-45.47
-46.50
-46.88
-46.84
-46.93
-47.87
-50.10
-53.68
-58.08
-62.38
-65.68
-67.61
-68.41
-68.94
-70.12
-72.45
-75.74
-78.77
-80.30
-78.52
-72.62
-62.90
-50.59
-37.22
-24.26
-13.14
-4.94
-0.17
1.90
3.66
9.06
21.86
43.74
72.91
104.13
130.71
147.37
152.38
147.68
137.45
125.52
113.86
102.46
90.37
77.08
63.20
50.12
38.58
29.15
21.11
13.16
4.24
-5.78
-16.14
-25.66
-33.30
-38.65
-42.13
-44.97
-48.38
-53.13
-59.28
-66.22
-72.90
-78.49
-82.52
-85.09
-86.76
-88.17
-89.58
-90.85
-91.40
-90.37
-87.05
-80.98
-71.81
-59.73
-45.14
-28.66
-10.91
7.42
25.67
42.53
57.55
70.13
79.92
86.73
90.64
91.96
91.11
88.66
85.09
81.40
77.60
73.83
70.21
66.80
63.62
60.65
57.88
55.27
52.88
50.69
48.72
46.97
45.43
44.08
42.88
41.85
40.96
40.28
39.73
39.33
38.97
38.48
37.66
36.29
34.49
31.81
28.00
22.87
16.40
8.57
-0.55
-10.79
-21.86
-33.77
-45.52
-56.41
-65.87
-73.37
-78.76
-82.01
-83.30
-82.86
-80.76
-77.03
-71.61
-64.46
-55.50
-44.96
-33.17
-20.52
-7.53
5.34
17.72
29.26
39.22
48.06
56.21
64.18
72.06
79.16
83.96
84.55
79.45
68.49
53.56
37.19
22.46
11.60
5.39
2.56
0.99
-1.38
-5.73
-11.89
-18.83
-25.23
-30.15
-33.47
-35.52
-36.75
-37.11
-36.26
-34.49
-33.09
-34.17
-39.06
-46.73
-53.42
-54.28
-46.32
-30.54
-11.87
3.32
10.84
10.95
7.54
6.07
9.52
16.84
24.17
27.77
26.32
21.39
16.07
12.91
12.83
15.06
18.13
20.81
22.61
23.65
24.29
24.81
25.49
26.29
27.13
28.05
29.47
32.38
37.64
44.80
51.26
52.70
44.45
24.10
-6.66
-42.14
-74.47
-96.83
-106.03
-103.20
-92.37
-78.04
-63.06
-47.71
-32.19
-16.40
-1.15
12.03
21.89
28.24
31.98
34.60
37.68
41.70
46.36
50.61
53.24
53.47
51.21
46.86
41.29
35.28
29.03
22.48
15.20
6.71
-3.23
-14.05
-25.51
-36.83
-47.07
-55.38
-61.10
-64.11
-64.86
-64.69
-64.53
-65.39
-67.51
-70.27
-72.60
-72.58
-69.06
-62.06
-53.04
-44.23
-38.01
-35.60
-36.59
-39.13
-40.79
-40.07
-36.82
-32.81
-30.61
-32.41
-38.96
-49.47
-62.31
-75.47
-86.44
-91.55
-86.40
-67.35
-34.28
7.63
48.51
77.51
88.02
80.63
64.37
51.13
49.13
59.13
75.25
89.60
97.15
98.01
96.10
95.53
97.34
99.35
98.06
91.14
79.09
65.27
52.72
43.81
38.79
35.79
31.94
24.97
14.29
1.32
-11.21
-20.51
-24.86
-24.26
-20.42
-15.84
-12.74
-12.05
-13.23
-14.68
-14.70
-12.26
-7.55
-1.90
2.75
4.89
4.06
1.02
-2.75
-5.90
-7.85
-8.99
-10.29
-12.67
-16.67
-22.50
-30.44
-40.82
-52.96
-65.48
-75.46
-79.35
-74.70
-61.81
-43.97
-26.25
-13.19
-6.88
-6.68
-10.11
-14.72
-19.28
-23.86
-28.83
-33.98
-38.23
-40.39
-39.99
-37.50
-34.22
-31.61
-30.45
-30.39
-29.97
-27.52
-22.15
-14.23
-5.24
2.92
8.84
12.45
15.28
19.74
27.99
40.72
56.75
73.55
88.31
99.05
105.34
108.44
110.49
113.30
117.66
123.52
130.12
135.69
136.89
129.17
108.45
73.58
28.17
-19.48
-58.86
-81.49
-84.01
-69.71
-48.27
-30.00
-20.72
-20.17
-24.14
-28.41
-31.31
-33.90
-38.19
-44.91
-52.58
-58.50
-60.48
-58.10
-52.94
-47.74
-44.94
-45.70
-49.59
-54.72
-58.90
-60.64
-59.73
-57.25
-54.82
-53.70
-54.27
-56.00
-57.58
-57.61
-55.13
-49.67
-41.55
-31.32
-19.40
-6.00
8.82
24.91
41.84
57.89
72.14
83.79
92.44
98.23
101.68
103.43
103.97
103.48
101.99
99.45
95.69
90.70
84.67
78.31
72.95
70.47
72.34
78.05
84.40
85.52
75.17
50.02
11.84
-32.79
-75.25
-108.32
-128.34
-134.98
-129.43
-112.69
-85.46
-49.45
-8.46
31.39
63.93
85.77
97.59
102.85
104.62
103.04
95.39
78.23
50.67
16.11
-18.71
-46.71
-63.74
-69.92
-68.65
-64.44
-60.32
-57.00
-53.57
-48.98
-43.27
-37.66
-33.69
-32.17
-32.65
-33.75
-33.82
-31.83
-27.83
-22.82
-18.19
-15.09
-13.90
-14.13
-14.73
-14.65
-13.31
-10.76
-7.67
-4.82
-2.83
-1.80
-1.42
-1.16
-0.61
0.33
1.48
2.55
3.36
3.97
4.68
5.74
7.21
8.84
10.09
10.53
10.09
9.12
8.30
8.32
9.43
11.17
12.52
12.09
9.02
3.17
-4.74
-13.44
-21.84
-29.28
-35.91
-42.03
-48.62
-56.23
-65.15
-75.52
-87.03
-98.32
-106.55
-108.07
-99.12
-78.56
-48.77
-15.44
14.45
35.54
46.01
47.79
44.79
40.80
37.57
34.93
31.94
28.08
23.89
20.53
18.90
18.97
19.86
20.33
19.29
16.59
12.73
8.61
5.11
2.76
1.58
1.30
1.29
0.97
0.03
-1.75
-4.40
-7.67
-11.09
-13.97
-15.54
-15.33
-13.35
-9.89
-5.83
-2.01
1.33
4.54
8.44
14.03
21.88
31.37
42.09
53.25
63.40
70.47
71.98
66.04
52.55
33.63
12.45
-6.76
-20.29
-26.14
-24.89
-19.56
-14.18
-11.88
-13.36
-16.31
-16.98
-12.19
-1.44
12.56
25.28
32.73
33.47
29.04
22.90
18.07
15.45
14.05
12.54
10.03
7.48
6.25
6.96
9.22
11.77
13.19
12.96
11.62
10.67
11.16
13.69
18.12
23.70
29.30
34.29
38.73
43.18
48.55
55.78
65.46
77.20
88.82
96.14
94.21
79.27
50.75
12.30
-28.95
-64.97
-89.78
-100.79
-100.44
-93.51
-84.39
-75.37
-66.72
-57.96
-49.06
-40.97
-35.02
-32.04
-31.54
-32.04
-31.83
-29.71
-25.64
-20.58
-15.88
-12.68
-11.49
-11.84
-12.66
-12.80
-11.59
-9.05
-5.83
-2.80
-0.77
0.02
-0.14
-0.64
-0.80
-0.23
1.06
2.76
4.41
5.65
6.35
6.60
6.71
6.96
7.57
8.55
9.76
10.97
12.01
12.77
13.19
13.23
12.89
12.22
11.24
10.00
8.66
7.40
6.45
5.96
6.04
6.67
7.81
9.09
10.19
10.76
10.44
8.92
6.02
1.71
-3.94
-10.56
-17.50
-24.62
-31.55
-37.89
-43.38
-47.81
-50.96
-53.21
-54.02
-53.31
-51.06
-47.28
-42.05
-35.55
-28.06
-19.50
-10.76
-2.19
5.76
12.77
18.64
23.28
26.73
29.11
30.61
31.35
31.72
31.87
31.93
32.01
32.15
32.39
32.73
33.18
33.66
34.27
34.96
35.75
36.63
37.62
38.63
39.60
40.41
40.90
40.93
40.21
38.59
35.93
32.14
27.22
21.29
14.55
7.27
0.13
-6.71
-12.93
-18.24
-22.46
-25.49
-27.35
-28.15
-28.27
-27.71
-26.71
-25.44
-24.03
-22.58
-21.16
-19.79
-18.49
-17.27
-16.06
-14.91
-13.80
-12.74
-11.73
-10.77
-9.86
-9.00
-8.17
-7.36
-6.60
-5.89
-5.22
-4.60
-4.03
-3.51
-3.03
-2.58
-2.13
-1.73
-1.38
-1.14
-1.01
-1.00
-1.05
-1.13
-1.19
-1.17
-1.11
-1.06
-1.11
-1.27
-1.57
-1.95
-2.33
-2.65
-2.85
-2.97
-3.12
-3.45
-4.01
-4.80
-5.71
-6.55
-7.17
-7.45
-7.51
-7.62
-8.15
-9.30
-11.02
-13.03
-14.89
-16.18
-16.62
-16.42
-16.05
-16.12
-16.88
-18.22
-19.42
-19.52
-18.07
-14.43
-9.10
-3.31
1.29
3.58
3.15
0.53
-3.25
-7.28
-10.95
-14.57
-18.08
-22.98
-29.92
-39.21
-50.82
-64.39
-78.41
-89.82
-94.46
-88.44
-70.35
-42.36
-10.57
18.34
38.58
47.92
48.07
42.88
36.14
29.73
23.74
17.36
10.29
3.06
-3.13
-7.47
-10.10
-12.15
-15.11
-20.06
-27.04
-35.18
-43.27
-50.30
-55.92
-60.45
-64.65
-69.34
-74.72
-80.25
-84.86
-87.46
-87.16
-83.57
-76.68
-66.40
-52.70
-35.50
-14.82
8.90
34.58
60.57
84.33
104.39
120.09
131.62
139.87
145.89
150.38
153.32
154.63
153.33
149.17
142.71
135.14
128.00
122.66
120.23
121.45
126.18
132.58
137.17
135.02
121.71
95.68
59.66
20.35
-14.18
-37.90
-49.22
-50.86
-48.00
-45.10
-43.97
-43.75
-42.58
-39.70
-36.27
-34.91
-37.92
-46.07
-58.43
-73.32
-89.59
-107.06
-125.97
-145.57
-163.10
-173.47
-172.70
-159.20
-135.08
-105.66
-77.11
-53.58
-36.71
-25.17
-16.06
-6.51
5.41
20.35
37.53
56.80
77.83
99.21
117.57
127.57
123.29
101.48
65.32
22.51
-14.91
-36.33
-37.60
-22.83
-2.06
14.11
20.04
16.86
10.57
8.13
13.07
24.09
36.94
47.53
53.71
57.42
61.71
68.81
78.89
90.02
99.42
105.43
108.04
108.31
106.86
102.44
92.43
74.51
48.64
17.87
-12.87
-39.33
-59.84
-75.61
-88.49
-98.62
-103.44
-99.13
-83.57
-58.62
-30.97
-8.77
2.34
1.69
-6.46
-15.66
-20.58
-19.57
-14.72
-9.82
-7.82
-9.31
-12.66
-15.23
-15.02
-11.35
-4.76
3.60
13.03
23.00
32.51
39.56
41.31
35.33
21.19
1.25
-19.95
-37.67
-49.01
-53.80
-54.27
-53.27
-52.73
-53.00
-53.28
-52.83
-51.66
-50.21
-48.65
-46.15
-41.01
-31.02
-15.99
2.89
22.83
40.23
51.96
56.62
54.90
49.18
42.13
35.51
29.54
22.72
12.82
-2.01
-22.32
-47.28
-74.13
-100.01
-121.29
-134.13
-135.61
-124.97
-104.40
-78.57
-53.16
-32.63
-18.98
-11.45
-7.95
-6.93
-7.99
-11.85
-18.57
-26.59
-32.49
-32.81
-24.73
-7.70
16.28
43.01
66.55
80.51
79.26
61.53
31.46
-1.37
-25.03
-30.06
-13.77
18.25
54.93
84.86
100.95
102.35
93.33
79.86
66.10
53.00
39.27
23.70
6.84
-8.56
-18.55
-20.28
-13.26
0.51
17.49
33.88
48.06
59.78
70.89
82.06
91.59
96.08
92.62
81.24
65.58
51.15
42.03
38.42
36.40
30.70
18.33
0.54
-18.10
-32.42
-39.85
-41.40
-40.19
-39.26
-39.69
-40.43
-39.82
-37.10
-32.72
-28.27
-25.55
-25.22
-26.57
-28.26
-28.51
-26.32
-21.75
-15.75
-9.77
-5.00
-1.81
0.18
1.97
4.64
8.75
14.21
20.32
26.11
30.83
34.33
36.79
38.81
41.04
43.75
46.80
49.76
51.97
52.90
52.36
50.16
46.40
41.26
34.79
27.03
18.03
7.98
-2.73
-13.08
-22.68
-30.97
-37.50
-42.20
-45.18
-46.74
-47.22
-47.18
-46.48
-45.24
-43.41
-41.06
-38.47
-36.03
-34.21
-33.33
-33.35
-33.79
-34.09
-33.63
-32.11
-29.83
-27.62
-26.49
-27.13
-29.54
-32.87
-35.89
-37.38
-36.82
-34.79
-32.79
-32.57
-35.25
-40.77
-47.73
-54.08
-58.17
-59.27
-58.27
-57.05
-57.69
-61.34
-68.34
-78.28
-90.16
-102.28
-111.49
-113.42
-103.45
-78.91
-41.84
1.19
39.90
64.32
69.05
56.03
32.85
8.60
-10.60
-23.51
-32.34
-39.25
-43.26
-41.03
-28.94
-6.90
20.37
45.34
61.45
66.61
64.09
60.72
62.52
72.68
90.04
110.51
128.66
141.76
149.34
152.34
153.44
152.11
147.69
138.98
125.12
106.13
83.07
57.69
30.99
5.71
-17.24
-37.57
-55.53
-71.53
-85.66
-97.65
-107.16
-114.02
-118.10
-120.27
-121.25
-121.52
-121.30
-120.34
-118.02
-113.66
-106.93
-96.97
-83.88
-67.96
-49.62
-29.44
-8.05
13.83
35.36
54.91
72.04
86.14
96.90
104.41
109.00
111.19
111.48
110.39
108.31
105.77
103.01
100.28
97.90
96.10
94.90
94.09
93.11
91.47
88.87
85.86
81.79
76.63
70.46
63.26
54.81
44.76
32.88
19.33
4.15
-11.23
-25.41
-37.24
-46.06
-51.80
-55.05
-56.60
-57.34
-57.90
-58.63
-59.45
-59.83
-58.74
-54.71
-46.76
-35.71
-24.66
-18.67
-22.60
-38.71
-64.86
-95.21
-122.57
-141.62
-150.29
-149.06
-139.04
-120.63
-93.67
-59.00
-19.84
18.60
50.97
74.42
89.48
98.63
103.67
103.92
97.11
80.97
57.70
32.73
12.70
2.22
1.83
8.11
16.28
22.45
25.48
26.63
27.73
29.89
32.87
35.63
37.11
36.94
35.51
33.70
32.64
32.94
34.47
36.66
38.53
38.97
37.03
32.06
23.97
13.33
0.99
-12.13
-25.44
-38.64
-51.93
-65.13
-78.54
-92.07
-105.54
-119.00
-132.45
-145.01
-154.19
-156.67
-148.49
-128.14
-97.72
-62.74
-30.18
-5.69
8.71
14.88
16.95
18.97
22.98
28.91
35.64
42.27
48.66
55.23
62.01
68.10
71.82
71.39
65.64
54.53
39.82
23.73
8.40
-4.81
-15.56
-24.33
-32.03
-39.43
-46.76
-53.73
-59.84
-64.66
-68.04
-70.27
-71.86
-73.28
-74.71
-75.87
-75.97
-74.24
-69.84
-62.33
-51.72
-38.42
-23.10
-6.54
10.47
27.25
42.55
55.89
66.89
75.25
80.84
83.75
84.24
82.75
79.80
76.31
72.46
68.43
64.42
60.55
56.88
53.40
50.16
47.10
44.20
41.44
38.83
36.37
34.07
31.92
29.94
28.15
26.58
25.24
24.12
23.15
22.33
21.60
20.94
20.38
19.89
19.43
18.91
18.48
17.63
15.97
13.25
9.34
4.27
-1.69
-8.19
-14.81
-21.11
-26.78
-31.57
-35.30
-37.84
-38.97
-38.37
-35.94
-31.72
-25.97
-19.23
-12.29
-5.74
0.06
5.24
10.30
15.63
21.34
27.10
32.01
34.78
34.39
30.41
22.59
13.13
4.13
-2.78
-6.74
-7.45
-6.32
-4.32
-2.02
1.18
6.28
14.10
25.09
39.27
56.29
75.29
94.54
109.31
115.36
108.58
87.11
53.31
13.80
-22.89
-49.68
-63.48
-65.88
-61.13
-53.85
-46.66
-39.90
-32.68
-24.65
-16.65
-10.18
-6.45
-5.38
-6.25
-7.42
-7.73
-7.03
-6.40
-7.41
-11.38
-18.76
-28.23
-38.60
-48.19
-55.82
-60.84
-63.69
-65.34
-66.81
-68.64
-70.79
-72.88
-74.13
-74.88
-74.06
-71.52
-67.39
-61.91
-55.18
-47.15
-37.87
-26.61
-14.42
-1.92
10.09
20.91
30.01
37.17
42.43
45.94
48.12
49.20
49.73
49.96
50.07
50.19
50.41
50.78
51.26
51.92
52.61
53.49
54.47
55.48
56.30
56.78
56.68
55.63
53.43
49.85
44.89
38.54
30.89
22.11
12.51
2.85
-6.58
-15.36
-23.05
-29.28
-33.89
-36.90
-38.58
-39.50
-39.77
-39.65
-39.28
-38.70
-37.86
-36.74
-35.50
-34.44
-33.86
-33.86
-34.46
-35.41
-36.24
-36.44
-35.70
-34.12
-32.20
-30.47
-29.55
-29.04
-28.22
-26.16
-22.11
-15.94
-8.40
-1.09
4.31
6.50
5.06
0.57
-5.62
-12.20
-18.36
-23.43
-28.68
-35.12
-43.49
-54.12
-67.08
-81.76
-96.38
-107.80
-111.88
-105.11
-86.30
-58.17
-26.68
1.07
19.82
28.39
28.96
25.28
20.42
15.50
9.69
1.89
-7.72
-17.05
-23.18
-24.05
-19.71
-12.09
-3.90
2.61
7.19
11.53
18.31
30.02
47.46
69.23
92.48
114.80
133.83
147.01
151.52
144.96
127.01
101.67
74.39
52.15
39.89
37.77
41.18
43.30
38.79
25.75
7.28
-12.17
-29.21
-43.07
-55.19
-67.26
-79.53
-90.60
-98.33
-101.28
-99.72
-95.14
-89.66
-84.82
-80.85
-76.81
-71.09
-62.22
-49.41
-33.44
-15.98
1.00
15.82
27.76
36.93
44.06
49.11
53.14
56.34
58.46
59.20
58.36
56.24
53.37
50.35
47.70
45.75
44.31
43.04
41.96
40.59
38.94
37.17
35.41
33.78
32.29
30.77
29.08
27.26
25.46
24.02
23.17
22.85
22.93
23.05
22.79
21.97
20.75
19.53
18.84
19.28
20.38
21.45
21.53
19.81
16.04
10.84
5.39
1.15
-0.82
-0.27
2.38
6.01
9.68
12.87
15.82
19.18
23.56
29.30
35.84
43.95
53.78
64.41
73.14
75.85
68.29
48.38
17.96
-17.28
-49.61
-72.63
-83.65
-84.15
-78.26
-70.51
-63.76
-58.83
-55.21
-52.12
-49.33
-47.13
-46.04
-45.98
-46.75
-48.24
-50.46
-54.04
-59.99
-69.38
-81.99
-96.20
-108.00
-112.29
-104.98
-85.12
-55.98
-23.94
3.99
23.20
32.57
34.30
31.93
28.31
24.69
21.01
17.16
13.78
12.13
13.02
16.08
19.64
21.52
20.37
16.60
12.31
10.54
13.61
21.88
33.42
44.77
52.40
54.69
52.34
48.04
44.94
45.13
48.71
54.44
60.89
66.81
71.02
71.57
65.80
51.99
31.73
10.86
-2.31
-0.68
15.81
39.21
57.15
58.72
40.25
7.27
-28.69
-55.89
-67.88
-65.92
-56.44
-46.69
-41.15
-40.11
-41.37
-43.04
-45.09
-49.04
-56.07
-64.14
-67.27
-57.78
-30.66
12.11
60.00
97.73
111.66
95.90
55.08
2.35
-46.70
-80.68
-93.72
-89.49
-76.99
-64.44
-55.75
-50.10
-44.09
-35.27
-23.43
-11.01
-1.31
3.56
3.35
-0.77
-7.55
-15.12
-22.30
-28.01
-30.47
-26.85
-14.13
8.72
39.20
68.94
88.51
90.68
74.60
42.89
1.97
-40.62
-79.15
-111.06
-135.31
-150.63
-154.85
-145.17
-120.26
-81.67
-34.66
13.96
53.01
75.90
82.89
79.00
70.51
61.56
53.41
45.19
36.09
26.62
19.28
16.76
19.85
27.77
36.97
43.98
47.04
46.67
45.28
46.36
52.59
64.60
80.61
96.02
105.15
103.45
89.64
67.00
42.92
26.16
23.51
37.20
62.82
91.45
113.46
119.52
105.13
71.47
24.16
-30.05
-79.94
-115.68
-133.52
-136.06
-128.72
-115.84
-99.68
-81.54
-62.87
-45.43
-31.73
-23.62
-20.95
-21.58
-22.45
-20.87
-15.93
-8.35
0.24
7.61
12.07
13.38
12.74
12.04
13.01
16.35
21.68
28.04
34.03
38.43
40.83
41.53
40.87
39.71
38.25
36.18
32.97
28.01
20.91
11.83
2.27
-7.24
-15.92
-23.21
-28.82
-32.72
-35.10
-36.30
-36.56
-36.15
-35.40
-34.39
-33.25
-32.09
-30.96
-29.91
-28.98
-28.08
-27.20
-26.50
-25.92
-25.48
-25.20
-24.99
-24.89
-24.90
-24.91
-24.99
-25.23
-25.57
-26.02
-26.46
-26.64
-26.41
-26.31
-25.53
-23.82
-21.02
-17.10
-12.14
-6.27
0.47
7.75
15.09
22.18
28.51
33.57
37.02
38.41
37.59
34.65
29.53
22.28
13.18
2.47
-9.48
-21.15
-32.28
-43.21
-52.54
-59.31
-62.78
-62.34
-57.85
-49.67
-38.30
-24.63
-9.62
5.79
20.39
33.09
43.15
50.05
53.37
53.42
50.77
46.38
41.45
37.03
34.05
33.25
35.98
41.75
49.96
59.81
70.56
81.34
91.29
99.68
105.86
109.38
109.62
106.38
99.56
89.29
75.92
59.90
41.77
22.19
3.32
-14.29
-30.04
-43.42
-54.09
-61.90
-66.92
-69.39
-69.71
-68.34
-66.08
-63.35
-60.45
-57.58
-54.86
-52.34
-50.02
-47.91
-45.94
-44.26
-42.87
-41.72
-40.84
-40.27
-40.02
-40.11
-40.52
-41.20
-42.21
-43.45
-44.84
-46.43
-48.34
-50.59
-53.23
-56.26
-59.64
-63.34
-67.20
-71.12
-75.19
-79.48
-83.95
-88.47
-92.72
-96.21
-98.88
-100.20
-99.05
-94.99
-87.97
-78.06
-65.57
-50.84
-34.15
-15.82
3.82
24.16
44.46
62.99
78.50
90.25
98.22
103.10
106.01
108.14
110.18
111.97
112.64
111.36
107.19
99.96
90.40
79.80
69.25
59.38
49.91
40.07
28.85
15.70
0.49
-16.49
-34.50
-51.80
-65.20
-70.51
-64.15
-45.11
-16.39
15.46
42.34
57.71
59.01
47.96
29.24
7.52
-14.13
-34.50
-53.40
-70.38
-84.11
-92.81
-95.22
-91.02
-81.36
-67.99
-52.59
-35.99
-18.14
1.38
22.80
44.16
64.61
82.64
96.71
105.91
110.26
110.69
108.64
105.54
102.10
98.99
95.97
92.57
88.36
83.19
77.22
70.79
65.33
59.87
54.31
48.41
41.90
34.79
27.17
19.38
11.87
5.06
-0.85
-5.36
-8.30
-9.67
-9.43
-7.83
-5.18
-1.88
1.62
4.72
7.17
8.65
8.90
7.99
5.80
2.49
-1.69
-6.41
-11.46
-16.46
-21.23
-26.38
-31.25
-35.70
-39.85
-43.83
-47.81
-51.88
-55.93
-59.81
-63.32
-65.81
-67.03
-66.63
-64.26
-59.61
-52.89
-43.86
-32.58
-19.45
-4.89
10.06
24.22
36.44
45.65
51.06
52.23
48.97
40.58
28.34
13.59
-2.38
-18.30
-33.16
-46.26
-57.22
-66.01
-72.85
-77.92
-81.74
-84.80
-87.35
-89.62
-91.77
-93.77
-95.52
-96.77
-96.98
-95.72
-92.53
-87.05
-78.66
-67.09
-52.38
-34.91
-15.29
5.76
27.34
47.58
65.70
81.12
93.34
102.06
107.15
108.80
107.48
103.88
98.84
93.37
88.15
83.45
79.18
74.94
70.38
65.35
60.06
54.99
50.90
48.26
47.01
46.56
45.97
44.45
41.70
38.08
34.56
32.36
32.25
34.19
37.65
40.93
42.89
42.98
41.64
39.93
39.07
39.99
43.23
49.06
57.15
66.11
72.99
73.66
64.34
43.65
13.93
-19.08
-48.28
-68.25
-77.16
-77.01
-71.86
-65.45
-59.57
-54.01
-47.93
-41.02
-34.25
-29.05
-26.36
-25.93
-26.44
-26.35
-24.52
-21.24
-17.74
-15.79
-16.71
-20.81
-27.15
-33.96
-39.32
-42.02
-42.10
-40.58
-38.96
-38.44
-39.25
-40.52
-40.69
-38.26
-32.55
-24.30
-15.19
-7.34
-2.40
-0.89
-2.04
-4.28
-6.22
-7.25
-8.13
-10.28
-15.21
-23.85
-36.33
-52.09
-69.95
-87.84
-101.49
-107.52
-102.71
-86.07
-60.02
-30.03
-2.63
17.29
28.27
32.13
32.12
31.12
30.48
30.11
29.66
29.87
32.52
39.63
52.50
70.97
93.57
116.60
135.61
145.43
141.92
123.90
94.43
60.11
28.77
6.44
-4.81
-6.92
-4.26
-1.05
0.61
0.72
0.26
-0.18
-1.06
-3.64
-8.71
-16.43
-26.11
-36.78
-47.70
-59.22
-72.15
-87.78
-105.61
-122.30
-132.45
-130.55
-113.81
-84.30
-48.70
-15.75
7.45
18.32
19.27
15.46
11.83
10.77
11.78
12.70
12.04
9.77
7.59
7.75
11.60
19.31
30.37
44.05
59.85
76.81
92.62
103.21
104.79
95.10
75.23
49.80
25.16
6.82
-2.79
-4.72
-2.09
2.13
6.26
10.16
14.30
18.67
22.51
24.79
25.12
24.04
23.04
23.51
26.34
31.16
36.77
41.63
44.45
44.70
42.55
38.83
34.37
29.68
24.68
18.87
11.65
2.71
-7.35
-17.96
-27.99
-36.43
-42.59
-46.35
-48.04
-48.28
-47.96
-47.30
-46.52
-45.56
-44.38
-42.95
-41.34
-39.72
-38.26
-37.12
-36.21
-35.58
-35.12
-34.80
-34.63
-34.64
-34.89
-35.33
-35.93
-36.58
-37.31
-38.04
-38.86
-39.81
-40.84
-41.87
-42.63
-42.81
-42.04
-40.40
-37.40
-32.95
-27.16
-20.27
-12.59
-4.40
3.93
12.07
19.67
26.32
31.42
34.64
35.80
35.02
33.01
30.65
28.70
27.62
27.35
27.20
26.23
23.62
18.81
12.20
4.70
-2.71
-9.35
-15.08
-20.31
-25.63
-31.30
-37.08
-41.68
-43.43
-41.19
-34.79
-25.46
-15.18
-6.34
-1.29
-2.18
-10.01
-24.78
-44.77
-66.22
-84.00
-92.78
-89.38
-72.33
-47.99
-24.60
-8.91
-3.54
-6.70
-14.04
-20.73
-24.16
-24.36
-22.59
-19.25
-13.64
-4.66
8.29
24.48
42.63
60.54
75.92
87.16
94.04
97.22
97.64
95.82
91.75
85.75
77.64
67.19
54.43
40.09
25.40
11.66
-0.15
-14.37
-31.73
-52.02
-74.10
-96.81
-118.85
-139.08
-156.50
-170.37
-180.41
-185.34
-184.58
-178.47
-168.45
-156.05
-142.20
-126.92
-109.56
-89.19
-61.92
-27.45
12.75
55.53
97.81
137.63
174.53
209.06
241.87
276.10
312.69
349.67
382.80
407.83
422.18
425.46
419.20
388.37
327.96
243.02
146.20
50.88
-34.12
-104.97
-160.53
-200.53
-224.55
-231.56
-221.69
-197.93
-165.75
-131.91
-103.16
-84.24
-75.94
-77.92
-83.36
-84.03
-75.06
-55.79
-30.02
-4.50
10.07
6.30
-16.89
-51.77
-87.85
-119.14
-143.43
-159.82
-169.86
-172.96
-166.42
-147.59
-113.85
-64.28
-3.62
60.14
118.89
165.83
197.60
214.73
219.69
216.36
216.92
220.86
225.29
228.08
228.61
228.29
229.96
229.75
219.53
195.95
157.80
108.75
55.15
3.21
-42.21
-78.26
-104.38
-120.73
-128.10
-129.75
-128.35
-125.90
-123.75
-122.30
-121.15
-119.48
-115.61
-107.91
-97.45
-86.77
-79.70
-79.96
-89.14
-105.63
-125.37
-142.31
-150.89
-148.94
-137.37
-119.52
-99.51
-80.26
-62.82
-46.64
-30.04
-11.40
10.06
33.84
58.16
80.05
95.90
101.84
94.77
74.12
42.89
7.66
-22.49
-39.21
-38.51
-21.07
7.74
39.56
65.93
80.99
81.07
68.19
46.98
22.13
-3.03
-26.73
-48.00
-65.81
-79.10
-87.35
-90.73
-90.97
-90.44
-90.99
-93.27
-96.41
-98.57
-97.75
-92.79
-83.00
-69.22
-53.03
-35.89
-18.55
-0.91
17.64
37.60
57.60
76.74
93.49
106.27
114.07
116.96
116.00
112.87
109.18
105.88
103.26
100.63
97.01
91.83
85.35
78.63
73.08
69.68
68.61
69.20
70.01
69.69
67.53
63.84
59.71
56.37
54.83
55.76
59.63
66.24
74.18
80.33
80.20
69.47
46.25
12.72
-25.03
-59.16
-83.37
-95.32
-96.92
-92.40
-85.92
-79.70
-73.83
-67.45
-60.17
-52.73
-46.60
-42.78
-41.14
-40.44
-39.05
-35.70
-30.21
-23.45
-16.91
-11.89
-9.12
-8.31
-8.50
-8.59
-7.93
-6.59
-5.27
-4.96
-6.61
-10.54
-16.44
-23.40
-30.31
-36.25
-40.50
-42.79
-43.13
-41.62
-38.45
-33.66
-27.38
-19.34
-10.45
-1.43
6.89
13.53
18.38
21.39
22.77
23.04
22.78
22.53
23.23
24.96
27.73
31.35
35.45
39.62
43.38
46.45
48.13
48.41
46.98
43.59
38.08
30.44
20.93
10.17
-0.48
-10.41
-18.98
-25.98
-31.60
-36.31
-40.60
-44.63
-48.21
-50.85
-52.13
-51.74
-50.08
-47.99
-46.49
-46.48
-48.20
-51.26
-54.61
-57.73
-59.55
-59.96
-59.40
-58.63
-58.63
-60.46
-65.26
-73.53
-84.30
-94.31
-98.59
-92.22
-72.76
-42.13
-6.46
26.12
49.05
59.54
59.28
52.74
44.42
37.08
31.65
28.48
28.07
30.75
35.34
38.27
34.51
19.97
-5.65
-37.97
-68.97
-90.39
-97.43
-89.69
-72.17
-51.38
-32.61
-18.65
-10.31
-7.60
-10.29
-17.23
-25.32
-29.53
-24.38
-6.89
21.78
55.74
86.84
108.15
116.69
114.15
105.07
94.81
86.07
79.43
73.97
68.70
63.49
58.84
55.34
52.84
50.60
47.62
43.15
37.22
30.50
24.08
18.92
15.50
13.54
12.33
10.89
8.68
5.56
1.82
-1.91
-5.11
-7.52
-9.32
-10.89
-12.75
-14.90
-17.24
-19.42
-20.92
-21.33
-20.47
-18.43
-15.52
-12.13
-8.24
-4.07
0.25
4.66
9.11
13.54
17.78
21.67
25.03
28.12
30.83
33.04
34.67
35.73
36.25
36.26
35.77
32.30
26.59
19.54
11.91
4.27
-2.96
-9.49
-15.16
-19.96
-23.96
-26.93
-29.06
-30.54
-31.52
-31.98
-31.89
-31.29
-30.38
-29.48
-28.65
-28.17
-28.08
-28.23
-28.24
-27.71
-26.51
-24.90
-23.44
-22.57
-22.68
-23.65
-24.94
-25.64
-24.94
-22.51
-18.78
-14.69
-11.16
-8.72
-6.67
-3.95
0.83
8.72
19.81
33.32
47.98
62.73
76.14
87.53
95.66
99.20
97.68
92.39
86.35
82.88
83.45
86.20
86.45
78.73
60.02
31.65
-1.15
-31.57
-54.30
-67.44
-72.39
-72.13
-69.59
-66.44
-63.18
-59.90
-56.81
-54.18
-52.44
-51.92
-52.46
-53.46
-54.26
-54.39
-53.91
-53.78
-55.79
-61.70
-71.78
-83.60
-92.25
-91.91
-78.09
-51.39
-16.96
17.27
43.80
58.61
62.71
60.08
55.67
53.22
54.11
58.18
65.01
74.86
88.22
103.91
118.76
127.16
123.33
104.11
71.46
32.19
-4.60
-31.30
-44.82
-47.07
-43.11
-38.15
-34.93
-33.49
-32.35
-30.24
-27.16
-24.18
-22.43
-22.31
-23.23
-24.04
-23.52
-21.29
-17.77
-14.01
-11.12
-9.72
-9.72
-10.38
-10.71
-9.94
-7.90
-5.01
-2.03
0.29
1.60
2.04
2.11
2.45
3.49
5.27
7.52
9.79
11.70
13.03
13.91
14.60
15.35
16.29
17.38
18.49
19.47
20.23
20.82
21.41
22.09
22.93
23.90
24.84
25.59
25.88
25.59
24.60
22.77
19.95
15.97
10.69
4.17
-3.31
-10.90
-18.19
-24.67
-29.91
-33.80
-36.48
-38.22
-39.45
-40.35
-41.23
-41.83
-41.95
-41.58
-40.97
-40.34
-40.03
-40.28
-40.89
-41.75
-42.85
-44.26
-45.74
-46.60
-45.65
-41.74
-34.90
-25.55
-15.53
-6.89
-0.87
2.79
5.73
10.10
17.78
28.43
40.96
53.36
63.70
70.48
73.06
71.49
66.81
60.43
53.81
48.16
43.33
38.19
30.80
19.62
4.45
-13.12
-29.64
-42.69
-50.45
-53.32
-53.59
-54.51
-58.70
-67.42
-80.14
-94.75
-108.12
-115.93
-114.24
-99.47
-71.36
-34.43
2.08
26.62
29.95
9.76
-26.99
-66.60
-94.34
-101.18
-87.26
-60.77
-32.90
-12.28
-1.47
2.44
4.27
7.34
11.69
15.05
15.80
14.76
15.01
20.17
32.45
50.86
71.73
90.32
102.72
107.52
105.97
100.66
94.33
88.54
83.06
76.30
66.31
51.92
32.85
11.58
-9.07
-26.60
-39.52
-47.57
-51.44
-52.23
-51.11
-48.49
-44.14
-37.81
-29.38
-19.14
-7.87
3.47
13.95
22.84
29.77
34.95
38.61
40.99
42.28
42.56
42.10
41.00
39.15
36.34
32.34
26.84
19.71
11.00
0.89
-9.64
-19.67
-28.53
-35.83
-41.45
-45.55
-48.31
-49.98
-50.88
-50.34
-47.98
-43.77
-37.94
-30.90
-23.10
-14.86
-6.22
2.76
13.36
26.41
42.08
59.97
79.16
98.69
117.93
137.05
147.85
146.74
133.16
109.69
80.85
50.96
23.13
-1.08
-21.07
-37.06
-48.32
-54.80
-57.03
-55.77
-52.17
-46.67
-40.35
-33.96
-28.09
-22.14
-15.76
-10.49
-6.84
-5.21
-5.80
-8.63
-13.32
-19.41
-25.82
-31.79
-36.95
-41.01
-44.14
-46.53
-48.38
-49.60
-50.18
-49.93
-48.88
-47.36
-45.61
-43.83
-41.84
-38.79
-33.92
-26.77
-17.18
-5.60
7.09
20.05
32.62
44.74
55.53
65.59
75.46
85.03
93.43
99.38
101.97
100.95
97.05
91.72
86.67
83.19
81.95
83.14
86.31
90.16
92.15
88.87
77.23
56.18
27.62
-3.76
-32.09
-52.65
-63.60
-66.35
-64.23
-60.56
-57.01
-53.46
-48.73
-41.91
-33.27
-24.34
-17.25
-13.79
-14.66
-19.11
-25.21
-30.81
-34.42
-35.83
-36.08
-36.53
-38.04
-40.36
-42.32
-42.58
-40.45
-36.25
-31.12
-26.34
-22.68
-19.98
-17.40
-13.93
-9.14
-3.44
2.07
6.21
8.26
8.21
6.70
4.60
2.76
1.76
1.91
3.21
5.23
7.19
8.08
7.03
3.80
-1.00
-6.33
-11.02
-14.41
-16.47
-17.64
-18.53
-19.78
-22.08
-25.93
-31.37
-37.36
-42.18
-43.92
-41.45
-35.12
-26.83
-19.42
-15.75
-17.66
-25.18
-36.41
-47.71
-54.54
-52.86
-40.62
-18.81
8.90
36.12
57.56
70.42
74.96
73.47
68.69
62.67
56.51
50.73
45.82
42.83
42.75
46.06
51.91
57.85
60.35
55.99
43.14
23.15
0.58
-19.38
-32.45
-37.29
-35.90
-31.99
-28.62
-26.50
-24.11
-19.11
-10.54
0.27
10.50
17.48
20.30
20.03
18.86
18.71
20.18
22.54
24.35
24.69
23.59
21.91
20.68
20.80
22.69
26.14
30.22
33.04
32.52
26.83
15.20
-1.58
-21.06
-39.76
-54.48
-61.87
-62.10
-57.31
-50.24
-42.96
-36.36
-30.38
-24.59
-18.86
-13.45
-9.01
-5.89
-4.06
-3.25
-2.97
-2.73
-2.17
-1.07
0.67
2.69
4.42
4.74
3.11
-0.77
-6.81
-14.43
-22.78
-31.19
-39.42
-47.63
-55.20
-62.82
-70.82
-79.46
-89.14
-100.21
-111.96
-121.80
-125.35
-117.94
-97.02
-63.96
-24.44
13.60
42.95
60.09
66.05
65.51
63.24
62.56
64.65
68.99
74.61
80.53
86.53
92.60
98.56
103.95
108.23
111.05
112.85
115.07
119.03
125.28
132.28
136.17
131.73
114.81
84.71
44.31
2.76
-31.06
-51.49
-57.82
-53.51
-43.83
-33.30
-24.47
-18.05
-13.72
-12.11
-13.03
-16.14
-20.52
-25.18
-29.43
-33.19
-37.17
-42.14
-48.13
-55.90
-65.73
-76.61
-85.90
-89.58
-83.95
-67.83
-43.95
-20.34
-3.38
2.26
-3.58
-16.20
-28.42
-34.22
-31.33
-20.07
-5.56
8.29
20.01
30.27
40.32
50.44
59.40
65.31
66.95
63.53
56.83
49.12
41.93
35.72
29.82
22.78
13.27
1.81
-11.57
-25.07
-36.48
-44.45
-48.77
-50.36
-50.83
-51.60
-53.32
-55.98
-59.24
-60.53
-58.60
-53.56
-46.60
-39.54
-33.98
-30.59
-29.48
-29.42
-29.24
-28.69
-28.50
-30.18
-35.25
-44.77
-57.50
-74.13
-94.11
-115.34
-134.13
-145.43
-144.34
-128.47
-99.61
-63.69
-29.16
-2.99
11.74
16.26
14.70
11.56
9.57
9.39
10.72
13.10
17.20
24.30
35.16
49.35
65.22
80.58
92.45
100.41
104.78
106.72
107.47
107.76
107.64
106.69
104.29
100.26
94.99
88.90
82.57
76.41
70.51
64.83
60.20
55.83
51.50
47.26
42.81
37.74
31.60
24.26
16.01
7.76
0.86
-3.52
-4.80
-3.39
-0.48
2.80
5.48
7.39
9.01
11.54
16.09
23.67
35.06
50.37
68.37
85.61
96.77
94.00
74.84
41.64
1.46
-36.21
-63.27
-76.15
-76.87
-71.08
-64.94
-61.48
-60.80
-61.03
-60.30
-58.70
-57.41
-58.27
-62.48
-70.20
-80.22
-91.32
-103.19
-115.85
-128.81
-139.87
-145.22
-138.80
-119.35
-88.97
-53.51
-20.62
3.47
16.04
18.41
14.29
7.71
0.97
-4.77
-9.20
-12.13
-12.56
-9.98
-4.56
2.80
10.71
17.82
24.03
29.98
36.14
43.11
50.57
57.27
61.92
63.51
61.89
58.22
54.16
50.30
47.42
45.22
42.64
39.16
35.12
31.53
30.30
32.90
38.14
45.32
53.43
61.79
70.84
81.18
92.95
105.90
119.91
130.63
139.91
153.52
172.65
196.44
217.35
223.51
206.33
174.87
136.82
103.20
82.63
76.84
79.47
81.04
73.64
55.00
28.33
-3.05
-36.23
-71.58
-110.64
-151.65
-188.75
-214.48
-224.35
-220.62
-213.67
-215.31
-233.96
-270.88
-319.16
-366.71
-400.57
-411.10
-394.53
-354.17
-297.32
-232.67
-167.80
-106.87
-50.35
3.98
58.51
113.35
165.09
207.87
234.92
240.78
223.09
183.31
126.73
60.19
-10.83
-83.89
-159.12
-236.95
-315.40
-388.61
-447.82
-482.99
-488.27
-464.94
-421.03
-367.76
-314.88
-267.74
-227.06
-191.00
-154.75
-115.70
-74.76
-35.16
0.56
32.66
63.83
97.02
133.36
176.40
226.87
281.96
336.37
385.29
426.87
462.12
493.05
521.13
553.04
593.42
642.80
697.38
752.12
804.01
852.91
900.27
907.33
848.69
722.17
551.28
367.40
192.34
35.90
-98.42
-209.07
-295.62
-353.13
-380.28
-381.47
-366.10
-344.41
-323.61
-307.02
-295.66
-289.74
-284.48
-275.75
-262.07
-245.15
-227.87
-212.23
-198.92
-188.02
-179.74
-171.36
-160.63
-146.84
-131.26
-115.85
-101.99
-90.21
-80.70
-73.61
-67.65
-61.64
-55.03
-48.10
-41.42
-35.31
-29.73
-24.77
-20.67
-17.27
-14.40
-12.00
-10.02
-8.29
-6.46
-4.21
-1.51
1.22
3.25
3.93
3.00
0.87
-1.51
-3.03
-2.87
-0.96
1.98
4.58
5.76
5.06
3.01
0.91
-0.03
0.73
2.61
3.89
2.58
-2.68
-12.12
-24.88
-39.44
-54.53
-68.45
-78.84
-82.86
-77.93
-62.97
-39.80
-13.01
12.08
30.72
41.21
45.11
45.90
46.44
46.81
44.09
34.66
17.54
-4.04
-22.86
-31.18
-24.75
-5.29
20.28
42.66
55.32
56.99
51.18
43.49
38.25
36.33
36.03
34.86
31.38
26.10
20.80
17.21
16.60
19.06
23.70
29.46
35.53
41.73
48.09
53.91
57.20
55.08
44.93
26.01
0.38
-27.58
-52.73
-71.15
-81.36
-84.30
-82.22
-77.29
-70.50
-61.46
-49.05
-32.63
-13.04
6.70
22.01
28.33
22.87
5.89
-18.99
-46.03
-69.14
-83.42
-86.41
-78.20
-61.06
-38.60
-14.88
6.59
23.59
35.45
42.77
46.24
46.17
42.69
36.43
29.04
22.51
17.91
14.24
9.01
-0.16
-13.01
-25.53
-31.35
-24.72
-3.87
27.47
60.20
85.04
96.69
95.28
85.27
72.20
60.29
51.35
45.58
42.69
42.23
43.68
44.00
39.10
24.94
-0.42
-35.50
-75.00
-110.32
-133.38
-140.51
-133.34
-117.49
-99.78
-85.02
-74.69
-66.30
-55.07
-36.59
-9.25
26.81
68.42
110.51
147.31
173.05
182.87
173.68
144.46
97.37
38.21
-23.70
-76.78
-109.50
-114.37
-90.27
-43.43
13.59
65.37
98.13
104.13
83.81
44.49
-4.20
-53.28
-93.10
-115.98
-116.93
-93.83
-47.53
17.33
91.58
160.82
208.44
221.46
195.12
134.04
49.90
-42.43
-129.60
-196.09
-228.52
-225.68
-199.20
-163.90
-128.96
-97.38
-68.91
-43.16
-20.07
-1.18
11.20
16.34
16.02
13.35
11.14
11.27
13.32
17.14
20.64
20.47
14.36
2.24
-14.48
-34.23
-53.72
-72.22
-88.24
-99.41
-102.77
-95.08
-74.69
-43.31
-6.25
29.55
58.06
76.88
86.67
89.39
87.40
82.22
74.79
65.98
57.33
50.80
48.72
52.80
62.17
74.22
84.61
88.20
80.80
61.11
31.71
-1.32
-29.27
-46.04
-50.13
-44.74
-35.39
-26.83
-20.95
-16.90
-12.62
-6.87
-0.46
4.73
7.05
6.24
3.59
1.21
1.07
3.83
8.92
14.60
19.21
21.77
22.43
22.16
22.41
24.23
27.82
32.48
36.64
39.06
38.89
35.96
30.72
23.92
16.32
8.29
0.38
-7.69
-15.89
-23.92
-31.33
-37.55
-42.11
-44.78
-45.76
-45.48
-44.61
-43.63
-42.82
-42.30
-41.98
-41.70
-41.30
-40.85
-40.39
-40.04
-40.25
-40.12
-38.87
-35.66
-29.81
-21.09
-9.90
2.80
15.62
27.25
36.72
43.57
47.78
49.51
48.82
45.43
38.79
28.48
15.08
-0.58
-16.83
-31.62
-43.41
-51.41
-56.01
-58.38
-59.90
-61.90
-65.32
-70.78
-78.33
-86.79
-93.29
-93.74
-84.37
-63.71
-33.96
-1.01
28.57
49.39
59.60
61.02
57.57
52.90
48.85
45.32
41.41
36.82
32.18
28.77
27.44
28.00
29.24
29.71
28.22
24.71
20.07
15.60
12.46
11.15
11.30
11.95
12.02
10.77
8.16
4.74
1.37
-1.24
-2.78
-3.42
-3.72
-4.28
-5.53
-7.53
-10.01
-12.58
-14.90
-16.77
-18.25
-19.56
-20.93
-22.57
-24.53
-26.78
-29.14
-31.43
-33.49
-35.12
-36.07
-36.14
-35.19
-33.14
-30.07
-26.05
-21.25
-15.74
-9.60
-2.87
4.28
11.55
18.45
24.41
28.98
31.96
33.57
34.32
34.85
35.64
36.75
37.81
38.20
37.38
35.26
32.44
30.16
29.81
32.41
38.18
46.33
55.35
63.58
69.79
73.62
75.63
76.91
78.68
81.81
86.67
92.69
98.05
99.80
94.85
81.22
59.51
33.09
7.26
-12.73
-23.97
-27.03
-25.49
-23.92
-25.82
-32.42
-42.70
-54.39
-64.69
-71.25
-72.70
-69.08
-61.93
-54.11
-48.87
-47.74
-51.19
-57.11
-61.81
-61.93
-56.21
-45.86
-33.32
-20.73
-9.05
1.72
11.90
21.34
29.37
35.16
38.36
39.47
39.51
39.67
40.55
42.37
44.85
47.40
49.27
49.49
47.33
42.12
33.37
20.87
5.01
-13.35
-33.19
-52.50
-70.56
-87.22
-102.55
-116.75
-130.12
-143.13
-156.27
-169.42
-180.94
-187.52
-184.71
-168.96
-139.87
-101.29
-60.30
-24.68
0.15
13.00
16.33
14.48
11.28
8.65
6.81
5.55
5.22
6.82
11.33
18.69
27.71
36.43
42.98
46.39
46.97
46.03
45.10
45.22
46.42
47.90
48.49
47.44
44.74
41.16
37.93
36.06
35.91
37.02
38.46
39.29
39.14
38.18
37.02
36.51
37.49
40.57
45.87
52.72
59.44
63.67
62.72
54.69
39.43
18.71
-4.29
-26.19
-44.46
-58.87
-69.38
-76.16
-79.15
-77.91
-72.11
-62.11
-49.23
-35.47
-22.81
-12.36
-4.41
1.32
5.28
7.55
7.88
5.98
1.93
-3.60
-9.37
-14.19
-17.21
-18.29
-17.87
-16.60
-14.86
-12.47
-8.83
-3.25
4.34
13.21
21.97
29.09
33.74
36.19
37.63
39.35
42.09
45.73
50.16
55.37
61.66
68.90
75.79
80.15
80.34
77.22
74.84
79.35
95.34
122.99
157.12
189.31
212.09
222.50
222.91
218.82
215.09
212.24
206.38
191.80
164.62
125.12
77.63
28.23
-19.75
-62.41
-96.76
-120.99
-134.47
-137.45
-130.76
-116.42
-97.89
-79.57
-65.01
-56.86
-54.62
-55.81
-57.58
-58.13
-57.71
-58.75
-65.00
-80.06
-106.62
-145.32
-192.04
-239.94
-280.32
-305.26
-310.87
-299.27
-278.00
-257.13
-244.55
-242.11
-245.02
-244.14
-230.78
-200.95
-156.84
-104.91
-52.46
-4.09
39.58
80.83
122.58
166.12
209.77
249.21
279.23
295.55
296.46
283.25
259.86
232.07
206.24
187.90
180.45
183.97
194.82
206.47
211.31
203.06
178.69
139.05
88.21
32.01
-23.49
-72.89
-112.02
-138.13
-150.49
-150.91
-143.84
-135.54
-132.37
-138.73
-155.76
-181.01
-209.21
-233.80
-248.49
-248.68
-232.25
-199.84
-154.46
-100.76
-44.13
10.17
57.65
95.01
120.39
133.47
135.37
128.32
115.23
99.15
82.69
67.70
55.14
45.22
37.45
31.01
24.87
18.06
9.88
0.13
-10.81
-21.88
-31.53
-38.04
-39.98
-36.55
-27.85
-14.91
0.65
17.04
32.70
46.56
58.01
66.75
72.61
75.45
75.27
72.34
67.23
60.77
53.85
47.14
40.96
35.26
29.83
24.45
19.07
13.86
9.12
5.17
2.18
0.10
-1.33
-2.44
-3.57
-4.90
-6.51
-8.44
-10.86
-14.12
-18.65
-24.90
-33.01
-42.68
-53.06
-62.80
-70.36
-74.33
-73.84
-68.75
-59.74
-48.07
-35.26
-22.73
-11.55
-2.40
4.38
8.71
10.72
10.74
9.29
7.03
4.61
2.52
0.94
-0.22
-1.16
-2.10
-3.05
-3.88
-4.34
-4.26
-3.63
-2.70
-1.87
-1.63
-2.37
-4.28
-7.27
-11.01
-15.07
-19.14
-23.10
-27.11
-31.57
-36.95
-43.52
-51.20
-59.39
-66.97
-72.54
-74.78
-72.86
-66.81
-57.49
-46.36
-35.04
-24.78
-16.30
-9.76
-5.01
-1.79
0.12
1.00
1.26
1.45
2.14
3.70
6.11
9.03
11.84
13.99
15.17
15.37
14.91
14.20
13.52
12.98
12.51
12.01
11.35
10.48
9.40
8.16
6.75
5.05
2.82
-0.22
-4.29
-9.42
-15.30
-21.23
-25.98
-28.21
-26.84
-21.48
-12.74
-2.13
8.26
16.34
20.63
21.00
18.22
13.47
7.77
1.56
-5.33
-13.24
-22.36
-32.40
-41.88
-49.34
-53.88
-55.45
-54.86
-53.44
-52.69
-54.02
-58.54
-65.43
-72.87
-77.99
-77.27
-67.33
-45.90
-12.77
30.25
80.06
134.88
192.90
251.84
308.50
359.14
400.95
433.83
461.25
477.54
479.32
463.33
427.37
371.83
300.67
220.87
140.66
67.14
4.39
-45.30
-82.23
-107.59
-122.21
-126.36
-120.51
-106.14
-86.35
-65.66
-47.51
-34.48
-27.77
-27.56
-33.69
-46.27
-65.48
-90.98
-121.21
-152.32
-179.68
-199.09
-207.93
-205.75
-194.15
-176.09
-154.97
-133.91
-114.89
-98.94
-86.18
-76.05
-67.46
-59.20
-50.38
-40.72
-30.72
-21.21
-13.18
-7.27
-3.58
-1.67
-0.74
0.01
1.16
2.90
5.13
7.62
10.10
12.53
14.60
16.09
16.91
17.01
16.38
15.06
13.12
10.60
7.57
4.15
0.48
-3.25
-6.89
-10.27
-13.18
-15.33
-16.46
-16.47
-15.43
-13.68
-11.69
-9.93
-8.66
-7.71
-6.61
-4.78
-1.74
2.59
7.88
13.38
18.23
21.54
22.90
22.38
20.39
17.48
14.10
10.54
6.94
3.44
-0.03
-3.54
-7.37
-12.13
-18.64
-27.53
-38.75
-51.27
-63.40
-73.40
-79.83
-81.95
-79.72
-73.42
-63.35
-49.82
-33.48
-14.43
5.08
22.21
34.56
41.06
42.53
41.31
40.40
42.34
48.34
57.74
68.70
78.91
86.37
90.31
91.33
91.08
91.46
93.66
97.38
100.99
102.09
98.45
88.88
73.94
56.01
38.90
26.83
23.00
28.47
41.34
56.82
68.28
69.20
55.42
26.95
-11.85
-53.72
-91.31
-119.93
-139.06
-151.69
-161.90
-172.14
-181.74
-187.34
-184.83
-171.31
-146.35
-111.58
-69.80
-24.03
22.60
66.72
104.72
133.29
150.33
155.47
149.87
135.50
114.06
86.49
53.07
14.01
-30.02
-77.56
-126.52
-174.21
-217.54
-252.96
-276.87
-286.15
-279.15
-256.53
-221.48
-179.08
-134.88
-93.49
-57.48
-27.45
-2.88
16.88
32.10
43.00
50.27
55.26
59.47
63.62
67.05
68.07
65.13
58.07
48.70
39.93
34.45
33.44
36.31
41.49
47.57
54.03
61.11
69.28
78.44
87.77
96.25
103.23
108.75
113.39
117.79
122.19
126.30
129.52
131.04
130.04
125.31
115.34
98.54
74.13
43.10
8.98
-22.69
-45.95
-56.37
-52.94
-38.48
-19.12
-2.29
5.30
-0.29
-20.03
-52.27
-92.84
-135.55
-172.52
-196.15
-200.86
-185.73
-154.65
-116.78
-84.53
-69.44
-78.19
-110.21
-158.83
-212.93
-261.16
-293.06
-302.50
-288.86
-256.02
-210.16
-157.07
-101.81
-46.65
7.21
61.41
117.71
176.34
236.01
294.77
351.25
403.53
450.94
476.17
466.09
419.79
350.40
276.12
210.27
166.33
140.23
126.29
118.93
115.84
116.08
115.30
110.27
98.67
80.02
54.22
23.07
-11.69
-46.43
-77.51
-102.82
-122.64
-139.04
-153.98
-164.57
-165.97
-155.98
-135.53
-108.45
-79.29
-52.41
-30.28
-13.02
-0.12
10.30
18.96
27.08
35.28
45.40
56.28
65.15
69.25
66.39
57.79
44.42
28.47
12.69
-1.15
-15.86
-35.87
-60.36
-88.04
-114.29
-137.74
-158.28
-176.24
-192.80
-212.70
-239.41
-274.05
-315.86
-360.47
-408.51
-461.33
-518.00
-553.32
-546.28
-488.42
-390.60
-292.99
-204.79
-130.29
-71.29
-24.21
12.32
38.32
57.11
72.54
87.77
107.55
131.17
157.42
185.82
215.04
242.57
269.47
297.12
326.68
360.35
396.02
431.46
465.10
494.49
495.16
452.72
368.95
261.51
153.03
56.98
-21.67
-77.08
-116.70
-146.14
-165.10
-172.18
-166.76
-148.88
-123.29
-93.24
-61.24
-30.87
-4.52
18.12
37.24
52.58
63.84
70.93
75.21
78.39
80.88
83.34
87.35
93.69
102.14
111.35
119.32
124.22
124.09
116.98
102.77
83.55
62.36
41.99
23.92
8.12
-5.94
-18.96
-31.45
-42.98
-52.73
-60.41
-66.38
-71.45
-76.46
-81.69
-87.12
-92.81
-98.54
-103.82
-107.64
-108.56
-105.31
-97.56
-86.49
-74.70
-65.40
-61.10
-62.69
-68.99
-77.16
-83.55
-84.97
-79.58
-67.38
-50.12
-30.65
-12.00
3.48
14.72
21.91
26.17
28.97
31.53
34.52
37.95
41.46
44.56
46.93
48.63
50.06
51.72
53.80
55.81
56.51
54.51
48.84
39.72
28.74
18.29
10.77
7.70
9.32
14.73
22.54
31.25
39.60
46.39
50.39
50.42
45.54
35.72
22.03
6.67
-7.64
-18.34
-23.84
-23.98
-19.98
-13.92
-7.99
-3.72
-1.76
-2.02
-4.06
-7.47
-12.12
-17.90
-24.37
-30.53
-34.93
-36.06
-32.97
-25.63
-14.88
-2.09
11.44
24.90
38.03
50.83
63.13
74.36
83.53
89.65
92.06
90.82
86.74
81.13
75.30
70.16
65.80
61.47
55.80
47.28
34.79
17.96
-2.68
-26.02
-50.61
-75.23
-98.98
-121.19
-141.26
-158.54
-172.51
-183.00
-190.04
-193.63
-193.27
-187.76
-175.52
-155.44
-127.66
-94.07
-58.04
-23.32
7.05
31.56
50.22
63.98
73.95
80.74
84.47
85.13
83.22
79.97
77.07
75.87
76.69
78.58
79.83
78.80
74.83
68.59
61.78
56.32
53.57
53.97
57.24
62.49
68.33
73.12
75.50
74.98
72.44
69.20
66.75
66.10
67.11
68.28
67.44
63.12
55.63
47.45
40.93
37.67
37.90
40.39
42.80
42.91
40.11
36.07
34.46
37.41
45.24
56.65
68.79
77.61
78.72
68.85
47.18
16.46
-19.98
-57.83
-92.50
-116.55
-122.77
-110.12
-86.08
-67.52
-58.32
-56.51
-58.49
-57.95
-52.02
-41.23
-28.90
-19.12
-14.63
-15.06
-19.65
-26.84
-34.29
-40.04
-43.04
-43.48
-42.04
-39.25
-34.74
-29.40
-24.54
-21.11
-19.84
-21.12
-25.07
-31.04
-37.28
-40.85
-39.55
-32.21
-18.92
-1.41
17.44
34.20
45.92
50.68
48.01
38.10
22.02
1.69
-20.45
-41.87
-60.53
-75.30
-86.07
-93.52
-99.05
-104.28
-110.65
-119.27
-130.62
-144.51
-160.11
-176.23
-191.64
-205.27
-216.38
-224.39
-228.85
-229.19
-224.88
-215.43
-200.50
-179.97
-153.93
-122.82
-87.57
-49.72
-11.34
25.16
57.41
83.61
102.78
114.96
121.00
122.12
119.45
113.53
104.33
91.61
75.51
56.93
37.53
19.19
3.43
-9.06
-18.60
-26.23
-33.36
-41.24
-50.71
-61.91
-74.25
-86.63
-97.78
-106.79
-113.27
-117.30
-118.93
-117.73
-112.56
-101.97
-84.92
-61.53
-33.39
-3.21
25.96
51.65
72.46
88.09
99.09
106.51
111.57
115.62
119.97
125.71
133.46
143.07
153.74
164.21
173.22
179.86
183.78
185.02
183.76
180.10
173.99
165.38
154.42
141.65
128.00
114.70
103.02
94.20
89.16
88.33
91.53
97.85
105.76
113.44
119.20
121.94
121.39
118.19
113.54
108.68
104.47
101.08
98.03
94.45
89.53
82.91
74.90
66.33
58.26
51.54
46.57
43.24
41.10
39.63
38.37
36.95
34.97
31.96
27.31
20.49
11.17
-0.50
-13.95
-28.36
-42.93
-57.16
-70.89
-84.16
-96.93
-109.01
-120.04
-129.94
-139.20
-149.00
-160.81
-175.75
-193.99
-214.56
-235.82
-256.16
-274.59
-290.80
-304.81
-316.45
-325.01
-329.43
-328.61
-321.67
-308.02
-287.15
-258.67
-222.61
-179.90
-132.60
-83.61
-35.97
7.94
46.75
80.00
107.65
129.80
146.52
158.09
165.11
168.37
168.66
166.46
162.16
156.25
149.66
143.54
138.87
135.93
134.13
132.37
129.68
125.80
121.22
116.87
113.62
111.88
111.62
112.57
114.50
117.28
120.82
124.85
128.90
132.23
134.08
133.75
130.78
125.03
116.70
106.32
94.67
82.61
70.90
60.07
50.32
41.63
33.75
26.32
18.86
10.78
1.47
-9.55
-22.40
-36.77
-51.85
-66.52
-79.71
-90.64
-98.98
-104.86
-108.69
-110.95
-112.02
-112.11
-111.16
-108.98
-105.15
-99.20
-90.74
-79.70
-66.47
-51.97
-37.34
-23.61
-11.39
-0.72
8.72
17.30
25.16
32.12
37.82
41.92
44.19
44.52
42.88
39.28
33.92
27.27
20.16
13.53
8.21
4.60
2.56
1.61
1.20
1.09
1.54
3.16
6.56
12.01
19.08
26.65
32.98
36.11
34.17
25.83
10.80
-9.92
-33.89
-57.66
-77.61
-90.93
-96.33
-94.16
-85.76
-72.68
-56.03
-36.51
-15.00
6.88
26.60
41.30
48.67
47.79
39.42
25.63
9.18
-7.23
-21.32
-31.61
-37.50
-39.32
-38.21
-35.56
-32.53
-29.58
-26.52
-22.99
-18.97
-15.04
-12.10
-10.90
-11.55
-13.56
-16.15
-18.74
-21.19
-23.62
-25.91
-27.31
-26.57
-22.42
-14.48
-3.62
8.14
18.47
25.76
29.90
32.25
34.89
39.60
46.94
56.05
65.15
72.29
75.98
75.39
70.29
60.87
47.74
32.00
15.27
-0.54
-13.65
-22.75
-27.36
-27.79
-24.96
-20.11
-14.58
-9.47
-5.46
-2.67
-0.67
1.16
3.24
5.52
7.42
8.07
6.81
3.38
-1.85
-8.12
-14.52
-20.38
-25.29
-29.15
-32.01
-34.00
-35.18
-35.58
-35.09
-33.45
-30.41
-25.88
-20.13
-13.87
-8.10
-3.72
-1.22
-0.45
-0.77
-1.40
-1.76
-1.60
-0.91
0.40
2.56
5.78
10.07
14.96
19.65
23.32
25.56
26.51
26.75
26.93
27.44
28.30
29.20
29.83
30.05
29.90
29.58
29.31
29.30
29.63
30.29
30.94
31.01
29.70
26.31
20.58
12.88
4.27
-3.82
-9.96
-13.22
-13.32
-10.62
-5.98
-0.48
4.87
9.25
12.13
13.24
12.40
9.53
4.60
-2.20
-10.28
-18.65
-26.13
-31.74
-35.05
-36.36
-36.49
-36.35
-36.46
-36.78
-36.90
-36.36
-34.98
-32.90
-30.42
-27.67
-24.58
-20.90
-16.60
-12.06
-8.05
-5.44
-4.82
-6.27
-9.35
-13.42
-18.00
-23.01
-28.75
-35.65
-43.81
-52.68
-61.03
-67.24
-69.88
-68.28
-62.75
-54.49
-45.08
-35.97
-28.03
-21.52
-16.20
-11.65
-7.35
-2.70
2.97
10.31
19.55
30.27
41.12
50.17
55.50
55.94
51.53
43.56
34.07
25.08
18.08
13.62
11.62
11.62
13.14
15.76
18.97
22.02
24.07
24.45
22.98
20.15
16.92
14.31
13.14
13.75
16.19
20.18
25.29
30.77
35.58
38.52
38.55
35.20
28.71
20.02
10.46
1.35
-6.38
-12.22
-16.08
-18.22
-19.05
-19.05
-18.69
-18.28
-17.87
-17.34
-16.43
-14.91
-12.67
-9.70
-6.12
-2.05
2.38
7.09
12.01
17.08
22.27
27.52
32.87
38.19
43.15
47.11
49.26
48.90
45.81
40.44
33.78
27.06
21.20
16.54
12.83
9.58
6.46
3.58
1.44
0.52
0.96
2.31
3.75
4.37
3.59
1.38
-1.77
-5.16
-8.12
-10.35
-11.94
-13.16
-14.22
-15.09
-15.48
-14.92
-13.04
-9.68
-4.93
0.89
7.41
14.30
21.38
28.54
35.74
42.88
49.84
56.30
61.84
65.91
67.91
67.38
64.03
57.70
48.35
36.08
21.17
4.18
-13.98
-32.31
-49.71
-65.30
-78.58
-89.34
-97.58
-103.41
-107.00
-108.57
-108.44
-106.93
-104.30
-100.62
-95.84
-89.92
-83.02
-75.53
-68.00
-60.92
-54.53
-48.81
-43.54
-38.46
-33.35
-28.07
-22.44
-16.25
-9.42
-2.06
5.41
12.47
18.69
23.86
28.06
31.52
34.42
36.79
38.63
39.89
40.50
40.25
38.72
35.41
30.00
22.79
14.81
7.54
2.40
0.07
0.36
2.40
5.28
8.50
12.07
16.21
20.96
25.97
30.53
34.03
36.12
36.89
36.63
35.68
34.22
32.43
30.55
29.00
28.27
28.73
30.49
33.28
36.65
40.18
43.63
46.99
50.33
53.68
56.84
59.44
61.20
62.03
62.11
61.70
60.98
59.78
57.80
54.79
50.83
46.42
42.22
38.80
36.54
35.60
35.96
37.30
38.79
39.08
36.63
30.42
20.54
8.29
-4.38
-15.86
-25.68
-34.54
-43.68
-53.85
-64.70
-74.87
-82.83
-87.81
-90.22
-91.48
-93.22
-96.57
-101.76
-108.31
-115.36
-122.19
-128.50
-134.29
-139.67
-144.50
-148.31
-150.24
-149.40
-145.17
-137.61
-127.52
-116.11
-104.49
-93.06
-81.31
-68.00
-51.96
-32.72
-11.17
10.67
30.33
45.67
55.66
60.42
60.96
58.69
55.00
50.99
47.38
44.52
42.30
40.33
38.04
34.98
31.05
26.52
21.91
17.64
13.91
10.67
7.87
5.64
4.40
4.57
6.27
9.17
12.47
15.29
16.96
17.25
16.29
14.37
11.87
9.21
6.97
5.75
6.05
7.93
10.99
14.47
17.57
19.79
20.95
21.06
20.17
18.24
15.30
11.63
7.79
4.47
2.16
0.92
0.44
0.19
-0.21
-0.78
-1.36
-1.72
-1.79
-1.72
-1.83
-2.39
-3.56
-5.36
-7.62
-10.05
-12.29
-13.87
-14.32
-13.38
-11.02
-7.62
-3.81
-0.28
2.50
4.41
5.72
6.88
8.23
9.83
11.35
12.24
11.95
10.06
6.46
1.29
-5.14
-12.49
-20.49
-28.89
-37.48
-45.92
-53.82
-60.73
-66.25
-70.04
-71.92
-71.74
-69.47
-65.15
-59.00
-51.49
-43.27
-35.01
-27.17
-19.90
-13.05
-6.38
0.25
6.83
13.22
19.26
24.92
30.32
35.70
41.32
47.47
54.33
62.00
70.27
78.58
85.95
91.22
93.34
91.80
86.80
79.12
69.89
60.08
50.38
41.08
32.29
24.07
16.63
10.21
4.95
0.83
-2.39
-5.06
-7.55
-10.10
-12.74
-15.29
-17.38
-18.67
-18.92
-18.08
-16.37
-14.15
-11.79
-9.64
-7.87
-6.60
-5.86
-5.61
-5.65
-5.73
-5.54
-4.87
-3.64
-2.00
-0.18
1.61
3.27
4.93
6.83
9.23
12.30
15.99
20.02
23.97
27.37
29.78
30.94
30.74
29.25
26.69
23.35
19.68
16.17
13.24
11.22
10.17
9.90
10.07
10.32
10.43
10.40
10.33
10.38
10.57
10.76
10.71
10.17
8.99
7.20
5.04
2.81
0.79
-0.93
-2.40
-3.78
-5.18
-6.63
-8.02
-9.19
-10.02
-10.53
-10.85
-11.13
-11.44
-11.66
-11.48
-10.51
-8.41
-5.00
-0.40
4.98
10.56
15.69
19.84
22.65
23.94
23.72
22.12
19.48
16.22
12.87
9.84
7.36
5.47
4.00
2.72
1.46
0.23
-0.89
-1.73
-2.16
-2.20
-1.98
-1.72
-1.68
-2.00
-2.62
-3.27
-3.49
-2.91
-1.43
0.72
3.07
5.09
6.43
6.94
6.63
5.58
3.82
1.40
-1.50
-4.49
-6.92
-8.02
-7.07
-3.66
2.20
10.05
19.06
28.15
36.21
42.20
45.30
45.02
41.24
34.30
25.01
14.55
4.29
-4.64
-11.52
-16.22
-19.22
-21.27
-23.11
-25.20
-27.57
-29.98
-32.06
-33.52
-34.24
-34.25
-33.68
-32.65
-31.30
-29.85
-28.54
-27.56
-26.96
-26.56
-25.94
-24.68
-22.50
-19.40
-15.67
-11.74
-7.96
-4.44
-1.02
2.67
7.11
12.68
19.59
27.75
36.75
45.98
54.73
62.48
69.00
74.50
79.47
84.39
89.46
94.27
97.77
98.53
95.20
86.98
73.91
56.85
37.26
16.73
-3.37
-22.04
-38.67
-52.90
-64.53
-73.47
-79.73
-83.45
-84.90
-84.42
-82.27
-78.66
-73.74
-67.70
-60.87
-53.70
-46.76
-40.48
-35.13
-30.68
-26.89
-23.46
-20.06
-16.45
-12.45
-7.95
-2.94
2.37
7.57
12.17
15.80
18.44
20.43
22.38
24.84
28.09
32.04
36.38
40.86
45.42
50.15
54.95
59.31
62.20
62.28
58.37
49.95
37.34
21.66
4.37
-13.15
-29.84
-45.05
-58.26
-68.90
-76.25
-79.70
-79.09
-74.95
-68.47
-61.21
-54.54
-49.32
-45.79
-43.71
-42.56
-41.80
-40.86
-39.23
-36.43
-32.12
-26.19
-18.86
-10.65
-2.20
5.76
12.68
18.06
21.69
23.61
24.17
23.95
23.61
23.80
24.91
27.21
30.68
35.22
40.55
46.26
51.55
55.36
56.53
53.91
46.84
35.14
19.30
0.27
-20.65
-42.01
-62.27
-79.91
-93.58
-102.24
-105.52
-103.78
-98.11
-89.99
-80.76
-71.24
-61.58
-51.53
-40.74
-29.31
-17.79
-7.08
2.04
9.22
14.67
18.95
22.61
25.97
29.16
32.25
35.46
39.16
43.55
48.42
53.00
56.16
56.94
54.98
50.78
45.33
39.59
33.96
28.09
21.20
12.51
1.75
-10.71
-24.02
-37.12
-48.94
-58.55
-65.11
-68.00
-67.01
-62.52
-55.57
-47.66
-40.32
-34.56
-30.68
-28.20
-26.26
-24.07
-21.20
-17.72
-13.94
-10.25
-6.80
-3.67
-0.91
1.33
2.80
3.32
2.99
2.28
1.93
2.69
5.00
8.86
13.78
18.90
23.10
25.28
24.66
20.94
14.53
6.48
-1.83
-9.05
-14.26
-17.16
-18.02
-17.46
-16.19
-14.85
-13.92
-13.74
-14.44
-15.91
-17.72
-19.18
-19.53
-18.16
-14.83
-9.78
-3.68
2.60
8.17
12.37
14.93
15.97
15.95
15.49
15.27
15.75
17.23
19.79
23.33
27.63
32.37
37.19
41.72
45.73
49.07
51.74
53.75
55.11
55.76
55.55
54.36
52.15
49.06
45.34
41.26
37.03
32.74
28.32
23.59
18.25
12.01
4.72
-3.54
-12.24
-20.56
-27.56
-32.43
-34.73
-34.53
-32.29
-28.50
-23.51
-17.33
-9.73
-0.50
10.32
22.38
34.99
47.39
58.96
69.42
78.82
87.36
95.19
102.35
108.93
114.75
119.47
122.75
124.36
124.32
122.90
120.56
117.82
115.43
113.40
111.05
107.41
101.81
94.28
85.36
75.82
66.29
57.56
49.39
40.83
30.94
19.50
7.13
-5.06
-15.85
-24.12
-28.39
-28.66
-26.45
-24.29
-25.04
-31.34
-45.35
-68.32
-103.00
-145.41
-186.40
-215.63
-227.07
-220.54
-199.75
-169.89
-136.13
-103.89
-73.81
-46.96
-24.85
-8.73
1.26
6.29
8.28
9.30
9.76
11.02
13.31
16.10
18.62
20.30
21.07
21.10
20.65
19.52
18.33
17.37
16.83
16.61
16.36
15.61
13.98
11.32
7.03
1.95
-2.16
-3.17
0.12
7.29
16.31
24.64
29.94
29.52
22.88
11.61
-1.65
-15.00
-28.04
-41.46
-55.86
-71.73
-91.37
-115.96
-144.45
-173.37
-197.84
-212.70
-213.69
-198.05
-155.63
-88.66
-12.42
53.03
95.09
112.87
113.94
104.74
89.80
71.90
51.52
30.42
11.90
-0.64
-5.75
-4.91
-1.68
0.68
0.30
-4.16
-11.78
-19.83
-25.26
-26.49
-23.97
-19.42
-14.25
-9.23
-5.49
-3.55
-3.13
-3.39
-3.56
-3.19
-2.13
-0.23
2.54
5.49
7.84
9.16
9.44
8.90
7.80
6.34
4.74
3.16
1.45
-0.57
-2.87
-5.16
-7.06
-8.29
-8.86
-8.98
-9.06
-9.44
-10.32
-11.72
-13.50
-15.54
-17.75
-20.07
-22.33
-24.16
-25.13
-24.84
-23.08
-19.95
-15.80
-11.06
-6.18
-1.52
2.66
6.15
8.78
10.50
11.36
11.61
11.60
11.66
12.03
12.73
13.54
14.21
14.54
14.47
14.09
13.54
12.91
12.16
11.17
9.84
8.18
6.30
4.38
2.53
0.82
-0.73
-2.15
-3.46
-4.66
-5.86
-7.19
-8.86
-11.04
-13.77
-16.81
-19.64
-21.57
-21.95
-20.30
-16.65
-11.44
-5.49
0.32
5.29
9.09
11.72
13.37
14.25
14.51
14.25
13.65
13.01
12.70
12.98
13.90
15.25
16.62
17.64
18.08
17.95
17.42
16.62
15.60
14.30
12.61
10.47
7.97
5.30
2.67
0.25
-1.92
-3.90
-5.84
-7.88
-10.15
-12.73
-15.59
-18.60
-21.44
-23.61
-24.54
-23.72
-20.98
-16.47
-10.78
-4.66
1.11
5.99
9.71
12.23
13.68
14.21
14.01
13.32
12.43
11.65
11.22
11.22
11.53
11.97
12.30
12.41
12.29
12.02
11.61
11.01
10.07
8.64
6.67
4.24
1.58
-0.97
-3.17
-4.87
-6.09
-6.98
-7.78
-8.72
-10.02
-11.80
-14.04
-16.56
-18.93
-20.57
-20.86
-19.37
-16.03
-11.21
-5.60
0.00
4.93
8.78
11.42
12.94
13.52
13.34
12.59
11.48
10.29
9.31
8.77
8.77
9.26
10.08
10.98
11.74
12.22
12.34
12.10
11.52
10.61
9.34
7.76
5.97
4.09
2.27
0.63
-0.78
-1.96
-3.01
-4.09
-5.41
-7.11
-9.30
-11.85
-14.41
-16.45
-17.38
-16.77
-14.52
-10.88
-6.37
-1.62
2.81
6.51
9.23
10.88
11.46
11.07
9.93
8.38
6.76
5.44
4.66
4.50
4.89
5.64
6.49
7.18
7.55
7.45
6.80
5.67
4.13
2.39
0.68
-0.77
-1.73
-2.09
-1.87
-1.21
-0.37
0.32
0.60
0.29
-0.64
-2.09
-3.80
-5.42
-6.51
-6.61
-5.40
-2.75
1.16
5.90
10.80
15.16
18.40
20.20
20.60
19.94
18.75
17.58
16.82
16.64
16.95
17.58
18.32
19.08
19.84
20.54
21.18
21.66
21.89
21.87
21.68
21.45
21.25
21.08
20.83
20.44
19.92
19.46
19.31
19.65
20.44
21.30
21.74
21.37
20.19
18.67
17.63
17.95
20.21
24.39
29.86
35.59
40.41
43.29
43.52
40.80
35.19
27.08
17.10
6.06
-5.17
-15.69
-24.70
-31.54
-35.63
-36.68
-34.77
-30.40
-24.48
-18.16
-12.51
-8.28
-5.70
-4.57
-4.48
-5.11
-6.32
-8.17
-10.73
-13.89
-17.33
-20.62
-23.40
-25.59
-27.36
-29.05
-30.92
-32.95
-34.73
-35.58
-34.79
-31.92
-26.99
-20.53
-13.34
-6.34
-0.28
4.42
7.61
9.30
9.60
8.61
6.57
3.89
1.14
-1.10
-2.41
-2.75
-2.36
-1.63
-0.93
-0.41
-0.07
0.12
0.11
-0.21
-0.95
-2.09
-3.46
-4.91
-6.42
-8.04
-9.89
-11.95
-13.97
-15.71
-17.02
-18.02
-19.04
-20.27
-21.45
-21.87
-20.48
-16.34
-9.09
0.92
12.65
24.63
35.38
43.63
48.48
49.60
47.16
41.79
34.40
25.99
17.33
8.92
0.97
-6.50
-13.46
-19.82
-25.51
-30.49
-34.82
-38.63
-41.95
-44.57
-46.08
-46.03
-44.15
-40.62
-36.02
-31.26
-27.17
-24.32
-22.83
-22.54
-23.09
-24.09
-25.24
-26.25
-26.78
-26.40
-24.61
-20.96
-15.20
-7.42
1.98
12.29
22.65
32.23
40.35
46.58
50.77
52.89
53.06
51.38
47.93
42.77
35.95
27.49
17.46
6.12
-5.95
-17.76
-27.92
-34.94
-37.69
-35.78
-29.80
-21.22
-11.92
-3.70
2.20
5.36
6.04
4.97
3.00
0.82
-1.17
-2.85
-4.30
-5.54
-6.50
-6.87
-6.21
-4.10
-0.36
4.83
10.89
17.01
22.24
25.81
27.27
26.57
24.14
20.73
17.21
14.32
12.38
11.19
10.15
8.42
5.31
0.53
-5.75
-12.90
-20.02
-26.21
-30.84
-33.63
-34.70
-34.53
-33.78
-33.14
-33.16
-34.18
-36.34
-39.56
-43.58
-48.02
-52.41
-56.23
-59.10
-60.81
-61.44
-61.31
-60.83
-60.32
-59.81
-58.93
-57.00
-53.34
-47.62
-40.03
-31.36
-22.50
-14.09
-6.11
1.91
10.54
19.78
28.75
35.88
39.44
38.40
32.95
24.53
15.30
7.49
2.64
1.27
2.79
5.70
8.08
8.10
4.47
-3.14
-13.79
-25.22
-33.88
-35.55
-26.50
-4.91
28.01
67.75
107.60
140.70
162.19
170.44
167.08
155.49
139.16
120.50
100.74
80.66
61.45
44.81
32.45
25.29
22.82
23.33
24.63
25.08
24.23
22.84
22.28
23.72
27.44
32.62
37.79
41.42
42.63
41.56
39.16
36.83
35.80
36.69
39.35
43.07
46.88
49.93
51.76
52.31
51.82
50.64
49.04
47.15
44.94
42.29
39.14
35.63
32.04
28.79
26.20
24.42
23.39
22.86
22.59
22.40
22.24
22.11
22.04
21.94
21.62
20.80
19.24
16.80
13.55
9.78
5.83
1.95
-1.91
-6.09
-11.06
-17.13
-24.20
-31.68
-38.66
-44.24
-47.81
-49.14
-48.34
-45.81
-42.14
-38.14
-34.82
-33.14
-33.63
-36.23
-40.13
-44.12
-47.11
-48.55
-48.54
-47.69
-46.63
-45.63
-44.60
-43.17
-41.05
-38.32
-35.44
-33.07
-31.73
-31.59
-32.37
-33.45
-34.08
-33.70
-31.99
-28.94
-24.73
-19.62
-13.85
-7.66
-1.36
4.59
9.57
12.78
13.51
11.36
6.43
-0.47
-8.01
-14.60
-18.91
-20.22
-18.58
-14.59
-9.13
-3.04
3.08
8.85
13.96
18.15
21.18
22.92
23.41
22.84
21.51
19.71
17.67
15.53
13.38
11.27
9.22
7.24
5.36
3.58
1.91
0.33
-1.23
-2.84
-4.65
-6.77
-9.23
-11.90
-14.47
-16.55
-17.74
-17.84
-16.88
-15.20
-13.25
-11.50
-10.24
-9.56
-9.35
-9.40
-9.50
-9.52
-9.46
-9.45
-9.62
-10.05
-10.68
-11.31
-11.68
-11.60
-11.01
-10.02
-8.88
-7.84
-7.10
-6.70
-6.62
-6.76
-7.05
-7.46
-7.97
-8.58
-9.25
-9.89
-10.36
-10.57
-10.51
-10.26
-9.96
-9.76
-9.72
-9.86
-10.14
-10.53
-10.92
-11.19
-11.08
-10.39
-8.99
-6.97
-4.63
-2.30
-0.30
1.24
2.39
3.26
3.98
4.59
5.09
5.49
5.82
6.16
6.58
7.13
7.90
8.93
10.31
12.12
14.40
17.14
20.25
23.59
26.98
30.18
32.96
35.04
36.17
36.16
34.90
32.44
28.94
24.64
19.79
14.65
9.44
4.35
-0.38
-4.60
-8.16
-10.99
-13.15
-14.68
-15.60
-15.93
-15.71
-15.03
-14.09
-13.09
-12.21
-11.50
-10.95
-10.49
-10.20
-10.24
-10.80
-11.97
-13.65
-15.46
-16.98
-17.83
-17.83
-17.01
-15.58
-13.77
-11.76
-9.72
-7.77
-6.06
-4.76
-4.02
-3.97
-4.59
-5.78
-7.32
-8.99
-10.54
-11.83
-12.80
-13.50
-14.03
-14.58
-15.27
-16.22
-17.44
-18.80
-20.07
-20.89
-20.89
-19.79
-17.50
-14.20
-10.32
-6.42
-3.06
-0.64
0.68
1.01
0.63
-0.08
-0.80
-1.38
-1.77
-2.01
-2.11
-2.04
-1.73
-1.22
-0.62
-0.13
0.07
-0.01
-0.20
-0.28
-0.06
0.41
0.87
0.99
0.51
-0.60
-2.14
-3.82
-5.39
-6.72
-7.84
-8.84
-9.82
-10.84
-11.95
-13.20
-14.62
-16.06
-17.22
-17.64
-16.89
-14.82
-11.64
-7.90
-4.30
-1.37
0.60
1.67
2.04
1.95
1.54
0.81
-0.27
-1.64
-3.17
-4.61
-5.69
-6.26
-6.28
-5.89
-5.31
-4.72
-4.25
-3.94
-3.78
-3.77
-3.95
-4.35
-5.00
-5.84
-6.78
-7.70
-8.52
-9.22
-9.82
-10.38
-10.96
-11.53
-12.07
-12.53
-12.88
-13.06
-12.97
-12.40
-11.15
-9.10
-6.33
-3.15
0.00
2.73
4.82
6.27
7.20
7.70
7.73
7.23
6.15
4.65
3.06
1.74
0.95
0.72
0.91
1.30
1.68
1.92
2.04
2.06
2.05
1.97
1.75
1.27
0.46
-0.67
-2.04
-3.50
-4.90
-6.12
-7.14
-7.99
-8.79
-9.64
-10.67
-11.94
-13.42
-14.89
-15.96
-16.18
-15.15
-12.74
-9.14
-4.80
-0.32
3.75
7.02
9.27
10.44
10.58
9.85
8.48
6.77
5.05
3.62
2.70
2.34
2.46
2.91
3.48
4.02
4.44
4.69
4.77
4.62
4.20
3.45
2.36
0.99
-0.57
-2.17
-3.69
-5.06
-6.25
-7.25
-8.15
-9.08
-10.26
-11.87
-13.91
-16.15
-18.04
-18.92
-18.23
-15.74
-11.64
-6.48
-0.99
4.14
8.42
11.58
13.54
14.36
14.14
13.09
11.45
9.57
7.78
6.39
5.57
5.33
5.54
5.98
6.46
6.84
7.08
7.17
7.10
6.81
6.17
5.08
3.53
1.64
-0.44
-2.47
-4.30
-5.86
-7.18
-8.39
-9.67
-11.17
-12.97
-14.98
-16.91
-18.27
-18.51
-17.14
-13.98
-9.26
-3.55
2.35
7.65
11.81
14.62
16.11
16.44
15.83
14.45
12.50
10.25
8.07
6.28
5.15
4.77
5.05
5.75
6.60
7.37
7.89
8.07
7.85
7.21
6.16
4.73
3.01
1.17
-0.61
-2.18
-3.47
-4.54
-5.57
-6.80
-8.46
-10.67
-13.36
-16.18
-18.52
-19.66
-19.02
-16.32
-11.75
-5.96
0.18
5.81
10.30
13.35
14.98
15.36
14.75
13.41
11.61
9.63
7.70
6.07
4.90
4.31
4.30
4.84
5.77
6.85
7.79
8.31
8.19
7.35
5.88
3.96
1.84
-0.26
-2.16
-3.79
-5.14
-6.32
-7.50
-8.93
-10.78
-13.07
-15.51
-17.55
-18.45
-17.59
-14.69
-10.00
-4.22
1.70
6.88
10.80
13.32
14.59
14.88
14.40
13.28
11.64
9.69
7.75
6.16
5.17
4.88
5.18
5.86
6.70
7.52
8.15
8.40
8.07
7.02
5.26
2.98
0.51
-1.84
-3.88
-5.62
-7.25
-9.05
-11.20
-13.73
-16.42
-18.79
-20.21
-20.11
-18.12
-14.28
-9.03
-3.12
2.65
7.62
11.34
13.70
14.73
14.62
13.61
11.94
9.91
7.83
6.03
4.76
4.20
4.38
5.18
6.32
7.48
8.32
8.60
8.20
7.10
5.39
3.20
0.73
-1.82
-4.26
-6.44
-8.38
-10.20
-12.13
-14.36
-16.95
-19.74
-22.29
-24.01
-24.28
-22.64
-18.98
-13.59
-7.14
-0.48
5.52
10.24
13.39
15.00
15.36
14.86
13.90
12.76
11.64
10.68
9.99
9.66
9.73
10.11
10.63
11.07
11.23
11.00
10.35
9.32
7.94
6.18
4.01
1.46
-1.33
-4.11
-6.59
-8.55
-10.02
-11.21
-12.50
-14.30
-16.84
-20.04
-23.42
-26.17
-27.35
-26.22
-22.50
-16.57
-9.32
-1.91
4.63
9.68
13.10
15.13
16.13
16.38
16.08
15.39
14.54
13.87
13.69
14.18
15.26
16.60
17.76
18.32
18.07
17.06
15.52
13.80
12.19
10.80
9.55
8.18
6.40
4.08
1.33
-1.54
-4.18
-6.32
-7.99
-9.37
-10.83
-12.64
-14.98
-17.89
-21.25
-24.86
-28.32
-31.09
-32.46
-31.76
-28.59
-23.03
-15.76
-7.82
-0.33
5.89
10.52
13.68
15.76
17.16
18.13
18.76
19.11
19.32
19.59
20.15
21.11
22.36
23.63
24.59
24.98
24.77
24.08
23.15
22.16
21.17
20.05
18.58
16.60
14.13
11.39
8.77
6.59
5.01
3.87
2.83
1.43
-0.58
-3.25
-6.33
-9.44
-12.21
-14.48
-16.30
-17.95
-19.82
-22.24
-25.40
-29.21
-33.21
-36.65
-38.58
-38.15
-34.92
-28.99
-21.06
-12.25
-3.75
3.58
9.32
13.53
16.54
18.69
20.18
21.13
21.62
21.83
22.00
22.40
23.13
24.13
25.17
25.98
26.35
26.21
25.60
24.68
23.60
22.51
21.46
20.43
19.33
18.05
16.49
14.68
12.70
10.69
8.78
7.05
5.53
4.17
2.86
1.45
-0.27
-2.40
-4.94
-7.73
-10.50
-12.99
-15.09
-16.91
-18.68
-20.72
-23.29
-26.47
-30.16
-34.03
-37.49
-39.78
-40.05
-37.69
-32.51
-24.93
-15.95
-6.83
1.23
7.49
11.78
14.42
15.96
16.92
17.58
18.05
18.33
18.50
18.73
19.21
20.06
21.19
22.39
23.35
23.87
23.88
23.44
22.68
21.67
20.45
18.99
17.29
15.36
13.26
11.07
8.90
6.88
5.14
3.75
2.68
1.72
0.62
-0.84
-2.74
-4.96
-7.25
-9.39
-11.26
-12.88
-14.44
-16.19
-18.33
-21.03
-24.38
-28.25
-32.30
-35.88
-38.13
-38.19
-35.46
-29.92
-22.18
-13.35
-4.70
2.68
8.20
11.81
13.86
14.86
15.27
15.37
15.34
15.31
15.40
15.85
16.78
18.19
19.91
21.54
22.69
23.07
22.63
21.58
20.29
19.07
18.05
17.14
16.08
14.60
12.61
10.25
7.81
5.64
3.95
2.72
1.71
0.58
-0.99
-3.11
-5.70
-8.49
-11.17
-13.50
-15.38
-16.88
-18.19
-19.57
-21.33
-23.70
-26.77
-30.36
-33.96
-36.76
-37.82
-36.37
-32.15
-25.54
-17.48
-9.21
-1.81
4.01
8.11
10.68
12.09
12.70
12.73
12.38
11.86
11.47
11.48
12.07
13.18
14.55
15.81
16.68
17.04
16.93
16.46
15.75
14.84
13.68
12.24
10.54
8.59
6.49
4.35
2.33
0.62
-0.65
-1.44
-1.94
-2.41
-3.18
-4.42
-6.04
-7.76
-9.27
-10.39
-11.14
-11.72
-12.42
-13.47
-15.03
-17.22
-20.02
-23.24
-26.45
-28.88
-29.72
-28.32
-24.49
-18.62
-11.57
-4.35
2.18
7.49
11.44
14.09
15.59
16.10
15.80
14.94
13.84
12.86
12.29
12.25
12.72
13.53
14.42
15.14
15.47
15.25
14.37
12.84
10.73
8.16
5.30
2.31
-0.67
-3.50
-6.06
-8.28
-10.20
-11.95
-13.78
-15.86
-18.17
-20.41
-22.01
-22.38
-21.17
-18.49
-14.91
-11.31
-8.55
-7.19
-7.42
-9.02
-11.43
-13.85
-15.24
-14.55
-11.02
-4.50
4.30
13.93
22.65
28.96
32.13
32.29
30.19
26.78
22.84
18.83
14.94
11.35
8.27
5.92
4.48
3.88
3.85
4.01
4.02
3.72
3.25
2.85
2.80
3.20
3.89
4.59
5.03
5.10
4.90
4.71
4.80
5.30
6.11
6.99
7.65
7.90
7.72
7.25
6.72
6.31
6.11
6.05
5.92
5.37
4.02
1.52
-2.23
-6.98
-12.09
-16.58
-19.42
-19.87
-17.74
-13.44
-7.85
-1.99
3.27
7.40
10.22
11.77
12.18
11.64
10.38
8.78
7.27
6.26
5.98
6.40
7.26
8.24
9.12
9.81
10.40
10.97
11.50
11.87
11.89
11.40
10.38
8.94
7.26
5.52
3.80
2.05
0.14
-2.03
-4.49
-7.13
-9.73
-12.03
-13.89
-15.33
-16.53
-17.74
-19.19
-21.02
-23.27
-25.83
-28.44
-30.68
-31.95
-31.63
-29.28
-24.83
-18.75
-11.86
-5.19
0.44
4.56
7.12
8.35
8.56
8.06
7.11
6.02
5.17
4.96
5.70
7.45
9.95
12.76
15.33
17.20
18.12
18.09
17.25
15.88
14.24
12.52
10.83
9.15
7.38
5.41
3.23
0.92
-1.36
-3.40
-5.09
-6.43
-7.53
-8.59
-9.78
-11.26
-13.18
-15.65
-18.64
-21.91
-24.95
-26.98
-27.23
-25.16
-20.81
-14.81
-8.23
-2.20
2.45
5.42
6.94
7.55
7.79
7.99
8.26
8.56
8.81
8.99
9.22
9.59
10.13
10.76
11.30
11.53
11.34
10.73
9.87
8.97
8.17
7.46
6.70
5.65
4.15
2.19
-0.09
-2.42
-4.56
-6.38
-7.85
-9.08
-10.23
-11.40
-12.70
-14.23
-16.10
-18.43
-21.22
-24.21
-26.86
-28.42
-28.15
-25.63
-20.95
-14.80
-8.18
-2.13
2.66
5.94
7.86
8.76
8.94
8.56
7.74
6.66
5.58
4.86
4.76
5.34
6.42
7.59
8.44
8.69
8.28
7.33
6.05
4.68
3.33
2.02
0.68
-0.84
-2.67
-4.86
-7.32
-9.89
-12.35
-14.53
-16.37
-17.92
-19.35
-20.89
-22.78
-25.20
-28.21
-31.68
-35.27
-38.41
-40.39
-40.57
-38.48
-34.03
-27.54
-19.67
-11.28
-3.27
3.68
9.19
13.20
15.86
17.47
18.34
18.76
19.00
19.36
20.07
21.24
22.76
24.30
25.42
25.71
24.99
23.34
21.06
18.46
15.71
12.79
9.51
5.65
1.17
-3.74
-8.65
-13.05
-16.49
-18.74
-19.91
-20.36
-20.67
-21.39
-22.94
-25.40
-28.43
-31.30
-33.07
-32.84
-30.05
-24.72
-17.43
-9.19
-1.03
6.36
12.73
18.33
23.59
28.89
34.29
39.49
43.98
47.24
48.93
48.96
47.49
44.83
41.32
37.22
32.74
28.06
23.38
18.93
14.96
11.66
9.03
6.89
4.87
2.57
-0.25
-3.53
-6.96
-10.03
-12.30
-13.59
-14.10
-14.31
-14.83
-16.18
-18.63
-22.14
-26.34
-30.56
-33.96
-35.71
-35.10
-31.89
-26.35
-19.28
-11.77
-4.89
0.66
4.71
7.51
9.56
11.25
12.77
14.06
15.02
15.57
15.80
15.85
15.88
15.90
15.83
15.57
15.08
14.41
13.65
12.88
12.11
11.26
10.24
9.05
7.73
6.32
4.78
3.02
0.96
-1.36
-3.77
-6.01
-7.89
-9.34
-10.49
-11.57
-12.82
-14.41
-16.44
-18.95
-21.82
-24.79
-27.28
-28.57
-27.88
-24.79
-19.41
-12.42
-4.88
2.23
8.18
12.74
16.03
18.35
19.97
21.03
21.67
21.99
22.17
22.34
22.53
22.69
22.67
22.40
21.89
21.26
20.63
20.04
19.38
18.48
17.16
15.37
13.22
10.92
8.64
6.49
4.41
2.29
0.05
-2.31
-4.68
-6.88
-8.79
-10.37
-11.74
-13.06
-14.50
-16.24
-18.45
-21.27
-24.71
-28.51
-32.04
-34.35
-34.47
-31.75
-26.19
-18.51
-9.95
-1.82
4.87
9.72
12.86
14.76
15.97
16.91
17.78
18.61
19.33
19.88
20.28
20.61
21.02
21.57
22.21
22.80
23.16
23.11
22.60
21.64
20.29
18.66
16.82
14.84
12.81
10.77
8.72
6.61
4.38
1.95
-0.67
-3.38
-6.05
-8.51
-10.68
-12.54
-14.19
-15.85
-17.82
-20.39
-23.67
-27.45
-31.13
-33.82
-34.57
-32.74
-28.26
-21.71
-14.11
-6.64
-0.20
4.77
8.25
10.54
11.98
12.90
13.49
13.92
14.37
15.00
15.90
17.04
18.25
19.25
19.80
19.76
19.20
18.28
17.25
16.23
15.23
14.13
12.73
10.98
8.92
6.76
4.76
3.04
1.55
0.06
-1.71
-3.95
-6.61
-9.46
-12.18
-14.56
-16.54
-18.29
-20.04
-22.08
-24.61
-27.68
-31.10
-34.40
-36.87
-37.60
-35.87
-31.37
-24.46
-16.14
-7.72
-0.40
5.13
8.83
11.12
12.57
13.58
14.32
14.76
14.87
14.75
14.62
14.67
15.03
15.66
16.33
16.78
16.78
16.24
15.19
13.82
12.33
10.90
9.63
8.51
7.41
6.17
4.65
2.79
0.60
-1.81
-4.30
-6.71
-8.93
-10.92
-12.76
-14.59
-16.63
-19.05
-21.97
-25.33
-28.91
-32.21
-34.55
-35.19
-33.56
-29.51
-23.42
-16.13
-8.64
-1.88
3.62
7.74
10.66
12.65
13.96
14.67
14.84
14.52
13.89
13.19
12.70
12.65
13.11
13.99
15.05
15.94
16.34
16.08
15.14
13.72
12.04
10.33
8.63
6.78
4.58
1.88
-1.26
-4.57
-7.64
-10.13
-11.85
-12.94
-13.75
-14.74
-16.35
-18.83
-22.17
-26.01
-29.73
-32.49
-33.49
-32.14
-28.31
-22.35
-15.04
-7.31
-0.05
6.14
10.95
14.35
16.46
17.45
17.50
16.86
15.84
14.84
14.22
14.21
14.84
15.87
16.92
17.61
17.68
17.15
16.21
15.15
14.19
13.31
12.32
10.91
8.79
5.87
2.30
-1.62
-5.45
-8.84
-11.57
-13.62
-15.17
-16.58
-18.26
-20.55
-23.62
-27.34
-31.24
-34.54
-36.32
-35.74
-32.39
-26.44
-18.62
-10.05
-1.89
4.98
10.16
13.68
15.89
17.16
17.77
17.88
17.62
17.16
16.74
16.65
17.06
17.93
19.00
19.91
20.25
19.85
18.73
17.11
15.26
13.36
11.46
9.43
7.13
4.44
1.38
-1.89
-5.17
-8.27
-11.09
-13.63
-15.96
-18.15
-20.36
-22.74
-25.54
-28.97
-33.11
-37.71
-42.15
-45.39
-46.35
-44.20
-38.74
-30.50
-20.63
-10.54
-1.46
5.82
11.11
14.71
17.10
18.78
20.03
20.92
21.44
21.60
21.52
21.47
21.70
22.32
23.23
24.15
24.76
24.83
24.34
23.38
22.13
20.69
19.04
17.11
14.79
12.05
8.91
5.44
1.68
-2.31
-6.51
-10.78
-14.98
-18.93
-22.49
-25.68
-28.67
-31.78
-35.29
-39.29
-43.55
-47.39
-49.84
-49.90
-46.88
-40.71
-31.99
-21.89
-11.76
-2.73
4.53
9.90
13.62
16.11
17.76
18.90
19.86
20.94
22.42
24.46
27.00
29.74
32.23
33.96
34.61
34.06
32.41
29.89
26.72
23.07
19.01
14.62
9.95
5.11
0.17
-4.83
-9.90
-15.07
-20.29
-25.37
-30.01
-33.91
-36.94
-39.24
-41.18
-43.26
-45.93
-49.49
-53.99
-59.11
-64.21
-68.27
-70.10
-68.63
-63.32
-54.38
-42.81
-30.16
-17.98
-7.38
1.18
7.83
13.01
17.12
20.45
23.14
25.33
27.32
29.44
31.90
34.70
37.52
39.93
41.55
42.29
42.35
42.12
41.94
41.99
42.19
42.32
42.22
41.84
41.36
41.10
41.48
42.79
45.20
48.59
52.61
56.76
60.46
63.25
64.86
65.23
64.47
62.71
59.92
55.81
49.77
41.04
29.08
14.01
-3.07
-20.07
-34.35
-43.48
-46.00
-41.90
-32.52
-20.06
-6.87
5.18
14.91
21.87
26.03
27.65
27.14
25.05
22.09
19.04
16.58
15.12
14.63
14.69
14.64
13.85
11.98
9.12
5.76
2.53
-0.10
-1.97
-3.33
-4.62
-6.27
-8.45
-11.06
-13.77
-16.19
-18.04
-19.29
-20.09
-20.77
-21.69
-23.16
-25.40
-28.37
-31.80
-35.09
-37.38
-37.77
-35.58
-30.62
-23.34
-14.73
-6.05
1.58
7.51
11.60
14.11
15.48
16.06
16.07
15.61
14.77
13.73
12.68
11.79
11.11
10.58
10.08
9.44
8.55
7.35
5.87
4.18
2.34
0.41
-1.64
-3.85
-6.31
-9.01
-11.84
-14.56
-16.88
-18.60
-19.66
-20.19
-20.42
-20.68
-21.21
-22.20
-23.74
-25.85
-28.41
-31.14
-33.50
-34.75
-34.16
-31.23
-25.94
-18.84
-10.86
-3.06
3.67
8.88
12.49
14.64
15.57
15.45
14.45
12.80
10.89
9.22
8.30
8.44
9.61
11.42
13.24
14.41
14.56
13.64
11.96
9.96
8.00
6.21
4.49
2.62
0.46
-1.95
-4.47
-6.89
-9.03
-10.85
-12.35
-13.59
-14.70
-15.84
-17.22
-19.08
-21.55
-24.55
-27.72
-30.38
-31.75
-31.12
-28.14
-22.96
-16.21
-8.90
-2.06
3.53
7.46
9.75
10.67
10.58
9.76
8.47
6.95
5.52
4.56
4.37
5.08
6.51
8.22
9.66
10.41
10.26
9.34
7.93
6.37
4.82
3.27
1.58
-0.43
-2.77
-5.32
-7.81
-9.99
-11.70
-12.97
-13.98
-15.01
-16.33
-18.14
-20.47
-23.15
-25.80
-27.85
-28.62
-27.53
-24.28
-19.05
-12.47
-5.49
0.89
5.93
9.28
11.03
11.44
10.87
9.64
7.98
6.19
4.66
3.77
3.81
4.77
6.32
7.92
9.05
9.39
8.95
7.94
6.66
5.28
3.79
2.07
-0.03
-2.54
-5.34
-8.18
-10.78
-12.92
-14.54
-15.79
-17.01
-18.58
-20.81
-23.74
-27.04
-30.05
-31.92
-31.89
-29.53
-24.93
-18.64
-11.54
-4.57
1.53
6.33
9.76
11.99
13.24
13.72
13.57
12.96
12.07
11.19
10.56
10.37
10.64
11.21
11.81
12.13
11.99
11.29
10.08
8.45
6.53
4.38
1.97
-0.67
-3.57
-6.61
-9.59
-12.29
-14.54
-16.29
-17.73
-19.17
-20.98
-23.42
-26.54
-30.06
-33.43
-35.88
-36.61
-35.01
-30.90
-24.58
-16.83
-8.64
-1.01
5.39
10.29
13.78
16.15
17.69
18.59
18.92
18.73
18.18
17.52
17.04
16.99
17.39
18.10
18.80
19.20
19.12
18.54
17.56
16.25
14.58
12.44
9.76
6.55
3.09
-0.27
-3.17
-5.43
-7.13
-8.59
-10.25
-12.50
-15.52
-19.23
-23.21
-26.76
-29.08
-29.43
-27.35
-22.84
-16.35
-8.72
-0.92
6.16
11.94
16.25
19.19
21.02
22.01
22.37
22.28
21.95
21.62
21.52
21.80
22.37
23.01
23.41
23.37
22.85
21.93
20.78
19.50
18.03
16.18
13.74
10.60
6.85
2.81
-1.06
-4.36
-6.91
-8.83
-10.51
-12.47
-15.12
-18.65
-22.88
-27.33
-31.25
-33.79
-34.13
-31.73
-26.51
-18.97
-10.12
-1.18
6.74
12.99
17.44
20.42
22.38
23.71
24.56
24.95
24.89
24.52
24.15
24.17
24.79
25.95
27.24
28.07
27.92
26.58
24.21
21.27
18.24
15.46
12.96
10.57
8.06
5.31
2.28
-0.89
-4.08
-7.19
-10.12
-12.84
-15.30
-17.58
-19.84
-22.42
-25.69
-29.92
-35.11
-40.83
-46.19
-49.96
-50.93
-48.28
-41.91
-32.63
-21.86
-11.24
-2.05
5.16
10.58
14.81
18.45
21.78
24.73
27.02
28.51
29.34
29.86
30.45
31.27
32.19
32.88
32.99
32.40
31.20
29.65
27.97
26.26
24.41
22.22
19.52
16.27
12.67
9.09
5.93
3.48
1.77
0.54
-0.68
-2.36
-4.76
-7.83
-11.25
-14.59
-17.51
-19.96
-22.13
-24.37
-27.06
-30.46
-34.67
-39.54
-44.62
-49.04
-51.62
-51.16
-46.78
-38.50
-27.28
-14.86
-3.18
6.37
13.31
18.08
21.57
24.64
27.63
30.42
32.72
34.29
35.24
35.86
36.44
37.05
37.52
37.56
36.99
35.83
34.29
32.65
31.05
29.47
27.73
25.62
23.06
20.18
17.25
14.58
12.38
10.62
9.08
7.46
5.53
3.28
0.82
-1.58
-3.73
-5.63
-7.43
-9.41
-11.77
-14.55
-17.59
-20.62
-23.40
-25.78
-27.80
-29.67
-31.72
-34.28
-37.62
-41.75
-46.27
-50.32
-52.67
-52.11
-47.92
-40.20
-29.95
-18.74
-8.17
0.66
7.43
12.43
16.25
19.38
22.03
24.20
25.83
27.02
28.00
29.03
30.25
31.56
32.68
33.31
33.27
32.60
31.53
30.33
29.16
28.03
26.80
25.26
23.30
20.97
18.44
15.96
13.74
11.84
10.20
8.68
7.11
5.40
3.55
1.60
-0.35
-2.28
-4.21
-6.19
-8.29
-10.53
-12.86
-15.18
-17.37
-19.37
-21.22
-23.04
-25.08
-27.57
-30.68
-34.39
-38.35
-41.91
-44.16
-44.20
-41.39
-35.65
-27.55
-18.21
-8.92
-0.77
5.60
10.14
13.16
15.10
16.34
17.10
17.50
17.67
17.76
17.99
18.49
19.30
20.31
21.33
22.16
22.61
22.61
22.17
21.37
20.36
19.26
18.12
16.86
15.34
13.41
11.05
8.42
5.83
3.62
1.99
0.92
0.13
-0.79
-2.14
-4.06
-6.41
-8.93
-11.34
-13.53
-15.52
-17.44
-19.37
-21.34
-23.33
-25.39
-27.71
-30.40
-33.41
-36.26
-38.14
-38.07
-35.37
-29.95
-22.43
-13.95
-5.75
1.16
6.31
9.73
11.72
12.70
12.97
12.80
12.34
11.79
11.32
11.11
11.30
11.94
12.95
14.16
15.34
16.25
16.74
16.74
16.28
15.47
14.33
12.88
11.09
8.98
6.65
4.32
2.23
0.54
-0.78
-1.92
-3.16
-4.71
-6.58
-8.61
-10.55
-12.15
-13.40
-14.49
-15.79
-17.66
-20.23
-23.25
-26.12
-28.07
-28.34
-26.52
-22.57
-16.94
-10.32
-3.50
2.78
8.04
12.01
14.66
16.13
16.60
16.28
15.38
14.12
12.77
11.66
11.06
11.09
11.70
12.60
13.46
14.00
14.08
13.72
13.03
12.05
10.79
9.21
7.34
5.25
3.07
0.91
-1.26
-3.51
-5.92
-8.43
-10.86
-12.98
-14.65
-15.95
-17.18
-18.66
-20.64
-23.14
-26.01
-28.98
-31.81
-34.17
-35.68
-35.82
-34.09
-30.18
-24.21
-16.79
-8.88
-1.52
4.51
8.86
11.64
13.18
13.89
14.12
14.06
13.90
13.80
13.89
14.26
14.91
15.71
16.45
16.93
17.01
16.69
16.05
15.14
14.02
12.67
11.07
9.25
7.28
5.29
3.40
1.63
-0.05
-1.73
-3.53
-5.50
-7.60
-9.75
-11.80
-13.65
-15.27
-16.73
-18.15
-19.76
-21.81
-24.49
-27.81
-31.45
-34.72
-36.68
-36.38
-33.25
-27.39
-19.58
-11.02
-3.02
3.50
8.18
11.16
12.88
13.79
14.18
14.19
13.91
13.49
13.14
13.09
13.49
14.33
15.38
16.37
17.04
17.31
17.26
17.05
16.81
16.52
15.98
14.96
13.32
11.13
8.64
6.24
4.22
2.71
1.52
0.35
-1.17
-3.24
-5.78
-8.50
-11.07
-13.23
-14.99
-16.60
-18.44
-20.89
-24.12
-27.98
-31.91
-35.12
-36.72
-35.97
-32.51
-26.58
-18.91
-10.56
-2.64
4.00
8.95
12.20
14.02
14.78
14.84
14.49
13.97
13.52
13.36
13.65
14.46
15.64
16.93
18.03
18.71
18.89
18.64
18.11
17.42
16.55
15.40
13.78
11.64
9.04
6.29
3.74
1.69
0.24
-0.79
-1.70
-2.86
-4.45
-6.47
-8.76
-11.05
-13.14
-14.92
-16.41
-17.74
-19.15
-20.91
-23.29
-26.34
-29.82
-33.06
-35.08
-34.88
-31.82
-25.90
-17.85
-8.91
-0.41
6.58
11.58
14.62
16.09
16.49
16.21
15.54
14.72
13.97
13.57
13.71
14.47
15.72
17.17
18.42
19.18
19.29
18.80
17.96
17.01
16.11
15.22
14.17
12.77
10.94
8.81
6.64
4.69
3.10
1.80
0.57
-0.85
-2.60
-4.67
-6.94
-9.22
-11.37
-13.28
-14.93
-16.35
-17.65
-19.01
-20.71
-23.01
-26.00
-29.40
-32.54
-34.41
-34.01
-30.71
-24.59
-16.44
-7.53
0.81
7.61
12.45
15.42
16.86
17.09
16.38
14.90
12.93
10.88
9.22
8.36
8.49
9.51
11.10
12.85
14.39
15.49
16.09
16.20
15.90
15.23
14.18
12.76
10.94
8.74
6.30
3.84
1.62
-0.16
-1.46
-2.44
-3.36
-4.50
-5.95
-7.60
-9.19
-10.44
-11.20
-11.56
-11.84
-12.47
-13.88
-16.28
-19.66
-23.60
-27.38
-30.01
-30.57
-28.40
-23.43
-16.21
-7.78
0.59
7.81
13.20
16.62
18.29
18.68
18.24
17.32
16.16
14.99
14.08
13.71
14.07
15.15
16.70
18.32
19.64
20.44
20.75
20.72
20.51
20.12
19.40
18.15
16.27
13.83
11.08
8.37
5.96
3.95
2.29
0.78
-0.82
-2.69
-4.86
-7.24
-9.61
-11.77
-13.58
-15.05
-16.40
-17.94
-19.99
-22.73
-26.04
-29.44
-32.19
-33.39
-32.31
-28.65
-22.66
-15.10
-7.05
0.45
6.61
11.03
13.71
14.90
14.97
14.29
13.21
12.02
11.01
10.44
10.48
11.20
12.47
14.01
15.47
16.55
17.07
17.05
16.61
15.86
14.85
13.52
11.82
9.79
7.60
5.50
3.68
2.18
0.86
-0.53
-2.18
-4.14
-6.30
-8.44
-10.37
-12.00
-13.39
-14.70
-16.15
-17.95
-20.28
-23.23
-26.67
-30.25
-33.30
-34.95
-34.42
-31.27
-25.58
-18.03
-9.72
-1.76
4.92
9.83
12.88
14.29
14.46
13.79
12.67
11.42
10.28
9.45
9.06
9.21
9.94
11.19
12.81
14.48
15.87
16.68
16.78
16.20
15.10
13.66
12.02
10.21
8.24
6.11
3.85
1.52
-0.83
-3.10
-5.24
-7.21
-8.93
-10.39
-11.61
-12.67
-13.74
-15.06
-16.87
-19.39
-22.64
-26.36
-29.90
-32.36
-32.76
-30.39
-25.17
-17.68
-9.05
-0.66
6.34
11.29
14.15
15.31
15.34
14.75
13.83
12.72
11.51
10.42
9.75
9.80
10.72
12.40
14.48
16.46
17.84
18.31
17.82
16.48
14.51
12.17
9.67
7.14
4.66
2.24
-0.13
-2.51
-4.93
-7.43
-9.95
-12.39
-14.62
-16.56
-18.26
-19.89
-21.71
-23.99
-26.84
-30.12
-33.40
-35.95
-36.92
-35.55
-31.40
-24.57
-15.78
-6.19
2.84
10.13
15.05
17.62
18.35
17.98
17.13
16.21
15.36
14.63
14.09
13.92
14.28
15.20
16.50
17.88
19.03
19.73
19.91
19.68
19.16
18.43
17.49
16.27
14.72
12.83
10.66
8.30
5.82
3.28
0.68
-1.95
-4.58
-7.12
-9.45
-11.51
-13.29
-14.93
-16.71
-18.95
-21.93
-25.60
-29.51
-32.82
-34.46
-33.52
-29.61
-23.07
-14.92
-6.48
1.00
6.75
10.58
12.78
13.80
14.09
13.93
13.54
13.13
12.99
13.38
14.41
16.01
17.83
19.47
20.63
21.22
21.39
21.38
21.37
21.34
21.13
20.44
19.07
17.01
14.43
11.60
8.80
6.22
3.86
1.65
-0.55
-2.82
-5.18
-7.55
-9.84
-11.94
-13.84
-15.63
-17.52
-19.82
-22.83
-26.70
-31.29
-36.01
-39.89
-41.82
-40.86
-36.65
-29.56
-20.60
-11.16
-2.47
4.66
10.00
13.78
16.43
18.34
19.71
20.62
21.18
21.61
22.24
23.33
25.00
27.03
29.02
30.53
31.22
31.04
30.13
28.77
27.17
25.42
23.48
21.26
18.66
15.67
12.41
9.10
6.06
3.56
1.72
0.45
-0.58
-1.76
-3.41
-5.62
-8.24
-10.95
-13.46
-15.64
-17.61
-19.65
-22.07
-25.11
-28.81
-33.09
-37.60
-41.78
-44.84
-45.92
-44.32
-39.77
-32.68
-24.04
-15.23
-7.53
-1.80
1.73
3.39
3.76
3.38
2.64
1.71
0.75
-0.05
-0.34
0.24
1.92
4.66
8.08
11.64
14.78
17.20
18.88
20.00
20.83
21.49
21.96
22.10
21.76
20.94
19.85
18.81
18.16
18.07
18.47
19.01
19.25
18.80
17.52
15.61
13.46
11.50
9.98
8.82
7.67
6.05
3.51
-0.24
-5.24
-11.13
-17.17
-22.30
-25.37
-25.47
-22.29
-16.25
-8.43
-0.21
7.12
12.75
16.40
18.27
18.75
18.28
17.20
15.85
14.54
13.56
13.15
13.35
14.01
14.85
15.55
15.89
15.81
15.36
14.64
13.70
12.51
10.99
9.07
6.72
4.02
1.13
-1.76
-4.39
-6.56
-8.16
-9.27
-10.07
-10.82
-11.75
-12.98
-14.47
-16.09
-17.70
-19.27
-20.89
-22.76
-25.11
-28.12
-31.73
-35.57
-38.92
-40.85
-40.40
-37.00
-30.69
-22.18
-12.68
-3.57
4.04
9.53
12.86
14.47
14.94
14.81
14.42
13.94
13.50
13.22
13.28
13.81
14.77
15.95
17.00
17.66
17.79
17.53
17.08
16.57
15.96
15.06
13.64
11.62
9.11
6.38
3.74
1.36
-0.71
-2.59
-4.41
-6.28
-8.20
-10.11
-11.95
-13.62
-15.13
-16.54
-18.06
-19.97
-22.50
-25.70
-29.31
-32.61
-34.65
-34.44
-31.38
-25.48
-17.47
-8.57
-0.12
6.81
11.72
14.64
15.98
16.29
15.99
15.35
14.54
13.73
13.13
12.99
13.47
14.59
16.20
18.03
19.74
21.01
21.61
21.37
20.21
18.20
15.52
12.46
9.34
6.43
3.94
1.90
0.22
-1.30
-2.92
-4.87
-7.21
-9.87
-12.57
-15.01
-16.94
-18.36
-19.52
-20.80
-22.63
-25.25
-28.56
-32.04
-34.80
-35.83
-34.27
-29.83
-22.89
-14.50
-6.00
1.38
6.90
10.43
12.32
13.12
13.30
13.12
12.70
12.18
11.77
11.72
12.29
13.51
15.25
17.15
18.85
20.02
20.48
20.20
19.22
17.67
15.72
13.51
11.22
9.00
6.91
4.93
2.94
0.79
-1.63
-4.29
-7.06
-9.72
-12.05
-13.94
-15.40
-16.57
-17.68
-18.99
-20.74
-23.07
-25.83
-28.55
-30.45
-30.64
-28.42
-23.65
-16.86
-9.08
-1.56
4.67
9.07
11.68
12.89
13.26
13.21
12.97
12.66
12.33
12.13
12.23
12.78
13.85
15.29
16.84
18.19
19.06
19.31
18.88
17.81
16.12
13.88
11.19
8.26
5.31
2.59
0.25
-1.71
-3.43
-5.09
-6.84
-8.73
-10.68
-12.56
-14.31
-15.93
-17.56
-19.37
-21.56
-24.23
-27.30
-30.45
-33.04
-34.29
-33.45
-30.08
-24.29
-16.70
-8.34
-0.34
6.36
11.27
14.33
15.75
15.91
15.16
13.80
12.12
10.48
9.30
8.95
9.64
11.30
13.53
15.75
17.34
17.95
17.52
16.28
14.62
12.79
10.87
8.72
6.15
3.03
-0.52
-4.20
-7.63
-10.47
-12.60
-14.13
-15.29
-16.45
-17.95
-20.08
-23.05
-26.84
-31.15
-35.31
-38.37
-39.33
-37.49
-32.67
-25.36
-16.58
-7.59
0.49
6.96
11.54
14.41
15.86
16.23
15.79
14.79
13.49
12.26
11.50
11.52
12.42
14.00
15.82
17.37
18.23
18.23
17.42
16.07
14.41
12.66
10.84
8.86
6.52
3.67
0.29
-3.45
-7.17
-10.48
-13.10
-15.05
-16.65
-18.34
-20.59
-23.68
-27.58
-31.99
-36.32
-39.76
-41.45
-40.63
-36.87
-30.31
-21.66
-12.08
-2.80
5.21
11.45
15.93
18.92
20.77
21.72
21.91
21.54
20.92
20.51
20.75
21.83
23.57
25.44
26.79
27.10
26.25
24.45
22.15
19.73
17.37
15.01
12.42
9.40
5.88
1.98
-2.07
-5.92
-9.30
-12.06
-14.24
-16.11
-18.07
-20.58
-23.98
-28.37
-33.43
-38.41
-42.29
-43.98
-42.64
-38.03
-30.55
-21.19
-11.22
-1.82
6.22
12.58
17.35
20.79
23.14
24.54
25.11
25.01
24.59
24.32
24.64
25.79
27.67
29.82
31.60
32.48
32.20
30.87
28.89
26.69
24.52
22.30
19.71
16.38
12.09
7.01
1.59
-3.53
-7.87
-11.22
-13.76
-15.94
-18.27
-21.21
-25.01
-29.68
-34.99
-40.42
-45.06
-47.82
-47.59
-43.65
-35.99
-25.44
-13.49
-1.85
8.06
15.51
20.48
23.50
25.24
26.27
26.87
27.12
27.08
26.86
26.72
26.87
27.47
28.44
29.54
30.45
30.88
30.70
29.89
28.57
26.87
24.91
22.71
20.25
17.47
14.38
11.08
7.73
4.55
1.70
-0.75
-2.85
-4.73
-6.58
-8.58
-10.93
-13.80
-17.39
-21.82
-26.99
-32.44
-37.30
-40.41
-40.64
-37.25
-30.25
-20.48
-9.39
1.38
10.49
17.25
21.65
24.18
25.50
26.14
26.42
26.49
26.44
26.40
26.55
26.97
27.62
28.27
28.64
28.51
27.84
26.73
25.34
23.75
21.93
19.75
17.11
14.10
10.95
7.97
5.39
3.21
1.26
-0.79
-3.20
-6.10
-9.37
-12.77
-15.98
-18.78
-21.14
-23.23
-25.37
-27.95
-31.30
-35.52
-40.35
-45.06
-48.54
-49.58
-47.22
-41.11
-31.77
-20.50
-8.97
1.20
8.97
14.08
16.85
18.00
18.19
17.92
17.46
16.99
16.68
16.71
17.24
18.25
19.59
20.94
21.99
22.46
22.24
21.34
19.85
17.87
15.53
12.91
10.12
7.25
4.39
1.61
-1.10
-3.78
-6.55
-9.49
-12.69
-16.10
-19.61
-23.00
-26.03
-28.50
-30.37
-31.82
-33.24
-35.12
-37.77
-41.10
-44.46
-46.71
-46.59
-43.19
-36.30
-26.63
-15.57
-4.76
4.38
11.05
15.15
17.11
17.59
17.21
16.42
15.47
14.58
13.97
13.92
14.70
16.40
18.88
21.74
24.46
26.59
27.88
28.32
28.08
27.35
26.25
24.77
22.89
20.64
18.15
15.62
13.23
11.04
8.97
6.86
4.59
2.11
-0.49
-3.08
-5.56
-7.95
-10.33
-12.92
-15.95
-19.56
-23.65
-27.72
-30.91
-32.13
-30.44
-25.46
-17.59
-7.95
1.93
10.65
17.29
21.66
24.08
25.12
25.32
25.01
24.37
23.57
22.88
22.66
23.27
24.86
27.28
30.10
32.77
34.78
35.85
35.94
35.19
33.78
31.85
29.51
26.87
24.04
21.13
18.18
15.20
12.17
9.08
5.98
3.04
0.41
-1.82
-3.72
-5.56
-7.68
-10.48
-14.18
-18.70
-23.62
-28.13
-31.26
-32.13
-30.23
-25.67
-19.20
-11.94
-5.10
0.39
4.09
6.02
6.53
6.04
4.91
3.35
1.53
-0.34
-2.02
-3.28
-4.05
-4.42
-4.68
-5.15
-6.03
-7.37
-9.03
-10.80
-12.51
-14.09
-15.58
-17.11
-18.78
-20.69
-22.85
-25.25
-27.75
-30.17
-32.29
-33.94
-35.05
-35.65
-35.91
-36.06
-36.35
-37.06
-38.34
-40.17
-42.17
-43.61
-43.51
-40.91
-35.25
-26.62
-15.83
-4.19
6.90
16.30
23.40
28.11
30.69
31.51
30.94
29.31
27.05
24.72
22.99
22.41
23.28
25.42
28.26
31.07
33.21
34.38
34.63
34.23
33.45
32.38
30.88
28.68
25.58
21.57
16.86
11.86
7.00
2.61
-1.14
-4.25
-6.93
-9.49
-12.29
-15.68
-19.83
-24.63
-29.64
-34.02
-36.76
-37.01
-34.33
-28.97
-21.80
-14.07
-7.00
-1.47
2.14
3.90
4.13
3.17
1.37
-0.98
-3.49
-5.68
-7.06
-7.30
-6.39
-4.68
-2.80
-1.37
-0.81
-1.16
-2.20
-3.59
-5.11
-6.78
-8.79
-11.37
-14.62
-18.35
-22.18
-25.65
-28.43
-30.47
-31.99
-33.39
-35.10
-37.42
-40.47
-44.10
-47.96
-51.42
-53.63
-53.70
-50.96
-45.22
-36.97
-27.29
-17.54
-8.89
-2.01
3.03
6.57
9.06
10.88
12.26
13.38
14.49
15.87
17.78
20.30
23.30
26.44
29.30
31.52
32.86
33.21
32.58
31.07
28.76
25.73
22.06
17.85
13.35
8.88
4.86
1.57
-0.90
-2.72
-4.33
-6.27
-9.05
-12.92
-17.84
-23.40
-28.77
-32.93
-34.82
-33.69
-29.36
-22.31
-13.56
-4.38
4.06
10.98
16.07
19.39
21.19
21.72
21.25
20.08
18.61
17.28
16.50
16.50
17.24
18.41
19.59
20.41
20.67
20.36
19.63
18.60
17.31
15.62
13.34
10.37
6.78
2.90
-0.83
-3.98
-6.32
-7.96
-9.28
-10.81
-13.07
-16.37
-20.63
-25.38
-29.71
-32.52
-32.76
-29.82
-23.75
-15.32
-5.82
3.34
11.04
16.68
20.24
22.07
22.63
22.32
21.44
20.24
19.03
18.16
17.93
18.47
19.55
20.71
21.42
21.29
20.30
18.72
16.97
15.32
13.81
12.20
10.13
7.39
4.05
0.41
-3.07
-5.98
-8.15
-9.64
-10.72
-11.76
-13.13
-15.17
-18.04
-21.64
-25.45
-28.61
-30.00
-28.67
-24.17
-16.88
-7.90
1.30
9.38
15.57
19.76
22.33
23.79
24.49
24.56
24.03
23.06
22.04
21.49
21.79
23.03
24.78
26.36
27.08
26.56
24.89
22.52
20.05
17.87
16.05
14.29
12.22
9.54
6.23
2.52
-1.22
-4.68
-7.70
-10.31
-12.66
-14.99
-17.53
-20.47
-23.94
-27.86
-31.89
-35.30
-37.13
-36.47
-32.78
-26.28
-17.93
-9.18
-1.44
4.36
8.03
10.02
11.02
11.62
12.08
12.42
12.58
12.64
12.87
13.60
14.97
16.86
18.82
20.27
20.77
20.18
18.74
16.94
15.21
13.74
12.37
10.75
8.50
5.50
1.93
-1.79
-5.21
-8.00
-10.07
-11.56
-12.71
-13.88
-15.39
-17.55
-20.55
-24.31
-28.39
-31.91
-33.81
-33.15
-29.53
-23.25
-15.27
-6.92
0.57
6.38
10.29
12.52
13.54
13.73
13.35
12.55
11.50
10.49
9.85
9.94
10.85
12.42
14.19
15.61
16.21
15.82
14.62
12.97
11.27
9.74
8.34
6.83
4.88
2.34
-0.73
-4.03
-7.16
-9.79
-11.77
-13.20
-14.36
-15.63
-17.33
-19.72
-22.85
-26.56
-30.40
-33.61
-35.25
-34.47
-30.80
-24.41
-16.15
-7.31
0.78
7.19
11.60
14.22
15.59
16.21
16.37
16.19
15.69
14.99
14.34
14.05
14.33
15.17
16.34
17.42
18.04
17.93
17.08
15.62
13.81
11.89
10.00
8.14
6.20
4.02
1.49
-1.39
-4.47
-7.53
-10.32
-12.67
-14.61
-16.29
-18.00
-20.05
-22.67
-25.96
-29.85
-34.00
-37.83
-40.50
-41.14
-39.06
-34.08
-26.65
-17.79
-8.81
-0.86
5.34
9.58
12.10
13.31
13.58
13.25
12.62
12.01
11.81
12.32
13.63
15.57
17.71
19.49
20.44
20.34
19.25
17.51
15.53
13.57
11.73
9.83
7.58
4.76
1.35
-2.43
-6.15
-9.41
-11.95
-13.76
-15.13
-16.51
-18.39
-21.13
-24.89
-29.48
-34.39
-38.73
-41.48
-41.71
-38.90
-33.13
-25.15
-16.13
-7.30
0.37
6.41
10.82
13.84
15.73
16.66
16.72
16.07
15.05
14.11
13.69
14.05
15.13
16.53
17.73
18.32
18.14
17.31
16.09
14.71
13.19
11.34
8.90
5.70
1.85
-2.33
-6.35
-9.83
-12.60
-14.80
-16.76
-18.90
-21.62
-25.17
-29.58
-34.59
-39.55
-43.49
-45.33
-44.20
-39.75
-32.33
-22.92
-12.84
-3.32
4.78
11.05
15.51
18.43
20.15
21.01
21.29
21.29
21.29
21.54
22.25
23.43
24.86
26.14
26.85
26.66
25.50
23.62
21.38
19.17
17.10
15.04
12.65
9.60
5.79
1.41
-3.09
-7.24
-10.72
-13.53
-15.98
-18.54
-21.68
-25.66
-30.45
-35.75
-40.95
-45.11
-47.15
-46.06
-41.34
-33.22
-22.75
-11.49
-1.01
7.61
14.02
18.52
21.68
23.94
25.45
26.15
25.96
25.10
24.06
23.46
23.73
24.93
26.62
28.11
28.79
28.33
26.88
24.86
22.69
20.53
18.22
15.45
11.91
7.62
2.88
-1.83
-6.07
-9.62
-12.57
-15.18
-17.79
-20.77
-24.35
-28.69
-33.74
-39.08
-43.94
-47.18
-47.65
-44.50
-37.62
-27.68
-16.04
-4.27
6.28
14.75
20.93
25.00
27.39
28.48
28.59
27.99
26.99
25.97
25.31
25.25
25.80
26.68
27.45
27.66
27.05
25.65
23.74
21.64
19.52
17.27
14.55
11.02
6.53
1.32
-4.12
-9.21
-13.49
-16.87
-19.57
-22.07
-24.88
-28.46
-33.01
-38.45
-44.24
-49.39
-52.57
-52.53
-48.42
-40.23
-28.87
-15.88
-3.01
8.29
17.23
23.70
28.09
30.97
32.80
33.84
34.22
34.05
33.61
33.24
33.33
34.08
35.42
36.97
38.17
38.55
37.81
35.97
33.24
29.94
26.36
22.67
18.96
15.20
11.33
7.26
2.94
-1.59
-6.19
-10.66
-14.86
-18.68
-22.18
-25.47
-28.76
-32.27
-36.27
-40.95
-46.35
-52.10
-57.36
-60.79
-60.96
-56.78
-48.05
-35.61
-21.18
-6.81
5.78
15.61
22.57
27.18
30.12
31.94
32.94
33.34
33.34
33.31
33.60
34.40
35.65
37.03
38.13
38.63
38.46
37.71
36.53
34.96
32.94
30.29
26.92
22.92
18.54
14.13
10.03
6.37
3.09
-0.04
-3.27
-6.75
-10.45
-14.18
-17.70
-20.85
-23.65
-26.32
-29.18
-32.62
-36.95
-42.28
-48.36
-54.42
-59.23
-61.30
-59.31
-52.65
-41.70
-27.82
-12.97
0.92
12.42
20.94
26.65
30.13
32.07
32.97
33.13
32.74
32.04
31.35
31.08
31.46
32.50
33.88
35.14
35.83
35.71
34.79
33.27
31.31
28.95
26.12
22.74
18.86
14.71
10.62
6.89
3.63
0.74
-2.08
-5.11
-8.50
-12.19
-15.93
-19.37
-22.29
-24.67
-26.78
-29.13
-32.29
-36.71
-42.40
-48.79
-54.75
-58.77
-59.35
-55.52
-47.16
-35.08
-20.91
-6.58
6.13
16.08
22.90
26.88
28.64
28.89
28.19
26.91
25.41
24.06
23.21
23.22
24.17
25.90
27.92
29.71
30.81
31.01
30.33
28.91
26.89
24.34
21.28
17.76
13.90
9.94
6.18
2.82
-0.12
-2.78
-5.44
-8.33
-11.52
-14.88
-18.16
-21.14
-23.71
-25.99
-28.28
-30.97
-34.40
-38.71
-43.65
-48.59
-52.43
-53.91
-51.88
-45.79
-35.96
-23.53
-10.24
2.14
12.32
19.67
24.26
26.53
27.05
26.28
24.64
22.55
20.55
19.21
18.98
20.01
22.09
24.68
27.09
28.73
29.24
28.53
26.76
24.19
21.16
17.91
14.68
11.55
8.58
5.63
2.57
-0.74
-4.31
-8.03
-11.66
-14.98
-17.87
-20.35
-22.60
-24.86
-27.41
-30.51
-34.32
-38.72
-43.24
-46.96
-48.74
-47.50
-42.66
-34.43
-23.81
-12.30
-1.41
7.72
14.53
18.97
21.32
21.93
21.17
19.39
17.08
14.79
13.11
12.53
13.27
15.22
17.86
20.52
22.51
23.39
23.06
21.75
19.81
17.58
15.23
12.71
9.88
6.65
3.08
-0.65
-4.28
-7.59
-10.50
-13.03
-15.31
-17.52
-19.82
-22.36
-25.30
-28.72
-32.53
-36.34
-39.43
-40.88
-39.80
-35.65
-28.56
-19.27
-9.05
0.73
8.97
14.99
18.65
20.13
19.81
18.15
15.68
13.04
10.87
9.76
10.00
11.48
13.72
16.04
17.78
18.59
18.43
17.53
16.20
14.59
12.71
10.39
7.54
4.16
0.49
-3.13
-6.37
-9.03
-11.16
-12.96
-14.74
-16.82
-19.45
-22.75
-26.61
-30.63
-34.09
-36.07
-35.71
-32.47
-26.39
-18.15
-8.87
0.17
7.91
13.78
17.58
19.49
19.79
18.85
17.08
15.00
13.20
12.22
12.41
13.71
15.70
17.73
19.19
19.76
19.47
18.61
17.43
15.99
14.11
11.55
8.22
4.28
0.12
-3.82
-7.28
-10.19
-12.68
-15.00
-17.34
-19.89
-22.77
-25.99
-29.34
-32.30
-34.05
-33.71
-30.66
-24.90
-17.08
-8.38
-0.10
6.72
11.58
14.48
15.80
16.01
15.56
14.79
13.97
13.31
13.03
13.25
13.92
14.86
15.78
16.40
16.54
16.12
15.17
13.72
11.77
9.29
6.31
2.94
-0.58
-3.98
-6.99
-9.48
-11.45
-13.09
-14.72
-16.70
-19.32
-22.65
-26.41
-29.89
-32.15
-32.24
-29.59
-24.22
-16.86
-8.69
-1.00
5.21
9.50
11.97
13.06
13.32
13.18
12.91
12.63
12.46
12.53
12.94
13.73
14.77
15.84
16.64
16.92
16.58
15.60
14.05
11.98
9.46
6.55
3.36
0.05
-3.16
-6.10
-8.68
-10.92
-12.96
-15.05
-17.48
-20.43
-23.77
-26.99
-29.27
-29.68
-27.56
-22.86
-16.19
-8.71
-1.62
4.23
8.51
11.45
13.46
14.90
15.86
16.30
16.19
15.71
15.19
15.03
15.42
16.22
17.07
17.54
17.36
16.52
15.21
13.67
11.97
10.03
7.69
4.89
1.78
-1.30
-3.97
-6.06
-7.66
-9.15
-11.00
-13.54
-16.87
-20.77
-24.79
-28.28
-30.52
-30.87
-28.92
-24.70
-18.70
-11.79
-4.95
1.09
5.98
9.79
12.77
15.15
16.99
18.21
18.82
18.96
