1563992541.00
64.000000
-0.00
-0.00
-0.00
-0.00
-0.00
-0.00
-0.00
-0.00
-0.00
-0.00
0.00
0.01
0.01
-0.00
-0.03
-0.05
-0.05
0.00
0.13
0.36
0.66
1.01
1.37
1.72
2.06
2.40
2.79
3.24
3.80
4.44
5.10
5.74
6.33
6.89
7.49
8.19
9.06
10.20
11.54
12.95
14.31
15.51
16.59
17.69
19.03
20.81
23.28
26.29
29.57
32.80
35.77
38.53
41.38
44.78
49.13
54.88
61.72
69.13
76.46
83.29
89.60
95.89
102.95
111.46
122.15
134.60
147.99
161.24
173.56
184.79
195.52
207.29
219.16
233.78
251.98
273.77
297.56
319.88
335.94
341.00
332.04
308.85
274.57
233.46
189.69
145.77
102.25
58.56
14.31
-29.75
-71.97
-110.25
-143.83
-173.28
-200.23
-226.52
-253.55
-281.90
-311.37
-341.35
-370.47
-396.67
-417.18
-428.94
-429.55
-418.34
-396.86
-368.61
-337.78
-307.69
-280.04
-254.66
-230.55
-206.96
-184.11
-163.09
-145.01
-130.13
-117.47
-105.28
-91.95
-76.90
-61.00
-46.14
-34.22
-26.16
-21.25
-17.54
-12.90
-6.10
2.52
11.15
17.62
20.55
20.21
18.37
17.46
19.20
23.74
29.52
34.29
36.32
35.28
32.43
29.88
29.27
30.91
33.66
35.53
34.94
31.67
26.99
22.90
21.04
21.72
23.82
25.46
25.14
22.61
19.03
16.21
15.61
17.46
20.59
23.03
23.16
20.57
16.32
12.31
10.16
10.34
11.89
13.09
12.61
10.38
7.65
6.24
7.33
10.68
14.71
17.37
17.34
14.82
11.36
8.93
8.75
10.59
12.98
14.04
12.57
8.87
4.53
1.57
1.34
3.75
7.34
10.02
10.32
8.10
4.55
1.54
0.46
1.39
3.24
4.33
3.48
0.85
-2.24
-4.05
-3.48
-0.81
2.37
4.06
3.05
-0.53
-5.16
-8.77
-9.94
-8.64
-6.11
-4.21
-4.31
-6.50
-9.64
-12.08
-12.65
-11.35
-9.29
-7.97
-8.32
-10.02
-11.75
-12.02
-10.10
-6.65
-3.34
-1.94
-3.32
-6.74
-10.36
-12.11
-10.85
-7.05
-2.51
0.59
0.95
-1.20
-4.21
-5.96
-5.08
-1.82
2.22
4.85
4.65
1.77
-2.11
-4.78
-4.79
-2.22
1.37
3.90
3.98
1.74
-1.32
-3.23
-2.75
-0.08
3.28
5.49
5.47
3.57
1.29
0.39
1.80
5.16
8.88
11.13
10.85
8.37
5.25
3.38
3.95
6.71
10.21
12.54
12.52
10.35
7.53
5.95
6.78
9.72
13.13
14.96
14.00
10.64
6.62
4.13
4.53
7.54
11.42
13.94
13.63
10.63
6.55
3.53
2.98
4.87
7.73
9.64
9.35
7.03
4.16
2.63
3.54
6.53
9.89
11.52
10.28
6.66
2.64
0.66
2.18
6.75
12.22
15.78
15.55
11.65
6.16
2.04
1.48
4.69
9.85
14.16
15.48
13.37
9.49
6.41
6.12
9.00
13.69
18.09
20.73
21.57
21.63
21.74
21.46
18.99
12.26
0.64
-14.18
-28.69
-39.24
-43.87
-43.10
-39.25
-34.91
-31.54
-29.07
-26.48
-22.76
-17.69
-11.89
-6.39
-2.26
-0.21
-0.33
-2.19
-4.63
-6.18
-5.80
-3.47
-0.40
1.61
1.30
-1.14
-4.01
-5.00
-2.68
2.46
8.16
11.72
11.55
8.22
4.15
2.15
3.71
8.16
12.97
15.35
13.82
9.11
3.67
0.23
0.25
3.15
6.73
8.48
7.07
3.12
-1.29
-3.80
-3.16
0.14
4.14
6.60
6.22
3.40
-0.10
-2.26
-1.90
0.61
3.58
5.05
3.95
0.73
-2.87
-4.78
-3.84
-0.46
3.59
6.15
5.92
3.26
-0.03
-1.79
-0.79
2.52
6.28
8.25
7.23
3.79
-0.10
-2.15
-1.10
2.52
6.77
9.34
8.86
5.65
1.44
-1.64
-2.27
-0.57
2.01
3.69
3.39
1.39
-0.96
-2.06
-1.14
1.22
3.52
4.14
2.39
-1.01
-4.34
-5.89
-4.92
-2.08
0.86
1.97
0.31
-3.58
-7.89
-10.51
-10.09
-6.86
-2.45
0.92
1.70
-0.21
-3.35
-5.65
-5.62
-3.19
0.16
2.37
1.97
-0.92
-4.72
-7.24
-7.06
-4.38
-0.87
1.37
0.99
-1.66
-4.82
-6.43
-5.36
-2.10
1.52
3.44
2.66
-0.15
-3.04
-3.94
-1.85
2.52
7.19
10.02
9.87
7.21
3.83
1.70
1.85
3.80
5.94
6.49
4.70
1.24
-2.14
-3.65
-2.54
0.41
3.38
4.48
2.88
-0.69
-4.33
-6.07
-4.90
-1.40
2.66
5.26
5.31
3.21
0.56
-0.80
0.05
2.54
5.03
5.71
3.78
-0.05
-3.92
-5.88
-4.96
-1.77
1.88
3.96
3.43
0.74
-2.40
-3.98
-2.97
0.25
4.01
6.32
6.04
3.56
0.47
-1.43
-1.12
0.89
2.98
3.39
1.38
-2.32
-5.83
-7.32
-6.08
-2.93
0.21
1.41
-0.11
-3.53
-6.95
-8.44
-7.11
-3.56
0.46
3.07
3.23
1.23
-1.48
-3.17
-2.85
-0.80
1.57
2.54
1.16
-2.09
-5.60
-7.48
-6.72
-3.85
-0.66
0.85
-0.28
-3.39
-6.48
-7.46
-5.33
-0.77
4.20
7.42
7.69
5.42
2.28
0.26
0.47
2.61
5.19
6.46
5.45
2.63
-0.34
-1.61
-0.17
3.42
7.38
9.63
9.07
6.24
3.02
1.55
2.87
6.35
9.95
11.47
9.90
5.96
1.74
-0.59
-0.07
2.57
5.35
6.32
4.70
1.34
-1.92
-3.28
-2.12
0.69
3.37
4.26
2.76
-0.35
-3.37
-4.63
-3.36
-0.17
3.34
5.46
5.28
3.12
0.47
-0.97
-0.22
2.37
5.26
6.54
5.16
1.43
-3.00
-6.09
-6.62
-4.82
-2.24
-0.71
-1.29
-3.59
-6.10
-7.12
-5.86
-2.95
-0.04
1.19
0.01
-2.86
-5.73
-6.82
-5.36
-2.02
1.47
3.23
2.36
-0.55
-3.73
-5.31
-4.31
-1.30
1.93
3.39
2.11
-1.36
-5.14
-7.09
-6.08
-2.54
1.71
4.54
4.71
2.53
-0.40
-2.11
-1.51
0.97
3.72
4.87
3.44
0.04
-3.53
-5.28
-4.21
-0.89
2.87
5.09
4.71
2.15
-0.92
-2.70
-2.31
-0.23
1.98
2.64
1.08
-2.01
-4.95
-5.99
-4.47
-1.16
2.15
3.59
2.37
-0.77
-3.98
-5.30
-3.79
-0.08
3.97
6.36
5.99
3.29
-0.09
-2.26
-2.23
-0.33
1.95
2.97
1.95
-0.61
-3.24
-4.35
-3.22
-0.45
2.41
3.69
2.61
-0.24
-3.19
-4.46
-3.15
0.13
3.65
5.45
4.51
1.39
-2.10
-3.96
-3.16
-0.33
2.58
3.53
1.62
-2.35
-6.23
-7.81
-6.18
-2.24
1.74
3.46
1.97
-1.85
-5.75
-7.42
-5.83
-1.85
2.35
4.48
3.47
0.04
-3.71
-5.60
-4.53
-1.08
2.80
4.97
4.19
0.91
-3.10
-5.68
-5.51
-2.85
0.71
3.15
3.17
0.96
-2.00
-3.86
-3.53
-1.29
1.36
2.62
1.55
-1.36
-4.43
-5.70
-4.14
-0.34
3.85
6.31
5.90
3.11
-0.14
-1.73
-0.52
2.88
6.46
8.03
6.53
2.70
-1.31
-3.22
-2.01
1.55
5.28
6.88
5.27
1.25
-2.97
-5.00
-3.63
0.44
5.00
7.65
7.11
4.02
0.45
-1.29
-0.04
3.57
7.50
9.60
8.84
5.85
2.51
0.75
1.41
3.81
6.24
7.01
5.43
2.23
-0.92
-2.39
-1.56
0.89
3.27
3.89
2.02
-1.57
-5.08
-6.57
-5.20
-1.65
2.10
3.94
2.79
-0.70
-4.62
-6.88
-6.41
-3.84
-1.00
0.18
-1.11
-4.17
-7.18
-8.36
-7.10
-4.27
-1.72
-1.20
-3.35
-7.28
-11.06
-12.81
-11.69
-8.33
-4.57
-2.37
-2.75
-5.28
-8.34
-10.07
-9.57
-7.43
-5.35
-5.12
-7.57
-11.98
-16.48
-19.29
-19.72
-18.67
-18.02
-19.54
-23.70
-29.40
-34.72
-38.04
-39.21
-39.63
-41.42
-46.15
-53.77
-62.51
-69.82
-73.91
-74.83
-74.53
-75.93
-81.20
-90.47
-101.57
-111.01
-115.48
-113.28
-104.79
-92.12
-78.13
-65.48
-56.04
-50.64
-49.14
-50.36
-52.46
-53.22
-50.51
-42.64
-28.63
-8.31
17.86
48.98
83.72
120.42
157.16
192.03
223.55
251.03
274.50
294.39
311.08
324.50
333.82
337.76
335.02
324.79
307.27
283.95
256.66
227.21
196.86
166.07
134.74
102.68
70.17
38.45
9.71
-13.44
-28.94
-36.13
-36.25
-32.29
-28.02
-26.82
-30.38
-38.39
-48.76
-58.59
-65.52
-68.82
-69.83
-71.29
-77.85
-94.30
-123.36
-163.22
-206.12
-239.59
-250.09
-228.76
-176.32
-104.49
-32.48
19.50
37.32
17.25
-33.88
-102.08
-170.79
-224.81
-252.96
-249.43
-214.67
-155.53
-84.01
-14.24
41.51
76.32
89.80
86.72
73.86
57.01
39.83
24.20
11.67
4.33
4.66
14.20
32.13
54.53
75.23
87.71
87.13
72.03
44.96
11.88
-19.68
-43.16
-55.24
-56.82
-52.30
-47.77
-47.10
-52.69
-64.74
-81.93
-102.56
-125.80
-151.66
-179.90
-209.25
-237.21
-261.10
-279.18
-291.59
-300.19
-307.97
-317.52
-329.70
-343.16
-354.70
-360.53
-357.33
-344.26
-321.46
-290.33
-252.89
-210.96
-165.79
-117.96
-67.87
-16.22
35.52
85.11
129.59
166.02
192.43
208.41
215.27
215.51
212.05
207.21
202.21
196.89
190.02
180.82
169.49
157.62
147.60
141.95
142.59
150.90
167.78
193.47
226.67
263.46
297.13
320.03
326.67
316.64
295.27
271.23
252.15
240.94
234.68
227.20
213.20
191.56
165.53
140.15
118.95
102.14
87.39
72.23
56.19
41.19
30.03
24.43
23.53
24.27
22.97
17.49
8.28
-2.01
-9.91
-13.06
-11.32
-6.75
-2.62
-1.80
-5.40
-12.24
-19.60
-24.66
-25.93
-23.82
-20.11
-16.53
-13.73
-11.12
-7.79
-3.89
-1.09
-1.96
-8.38
-20.19
-34.90
-48.89
-59.06
-64.20
-65.14
-63.81
-62.04
-60.64
-59.31
-57.18
-53.40
-47.66
-40.43
-32.91
-26.70
-23.29
-23.29
-26.02
-29.61
-31.76
-30.74
-26.33
-19.87
-13.53
-9.21
-7.61
-7.97
-8.72
-8.51
-7.02
-5.02
-3.75
-4.08
-5.79
-7.76
-8.63
-7.78
-5.69
-3.83
-3.85
-6.76
-12.37
-19.36
-25.87
-30.26
-31.70
-30.55
-28.08
-26.00
-25.71
-27.72
-31.54
-36.02
-40.04
-43.20
-45.89
-49.02
-53.25
-58.48
-63.85
-68.38
-71.66
-74.17
-76.92
-80.51
-84.34
-86.31
-83.53
-73.74
-56.55
-33.94
-9.49
13.23
32.23
48.06
63.09
80.61
103.23
131.75
164.90
200.02
233.94
263.86
287.68
303.89
311.41
309.43
297.67
276.63
247.80
213.53
176.54
139.41
104.04
71.49
42.02
15.43
-8.58
-30.11
-48.99
-64.88
-77.53
-86.95
-93.48
-97.72
-100.36
-101.95
-102.82
-103.04
-102.51
-101.14
-98.92
-95.98
-92.55
-88.88
-85.17
-81.51
-77.92
-74.33
-70.69
-66.97
-63.20
-59.42
-55.71
-52.12
-48.67
-45.38
-42.25
-39.26
-36.41
-33.69
-31.11
-28.65
-26.31
-24.07
-21.96
-20.01
-18.26
-16.74
-15.37
-14.14
-13.03
-11.98
-10.96
-9.98
-9.08
-8.33
-7.75
-7.34
-7.06
-6.81
-6.52
-6.15
-5.73
-5.35
-5.13
-5.14
-5.39
-5.77
-6.10
-6.21
-6.01
-5.62
-5.29
-5.32
-5.93
-7.11
-8.58
-9.90
-10.63
-10.60
-10.03
-9.51
-9.69
-11.04
-13.54
-16.64
-19.46
-21.17
-21.42
-20.61
-19.72
-19.92
-21.99
-25.91
-30.81
-35.29
-38.25
-39.15
-38.43
-37.21
-36.69
-37.83
-41.25
-47.30
-55.77
-65.25
-72.72
-73.93
-64.92
-44.14
-13.83
20.17
50.62
71.83
81.83
82.56
78.15
72.49
67.49
63.04
58.20
52.60
46.96
42.64
40.59
40.58
41.39
41.49
39.66
35.82
30.87
26.19
23.02
21.87
22.36
23.49
24.11
23.48
21.53
18.84
16.31
14.72
14.39
15.11
16.29
17.27
17.62
17.28
16.56
15.93
15.81
16.33
17.36
18.54
19.43
19.66
19.05
17.81
15.92
13.38
10.25
6.55
2.28
-2.55
-7.84
-13.37
-19.21
-24.56
-28.98
-32.16
-33.91
-34.22
-33.24
-31.23
-28.30
-24.82
-20.81
-16.39
-11.66
-6.81
-2.23
1.56
4.05
4.95
3.99
2.07
-0.07
-1.70
-2.38
-2.22
-1.68
-1.48
-2.05
-3.33
-4.56
-4.76
-3.17
0.46
5.63
11.28
16.22
19.72
21.71
23.00
24.34
26.49
30.07
35.59
43.43
53.16
62.99
69.56
68.70
57.08
34.38
4.06
-27.60
-53.25
-68.27
-72.12
-67.77
-59.71
-51.91
-46.20
-42.68
-40.57
-39.24
-38.55
-38.71
-39.66
-41.01
-42.56
-43.94
-45.46
-48.29
-54.05
-63.90
-77.28
-90.95
-99.10
-96.50
-80.26
-52.11
-18.18
13.37
35.78
46.41
47.36
43.38
39.13
37.25
37.58
38.38
37.98
36.00
33.31
31.36
31.40
33.42
36.74
39.88
41.72
42.11
42.25
43.78
47.85
54.06
60.48
65.09
67.11
67.59
67.96
69.09
69.02
63.94
50.60
28.87
2.67
-21.75
-38.93
-46.82
-47.11
-43.72
-40.08
-37.48
-35.26
-32.15
-27.94
-23.64
-20.57
-19.64
-20.49
-21.75
-21.80
-19.68
-15.60
-10.88
-7.08
-5.34
-5.79
-7.56
-9.18
-9.42
-8.03
-5.86
-4.73
-6.15
-10.89
-18.50
-27.52
-36.33
-43.64
-49.22
-53.33
-57.36
-62.40
-69.23
-78.24
-89.12
-100.29
-108.65
-110.30
-101.43
-80.86
-51.02
-17.67
12.24
33.34
43.82
45.57
42.47
38.16
34.28
30.71
26.59
21.61
16.56
12.81
11.25
11.77
13.18
14.04
13.29
10.98
8.05
5.98
5.81
7.85
11.59
15.84
19.31
21.23
21.66
21.19
20.85
21.41
23.04
25.48
27.96
29.77
30.70
31.11
31.61
33.08
35.93
39.18
42.51
45.02
45.90
44.93
43.32
41.49
40.39
40.55
41.81
43.34
43.79
42.05
37.81
31.96
26.31
23.41
25.24
31.77
40.64
47.45
47.49
37.56
17.04
-11.90
-44.38
-74.14
-94.79
-101.06
-90.73
-65.81
-32.32
1.06
24.90
34.11
29.53
16.73
2.97
-6.32
-11.05
-13.85
-17.91
-24.79
-33.55
-41.43
-45.90
-45.34
-40.21
-32.83
-25.85
-21.78
-22.66
-30.25
-45.06
-65.88
-88.44
-106.37
-112.98
-103.41
-76.83
-36.90
9.33
54.00
88.39
109.55
120.00
123.85
123.16
116.60
103.82
82.38
53.49
21.88
-5.94
-25.21
-34.94
-37.55
-37.25
-37.68
-40.84
-45.82
-50.97
-54.69
-56.56
-57.27
-57.74
-58.20
-57.98
-56.36
-52.56
-46.56
-38.60
-29.02
-18.02
-5.71
7.50
20.59
31.68
38.99
41.50
39.65
35.03
29.40
23.74
18.11
12.34
6.79
2.95
2.99
8.78
20.73
37.00
53.94
67.59
75.40
77.11
74.66
71.15
69.89
73.11
80.85
90.39
97.05
95.88
83.73
60.86
31.44
2.72
-17.63
-24.88
-19.60
-7.47
3.36
5.56
-5.27
-30.00
-67.01
-110.23
-149.26
-173.18
-175.09
-153.94
-114.04
-64.01
-14.92
23.28
45.04
50.56
44.26
31.36
15.16
-4.18
-27.92
-55.36
-81.19
-97.24
-95.43
-72.61
-32.87
14.26
57.78
89.81
106.57
110.85
109.50
108.22
108.00
105.08
94.87
75.71
50.28
24.39
3.39
-11.33
-21.67
-31.32
-44.02
-60.65
-79.12
-96.59
-109.06
-116.28
-118.65
-116.96
-107.46
-86.50
-51.99
-5.09
48.79
101.75
144.54
169.74
173.24
154.76
116.75
65.03
7.67
-48.39
-92.44
-118.48
-127.14
-124.27
-117.46
-113.39
-116.57
-123.53
-128.64
-125.41
-109.33
-78.72
-35.34
17.33
67.36
104.20
123.80
128.21
123.51
115.33
107.06
99.95
94.11
89.54
87.94
90.80
96.54
100.36
95.13
74.91
39.10
-5.65
-50.13
-83.38
-98.30
-95.45
-81.68
-66.64
-57.68
-55.27
-55.92
-54.53
-48.44
-40.04
-34.68
-36.08
-42.15
-46.80
-42.84
-26.50
0.14
30.44
55.67
69.27
71.02
65.79
58.93
53.06
47.01
37.85
24.08
7.43
-8.50
-19.51
-24.00
-24.75
-26.89
-35.28
-51.75
-73.80
-97.32
-117.15
-129.85
-131.27
-119.03
-92.77
-54.59
-9.07
37.48
78.47
107.94
124.16
130.16
129.68
124.58
114.15
96.95
74.82
49.42
25.12
7.11
-1.28
-0.69
5.18
11.28
13.82
11.18
3.55
-7.33
-19.61
-30.69
-38.81
-43.18
-43.93
-41.38
-36.00
-28.90
-21.10
-13.55
-6.86
-1.51
2.56
5.83
9.68
15.40
23.16
31.95
39.59
43.69
42.48
36.37
26.52
15.86
7.43
3.03
2.97
6.27
11.32
15.96
17.84
14.30
4.22
-11.71
-30.83
-48.90
-61.49
-65.56
-60.49
-45.54
-25.08
-3.44
17.00
35.50
51.37
62.68
66.48
60.39
44.43
21.40
-3.17
-23.52
-36.11
-40.72
-39.70
-36.34
-33.08
-30.68
-28.94
-26.82
-23.71
-19.97
-16.59
-14.44
-13.75
-13.96
-14.14
-13.62
-12.05
-9.59
-6.92
-4.77
-3.62
-3.44
-3.76
-3.95
-3.59
-2.54
-0.96
0.71
2.01
2.71
2.82
2.64
2.55
2.80
3.45
4.44
5.51
6.44
7.08
7.44
7.65
7.89
8.36
9.07
10.04
11.08
12.12
13.03
13.74
14.23
14.61
15.03
15.63
16.57
17.83
19.20
20.33
20.87
20.57
19.42
17.64
15.40
13.07
10.69
7.95
4.38
-0.44
-6.58
-13.61
-20.30
-25.95
-29.77
-31.61
-32.05
-32.17
-33.05
-35.28
-38.83
-42.63
-45.51
-46.62
-45.82
-43.79
-41.67
-40.59
-41.29
-44.21
-49.52
-56.88
-64.51
-69.12
-66.54
-53.68
-30.67
-2.06
24.97
43.12
48.63
43.09
32.49
23.84
21.79
26.67
35.29
43.23
47.23
46.29
41.29
33.88
25.62
17.93
11.95
8.56
7.95
9.02
9.65
7.17
-0.53
-14.17
-32.22
-51.07
-65.69
-71.21
-64.98
-47.85
-24.49
-1.75
14.04
19.87
17.01
10.25
5.28
5.85
12.40
22.36
32.18
38.70
41.42
41.55
40.80
39.97
38.79
36.59
32.89
28.52
25.28
25.55
30.11
38.65
49.68
60.97
70.36
76.17
77.88
75.96
71.51
65.39
58.06
49.61
40.07
29.88
19.82
11.23
5.48
3.48
5.08
9.30
14.76
19.74
22.48
21.05
14.61
3.83
-8.82
-20.27
-27.87
-30.25
-28.68
-23.86
-18.77
-16.10
-16.81
-19.92
-24.38
-29.00
-32.40
-34.16
-35.20
-38.47
-48.09
-67.81
-99.76
-144.87
-200.78
-260.95
-316.71
-359.04
-380.73
-377.47
-348.37
-296.21
-229.24
-157.62
-88.94
-27.41
26.69
74.88
114.35
136.72
144.60
141.00
124.14
98.42
71.90
53.02
46.54
51.99
65.46
82.63
99.35
114.72
131.44
152.48
178.32
205.19
227.06
239.54
242.29
237.14
227.43
216.37
205.69
195.66
184.50
170.12
151.76
130.50
107.23
82.78
57.46
31.93
7.01
-18.59
-47.14
-80.24
-117.45
-157.08
-196.50
-233.82
-266.43
-281.08
-265.74
-220.56
-159.85
-100.59
-55.36
-21.27
5.39
28.52
51.81
73.70
92.65
107.97
115.29
113.16
105.51
97.89
94.33
94.43
92.87
83.71
64.08
38.44
10.98
-13.08
-31.72
-46.07
-59.93
-79.13
-108.71
-151.23
-200.62
-247.28
-279.24
-287.11
-266.63
-220.33
-157.50
-90.96
-32.95
8.73
31.47
38.10
33.27
21.83
8.17
-3.78
-10.50
-9.97
-3.19
4.07
3.12
-15.38
-56.85
-119.15
-191.88
-259.50
-307.14
-325.49
-313.26
-274.95
-218.92
-154.85
-92.22
-39.34
-2.74
13.98
12.00
-2.18
-16.50
-19.47
-5.15
24.93
63.49
100.64
127.10
137.49
131.83
118.63
107.73
105.97
116.12
138.24
170.14
207.57
245.44
279.21
310.99
341.74
368.14
384.61
388.07
379.41
362.35
342.65
327.50
331.10
362.05
417.21
483.12
543.66
585.09
598.77
583.11
500.36
348.86
167.47
6.86
-108.45
-181.85
-227.54
-257.90
-279.53
-296.02
-301.56
-293.55
-276.93
-261.99
-255.49
-259.19
-272.65
-296.25
-325.27
-352.62
-374.42
-391.21
-405.99
-416.84
-417.30
-401.51
-368.18
-321.89
-269.23
-219.86
-173.94
-138.27
-114.35
-95.10
-71.43
-39.45
-2.30
33.69
61.94
78.29
82.91
78.56
69.45
58.55
47.09
35.41
24.28
14.90
8.27
3.62
-1.07
-7.20
-16.32
-29.48
-46.05
-63.58
-78.33
-86.79
-87.82
-82.03
-70.88
-56.14
-38.63
-17.72
8.06
39.67
76.20
114.19
148.89
176.07
192.87
198.50
194.13
182.31
166.14
148.65
132.22
118.42
108.09
101.04
96.30
92.46
88.15
82.33
74.45
64.48
52.86
40.55
28.77
18.64
10.86
5.35
1.27
-2.61
-7.29
-13.12
-19.54
-25.57
-30.32
-33.58
-35.85
-38.11
-41.21
-45.54
-50.83
-56.43
-61.62
-65.86
-68.75
-70.00
-69.28
-66.34
-61.14
-54.03
-45.71
-37.01
-28.66
-21.09
-14.45
-8.70
-3.81
0.28
3.62
6.34
8.59
10.54
12.24
13.64
14.65
15.25
15.51
15.55
15.41
15.04
14.29
13.04
11.26
9.07
6.63
4.09
1.61
-0.69
-2.56
-3.68
-3.72
-2.51
-0.18
2.87
6.06
8.82
10.76
11.73
11.72
10.85
9.29
7.24
4.96
2.78
1.02
-0.06
-0.35
0.06
0.94
1.97
2.82
3.24
3.09
2.35
1.09
-0.54
-2.42
-4.41
-6.39
-8.22
-9.67
-10.46
-10.29
-8.90
-6.20
-2.33
2.32
7.19
11.73
15.52
18.38
20.33
21.47
21.90
21.68
20.89
19.72
18.51
17.63
17.37
17.71
18.35
18.88
18.96
18.50
17.73
16.96
16.36
15.85
15.02
13.34
10.37
5.94
0.28
-6.01
-12.03
-16.78
-19.37
-19.26
-16.48
-11.62
-5.77
-0.25
3.66
5.08
3.69
-0.18
-5.65
-11.54
-16.70
-20.31
-22.06
-22.14
-21.11
-19.63
-18.32
-17.59
-17.65
-18.56
-20.28
-22.69
-25.65
-29.06
-32.88
-37.06
-41.46
-45.66
-48.87
-50.02
-48.03
-42.26
-32.88
-20.95
-8.27
3.25
12.16
17.98
21.28
23.33
25.62
29.21
34.48
41.02
47.98
54.28
59.04
61.73
62.18
60.62
57.48
53.32
48.69
44.04
39.72
35.92
32.71
29.95
27.33
24.41
20.72
15.99
10.35
4.37
-1.10
-5.24
-7.53
-7.98
-7.01
-5.24
-3.21
-1.18
0.82
2.99
5.52
8.53
12.01
15.88
20.00
24.27
28.63
33.04
37.44
41.69
45.53
48.63
50.79
51.93
52.15
51.55
50.08
47.40
43.10
36.97
29.35
21.15
13.69
8.18
5.34
5.22
7.36
10.99
15.30
19.48
22.61
23.82
22.49
18.54
12.60
5.73
-1.04
-7.12
-12.57
-17.76
-23.03
-28.30
-33.09
-36.85
-39.32
-40.73
-41.68
-42.94
-45.09
-48.40
-52.81
-58.08
-63.87
-69.87
-75.82
-81.36
-86.09
-89.49
-91.12
-90.70
-88.19
-83.75
-77.63
-70.13
-61.63
-52.68
-44.02
-36.43
-30.50
-26.37
-23.72
-21.98
-20.59
-19.17
-17.53
-15.56
-13.20
-10.52
-7.75
-5.22
-3.12
-1.26
0.93
4.15
8.73
14.29
19.78
23.80
25.24
23.68
19.52
13.75
7.53
1.68
-3.54
-8.51
-14.05
-21.09
-30.24
-41.47
-53.98
-66.57
-78.13
-88.10
-96.69
-104.72
-113.21
-122.84
-133.58
-144.57
-154.10
-159.79
-158.96
-149.23
-129.43
-100.30
-64.84
-27.73
5.86
31.78
48.08
55.29
55.81
52.75
48.91
46.07
44.97
45.60
47.58
50.44
53.63
56.56
58.69
59.68
59.50
58.46
57.08
55.84
54.88
53.91
52.24
49.09
44.00
37.12
29.40
22.43
18.05
17.64
21.50
28.48
36.20
41.75
42.75
38.21
28.92
17.19
5.91
-2.55
-7.00
-7.55
-5.16
-1.01
3.96
9.24
14.62
19.92
24.85
29.08
32.47
35.03
36.85
37.87
38.01
37.28
35.71
33.16
29.24
23.53
15.86
6.62
-3.07
-11.06
-14.56
-11.34
-0.95
14.96
33.34
50.64
63.75
70.56
71.02
67.32
62.75
60.12
60.71
64.19
68.64
70.92
67.29
55.05
34.01
6.17
-24.98
-55.14
-79.12
-90.71
-83.19
-57.14
-22.62
8.11
27.37
33.95
31.51
26.50
24.94
30.08
40.44
51.27
58.12
58.53
54.14
46.03
36.24
26.66
18.20
9.47
-1.84
-16.21
-32.39
-48.67
-64.53
-81.00
-100.44
-125.49
-151.40
-173.37
-186.33
-186.87
-174.01
-149.17
-115.17
-79.10
-41.35
-3.72
30.71
59.82
83.03
101.01
115.06
123.54
126.07
123.84
118.32
111.35
105.26
101.63
100.21
98.67
93.78
83.31
67.00
45.51
20.28
-6.36
-31.55
-52.20
-65.46
-69.39
-63.45
-49.05
-30.17
-12.18
0.18
4.20
0.04
-9.54
-20.41
-28.91
-33.40
-34.92
-35.93
-38.10
-40.71
-40.87
-35.26
-22.72
-5.38
12.07
24.85
30.94
32.13
32.69
36.61
45.11
56.24
66.42
72.85
75.16
75.24
75.55
77.29
79.54
79.87
75.78
66.15
51.65
34.02
14.96
-4.69
-25.34
-48.12
-74.32
-104.49
-137.90
-172.44
-205.03
-232.16
-250.89
-259.55
-258.26
-248.88
-234.03
-215.87
-195.20
-171.51
-143.69
-110.94
-73.25
-31.25
13.90
61.31
110.34
159.78
207.06
248.40
279.49
296.79
298.65
284.62
256.27
217.17
171.87
124.79
79.95
40.34
8.37
-14.36
-29.02
-37.18
-39.08
-33.97
-21.62
-2.58
20.61
44.45
64.78
74.36
67.86
45.29
11.77
-25.43
-58.50
-82.61
-95.35
-97.61
-97.30
-102.91
-118.49
-143.08
-173.40
-204.66
-234.07
-259.27
-255.03
-210.07
-137.38
-61.80
0.58
39.85
63.87
76.28
78.60
72.17
57.86
37.66
17.09
2.62
-2.38
2.33
12.67
24.38
34.34
38.47
35.69
29.86
27.33
32.46
46.13
64.09
80.51
90.15
88.33
73.69
49.20
20.03
-9.41
-36.18
-59.49
-78.74
-93.36
-103.78
-110.82
-114.95
-116.52
-115.95
-113.29
-108.41
-100.62
-89.64
-75.98
-60.39
-43.26
-24.92
-5.95
13.01
31.27
48.47
63.91
77.09
88.35
98.65
108.72
118.76
128.86
139.46
151.34
163.95
176.03
186.81
196.02
203.11
206.85
205.73
198.46
184.16
160.85
126.75
82.31
30.24
-25.91
-83.04
-138.62
-190.71
-227.77
-239.11
-225.41
-197.57
-166.23
-136.56
-110.36
-88.36
-70.91
-57.75
-49.20
-45.72
-44.14
-40.64
-32.58
-20.09
-5.46
8.27
18.77
24.24
24.67
22.54
20.25
20.20
22.80
26.80
30.46
32.67
32.50
29.58
23.95
15.30
3.28
-11.86
-28.15
-42.13
-50.39
-51.47
-46.18
-37.09
-27.38
-19.21
-12.98
-7.34
0.02
11.32
26.08
43.99
66.28
93.36
121.52
142.75
148.49
134.46
103.46
65.04
31.35
11.17
5.92
10.13
15.43
15.39
9.34
-1.10
-13.06
-24.48
-35.35
-47.01
-60.45
-74.76
-87.21
-94.56
-94.94
-88.53
-77.65
-66.07
-57.62
-54.77
-57.48
-64.25
-72.34
-79.09
-82.81
-83.32
-81.74
-79.62
-77.86
-76.12
-72.97
-66.77
-56.79
-43.70
-29.35
-15.96
-5.20
2.42
7.42
10.83
13.57
16.14
18.70
21.43
24.79
29.45
36.04
44.82
55.47
67.25
79.19
90.29
99.77
107.03
111.65
113.35
112.07
108.04
101.90
94.59
87.12
80.15
73.67
66.92
58.77
48.28
35.30
20.68
6.07
-6.65
-16.02
-21.44
-23.23
-22.46
-20.66
-19.49
-20.36
-24.08
-30.55
-38.56
-46.05
-50.70
-50.73
-45.52
-35.85
-23.59
-11.00
0.01
8.33
13.78
16.81
18.13
18.38
18.05
17.42
16.72
16.09
15.56
14.98
14.07
12.59
10.54
8.32
6.62
5.99
6.38
6.93
6.13
2.49
-4.60
-14.37
-24.73
-33.10
-37.39
-36.88
-32.31
-25.40
-17.98
-11.34
-6.00
-1.93
0.95
2.56
2.65
1.09
-1.97
-5.96
-10.08
-13.61
-16.15
-17.66
-18.46
-18.90
-19.22
-19.38
-19.11
-17.97
-15.57
-11.77
-6.80
-1.30
3.76
7.31
8.42
6.51
1.48
-6.24
-15.76
-25.82
-34.93
-41.57
-44.53
-43.26
-38.18
-30.73
-23.08
-17.38
-14.97
-15.88
-18.82
-21.87
-23.35
-22.48
-19.58
-15.52
-11.14
-6.70
-1.94
3.52
9.65
15.64
20.08
21.35
18.24
10.26
-2.12
-17.67
-34.61
-50.94
-64.77
-74.57
-79.40
-78.91
-73.37
-63.49
-50.29
-34.92
-18.49
-1.98
13.81
28.29
41.03
51.64
59.87
65.64
69.13
70.82
71.33
71.20
70.72
69.82
68.23
65.59
61.85
57.31
52.78
49.42
48.48
50.81
56.33
63.69
70.43
73.63
70.94
61.65
47.09
30.28
14.90
4.02
-0.83
0.09
5.05
11.61
17.31
20.21
19.10
13.67
4.56
-6.78
-18.30
-27.90
-33.98
-35.92
-34.15
-29.94
-24.84
-20.18
-16.70
-14.48
-13.07
-11.82
-10.09
-7.52
-4.13
-0.31
3.31
6.09
7.61
7.87
7.34
6.83
7.25
9.33
13.40
19.30
26.35
33.56
39.78
43.99
45.57
44.43
41.03
36.29
31.29
26.96
23.84
22.00
21.05
20.42
19.54
18.01
15.71
12.74
9.30
5.67
2.15
-1.04
-3.80
-6.28
-8.88
-12.18
-16.68
-22.47
-29.05
-35.30
-39.78
-41.19
-38.79
-32.68
-23.76
-13.55
-3.83
3.68
7.69
7.52
3.33
-3.96
-12.73
-21.10
-27.32
-30.18
-29.29
-25.11
-18.68
-11.30
-4.20
1.78
6.23
9.16
10.84
11.65
11.92
11.83
11.35
10.25
8.26
5.21
1.23
-3.20
-7.24
-10.03
-10.90
-9.65
-6.63
-2.59
1.55
4.97
7.12
7.75
6.93
4.94
2.15
-1.04
-4.30
-7.47
-10.44
-13.19
-15.61
-17.56
-18.83
-19.25
-18.71
-17.23
-14.94
-12.11
-9.15
-6.56
-4.90
-4.62
-5.92
-8.55
-11.83
-14.79
-16.41
-15.95
-13.18
-8.43
-2.45
3.81
9.47
13.92
16.86
18.29
18.38
17.44
15.80
13.83
11.89
10.33
9.36
9.05
9.26
9.76
10.29
10.64
10.69
10.37
9.66
8.50
6.93
5.03
2.94
0.81
-1.31
-3.43
-5.61
-7.83
-9.91
-11.54
-12.36
-12.12
-10.78
-8.51
-5.64
-2.52
0.50
3.15
5.19
6.50
7.03
6.84
6.09
4.99
3.77
2.65
1.75
1.11
0.63
0.15
-0.53
-1.53
-2.88
-4.46
-6.10
-7.63
-8.94
-10.04
-11.01
-11.92
-12.80
-13.51
-13.82
-13.42
-12.02
-9.48
-5.86
-1.45
3.29
7.81
11.63
14.41
16.06
16.63
16.34
15.45
14.20
12.78
11.29
9.76
8.19
6.61
5.05
3.59
2.26
1.03
-0.20
-1.55
-3.10
-4.82
-6.59
-8.30
-9.89
-11.34
-12.67
-13.75
-14.36
-14.17
-12.95
-10.74
-7.83
-4.71
-1.83
0.53
2.32
3.61
4.49
4.98
5.04
4.71
4.12
3.49
2.99
2.69
2.56
2.48
2.39
2.27
2.18
2.16
2.20
2.20
2.05
1.61
0.78
-0.45
-2.02
-3.70
-5.23
-6.25
-6.51
-5.90
-4.52
-2.64
-0.59
1.33
2.93
4.12
4.88
5.22
5.15
4.67
3.85
2.81
1.71
0.71
-0.07
-0.57
-0.82
-0.86
-0.78
-0.67
-0.58
-0.59
-0.73
-0.99
-1.36
-1.82
-2.37
-3.03
-3.85
-4.81
-5.79
-6.54
-6.75
-6.17
-4.74
-2.61
-0.15
2.24
4.28
5.82
6.87
7.47
7.67
7.45
6.82
5.89
4.84
3.89
3.19
2.73
2.38
1.94
1.31
0.51
-0.35
-1.13
-1.76
-2.26
-2.72
-3.27
-3.99
-4.91
-5.97
-7.04
-7.89
-8.26
-7.94
-6.79
-4.86
-2.38
0.29
2.82
4.93
6.46
7.39
7.72
7.53
6.88
5.89
4.69
3.41
2.17
1.07
0.14
-0.62
-1.21
-1.64
-1.93
-2.06
-2.04
-1.93
-1.82
-1.84
-2.17
-2.89
-4.05
-5.53
-7.08
-8.35
-8.95
-8.61
-7.27
-5.06
-2.33
0.47
2.94
4.81
5.97
6.46
6.39
5.89
5.10
4.17
3.26
2.49
1.96
1.65
1.52
1.49
1.45
1.29
0.95
0.33
-0.63
-1.94
-3.55
-5.29
-6.98
-8.44
-9.56
-10.31
-10.68
-10.65
-10.14
-9.07
-7.41
-5.29
-2.96
-0.72
1.15
2.53
3.41
3.89
4.04
3.90
3.47
2.77
1.92
1.07
0.39
-0.04
-0.21
-0.28
-0.35
-0.51
-0.76
-1.04
-1.30
-1.58
-2.00
-2.69
-3.69
-4.92
-6.16
-7.14
-7.62
-7.50
-6.75
-5.44
-3.70
-1.72
0.23
1.89
3.03
3.56
3.53
3.15
2.64
2.18
1.81
1.54
1.32
1.16
1.07
1.05
1.06
1.04
0.91
0.64
0.30
-0.02
-0.25
-0.43
-0.69
-1.23
-2.19
-3.56
-5.10
-6.46
-7.26
-7.25
-6.38
-4.82
-2.88
-0.87
0.94
2.36
3.30
3.74
3.74
3.41
2.91
2.36
1.88
1.49
1.19
0.96
0.85
0.88
1.07
1.32
1.54
1.61
1.44
1.02
0.40
-0.37
-1.24
-2.21
-3.28
-4.39
-5.42
-6.16
-6.38
-5.93
-4.81
-3.17
-1.28
0.58
2.18
3.42
4.30
4.86
5.14
5.19
5.03
4.70
4.17
3.38
2.20
0.57
-1.47
-3.65
-5.57
-6.81
-7.11
-6.45
-5.03
-3.17
-1.16
0.77
2.44
3.69
4.34
4.27
3.50
2.22
0.72
-0.72
-1.93
-2.89
-3.69
-4.40
-4.97
-5.22
-4.89
-3.86
-2.17
-0.11
1.89
3.45
4.31
4.47
4.09
3.40
2.58
1.74
0.92
0.18
-0.43
-0.87
-1.13
-1.30
-1.50
-1.89
-2.57
-3.54
-4.65
-5.62
-6.11
-5.86
-4.79
-3.07
-1.04
0.93
2.52
3.64
4.33
4.72
4.94
5.01
4.97
4.84
4.64
4.40
4.11
3.72
3.22
2.65
2.09
1.66
1.42
1.34
1.30
1.15
0.75
0.07
-0.87
-1.97
-3.09
-4.09
-4.80
-5.08
-4.82
-3.99
-2.69
-1.08
0.62
2.21
3.53
4.47
4.94
4.97
4.63
4.05
3.44
2.97
2.73
2.66
2.61
2.36
1.83
1.03
0.12
-0.66
-1.17
-1.36
-1.34
-1.31
-1.44
-1.87
-2.61
-3.60
-4.67
-5.65
-6.32
-6.50
-6.08
-5.02
-3.45
-1.60
0.21
1.72
2.73
3.19
3.16
2.79
2.26
1.67
1.12
0.64
0.24
-0.09
-0.40
-0.70
-1.04
-1.39
-1.72
-1.98
-2.14
-2.21
-2.29
-2.53
-3.07
-3.95
-5.09
-6.23
-7.07
-7.31
-6.82
-5.64
-3.95
-2.02
-0.14
1.47
2.68
3.43
3.72
3.62
3.24
2.72
2.21
1.82
1.57
1.45
1.37
1.24
1.02
0.73
0.39
0.05
-0.31
-0.73
-1.25
-1.88
-2.59
-3.33
-4.07
-4.80
-5.47
-5.98
-6.17
-5.88
-4.98
-3.49
-1.59
0.44
2.25
3.58
4.27
4.37
4.06
3.60
3.21
2.97
2.87
2.81
2.71
2.56
2.45
2.43
2.46
2.43
2.21
1.73
1.06
0.33
-0.34
-0.91
-1.49
-2.18
-3.02
-3.89
-4.52
-4.64
-4.08
-2.87
-1.24
0.52
2.14
3.44
4.37
4.89
5.02
4.75
4.12
3.21
2.20
1.26
0.53
0.08
-0.12
-0.14
-0.05
0.02
-0.05
-0.38
-1.09
-2.13
-3.36
-4.53
-5.45
-5.99
-6.22
-6.25
-6.20
-6.02
-5.54
-4.49
-2.73
-0.30
2.50
5.18
7.26
8.33
8.30
7.34
5.91
4.58
3.83
3.91
4.74
5.97
7.06
7.55
7.15
5.82
3.73
1.23
-1.32
-3.59
-5.38
-6.60
-7.34
-7.73
-7.98
-8.27
-8.73
-9.38
-10.11
-10.74
-11.04
-10.80
-9.89
-8.33
-6.14
-3.30
0.34
5.02
10.83
17.51
24.23
29.80
32.99
33.01
29.94
24.62
18.42
12.58
7.84
4.29
1.54
-0.89
-3.27
-5.55
-7.54
-9.15
-10.56
-12.10
-14.12
-16.67
-19.42
-21.76
-23.04
-22.86
-21.17
-18.29
-14.78
-11.25
-8.20
-5.87
-4.27
-3.21
-2.44
-1.75
-1.07
-0.43
0.11
0.50
0.77
0.99
1.24
1.52
1.81
2.12
2.46
2.82
3.15
3.25
2.84
1.74
0.03
-1.77
-2.78
-1.96
1.51
7.84
16.48
26.22
35.55
43.01
47.65
49.06
47.31
42.80
36.08
27.77
18.55
9.10
0.03
-8.16
-15.21
-20.97
-25.41
-28.49
-30.16
-30.47
-29.65
-28.15
-26.53
-25.32
-24.76
-24.74
-24.85
-24.58
-23.57
-21.78
-19.43
-16.83
-14.25
-11.73
-9.14
-6.30
-3.13
0.27
3.62
6.61
9.01
10.76
11.95
12.71
13.14
13.27
13.03
12.40
11.42
10.24
9.04
7.97
7.03
6.17
5.28
4.29
3.22
2.14
1.11
0.14
-0.77
-1.66
-2.54
-3.43
-4.35
-5.32
-6.30
-7.16
-7.67
-7.55
-6.62
-4.90
-2.69
-0.40
1.55
2.90
3.63
3.92
3.99
4.02
4.05
4.02
3.85
3.51
3.05
2.55
2.11
1.81
1.65
1.65
1.78
2.02
2.32
2.56
2.63
2.38
1.75
0.76
-0.47
-1.70
-2.68
-3.23
-3.23
-2.72
-1.80
-0.63
0.64
1.86
2.93
3.71
4.14
4.16
3.81
3.18
2.41
1.64
0.98
0.47
0.12
-0.12
-0.31
-0.53
-0.84
-1.26
-1.78
-2.30
-2.71
-2.92
-2.94
-2.92
-3.09
-3.63
-4.61
-5.84
-6.99
-7.66
-7.58
-6.66
-5.06
-3.02
-0.85
1.18
2.86
4.06
4.72
4.88
4.67
4.29
3.91
3.68
3.58
3.54
3.44
3.18
2.76
2.22
1.65
1.10
0.59
0.14
-0.26
-0.61
-0.92
-1.23
-1.64
-2.23
-3.03
-4.00
-4.98
-5.76
-6.10
-5.83
-4.88
-3.36
-1.51
0.35
1.89
2.92
3.39
3.46
3.32
3.15
3.03
2.95
2.84
2.67
2.46
2.28
2.19
2.20
2.23
2.21
2.06
1.77
1.36
0.85
0.30
-0.28
-0.89
-1.54
-2.25
-3.00
-3.75
-4.34
-4.62
-4.46
-3.80
-2.75
-1.52
-0.31
0.68
1.40
1.87
2.11
2.15
1.98
1.61
1.13
0.65
0.29
0.09
-0.01
-0.10
-0.28
-0.56
-0.88
-1.11
-1.18
-1.08
-0.88
-0.70
-0.65
-0.78
-1.14
-1.76
-2.65
-3.77
-4.92
-5.81
-6.12
-5.61
-4.27
-2.32
-0.13
1.95
3.62
4.73
5.22
5.09
4.39
3.29
2.05
0.95
0.19
-0.19
-0.31
-0.36
-0.48
-0.68
-0.84
-0.88
-0.76
-0.56
-0.42
-0.50
-0.88
-1.58
-2.56
-3.74
-4.98
-6.08
-6.83
-7.04
-6.59
-5.50
-3.93
-2.16
-0.44
1.01
2.08
2.75
3.09
3.18
3.10
2.85
2.41
1.76
0.94
0.06
-0.73
-1.28
-1.55
-1.58
-1.53
-1.52
-1.66
-1.94
-2.34
-2.85
-3.50
-4.38
-5.52
-6.91
-8.39
-9.71
-10.58
-10.75
-10.05
-8.46
-6.06
-3.11
0.05
3.10
5.76
8.00
10.00
12.19
15.20
19.71
26.33
35.32
46.49
59.15
72.21
84.52
95.18
103.77
110.38
115.42
119.32
122.33
124.44
125.45
125.15
123.42
120.06
114.99
108.27
100.15
90.98
81.19
71.22
61.42
51.98
42.70
33.26
23.49
13.43
3.27
-6.85
-16.81
-26.49
-35.75
-44.69
-53.26
-61.04
-67.50
-72.37
-75.81
-78.21
-79.90
-81.01
-82.50
-85.00
-88.17
-90.97
-92.52
-92.58
-91.30
-89.02
-86.06
-84.86
-87.14
-92.37
-98.11
-101.93
-102.62
-99.98
-94.39
-86.41
-80.07
-78.45
-81.37
-85.98
-89.59
-91.18
-90.77
-88.58
-84.95
-85.22
-94.55
-114.86
-144.78
-182.24
-225.64
-272.72
-320.34
-336.39
-301.84
-224.13
-130.01
-41.59
33.17
94.75
145.65
187.08
219.04
236.97
238.58
226.93
208.95
191.38
176.20
163.36
152.37
143.35
133.60
121.59
108.83
98.90
94.34
94.76
97.92
100.75
100.63
94.23
80.42
61.70
42.65
26.67
14.15
3.74
-5.87
-14.44
-21.38
-25.87
-27.67
-27.78
-28.29
-31.07
-36.22
-42.31
-47.57
-51.70
-55.82
-61.25
-68.25
-75.57
-81.12
-83.22
-81.72
-78.15
-74.80
-73.46
-74.61
-77.36
-80.21
-81.72
-80.97
-77.61
-71.75
-63.73
-54.07
-43.52
-32.90
-22.95
-14.06
-6.12
1.32
8.72
16.16
23.12
28.77
32.34
33.66
33.31
32.42
32.23
33.58
36.68
41.21
46.59
52.30
57.98
63.40
68.27
72.14
74.52
75.08
73.87
71.46
68.77
66.65
65.51
65.08
64.48
62.58
58.51
51.93
43.19
33.16
22.78
12.91
4.06
-3.50
-9.61
-14.12
-16.86
-17.73
-16.72
-13.97
-9.71
-4.24
1.99
8.30
13.74
17.24
17.89
15.28
9.58
1.63
-7.43
-16.38
-24.14
-29.90
-33.17
-33.93
-32.62
-30.09
-27.26
-24.80
-22.79
-20.80
-18.22
-14.68
-10.36
-5.85
-1.90
1.06
3.13
4.92
7.12
10.13
13.72
16.97
18.63
17.60
13.42
6.57
-1.64
-9.53
-15.71
-19.54
-21.23
-21.56
-21.47
-21.59
-22.17
-23.12
-24.30
-25.65
-27.27
-29.40
-32.27
-36.03
-40.78
-46.47
-53.02
-60.30
-68.09
-76.12
-83.92
-90.77
-95.79
-98.00
-96.73
-91.77
-83.50
-72.66
-59.95
-45.67
-29.70
-11.70
8.55
30.77
54.12
77.23
98.30
115.29
126.24
129.88
126.24
117.10
105.76
96.11
91.24
92.11
97.21
103.19
106.23
103.53
94.10
78.73
59.30
38.09
17.27
-1.23
-15.84
-25.40
-29.44
-28.26
-22.98
-15.23
-6.79
0.82
6.66
10.40
12.30
12.93
12.92
12.71
12.42
11.95
11.23
10.41
9.83
9.82
10.40
11.11
11.21
9.97
6.97
2.18
-4.15
-11.65
-19.93
-28.54
-36.91
-44.33
-50.04
-53.27
-53.34
-49.69
-42.00
-30.42
-15.62
1.12
18.24
34.22
47.85
58.34
65.24
68.38
68.01
64.93
60.56
56.61
54.45
54.38
55.34
55.24
51.95
44.22
32.31
17.82
2.96
-10.31
-20.90
-28.69
-34.21
-38.16
-41.14
-43.49
-45.44
-47.16
-48.86
-50.65
-52.52
-54.25
-55.49
-55.86
-55.13
-53.31
-50.73
-47.94
-45.53
-43.75
-42.36
-40.55
-37.43
-32.61
-26.73
-21.51
-19.17
-21.55
-29.32
-41.59
-56.20
-70.41
-81.79
-88.76
-90.92
-88.85
-83.52
-75.69
-65.44
-52.15
-35.09
-14.04
10.09
35.29
59.03
79.17
94.57
105.22
111.90
115.61
117.27
117.67
117.26
116.11
113.66
108.82
100.42
87.80
71.38
52.56
33.11
14.41
-2.91
-18.68
-32.50
-43.12
-48.52
-46.77
-37.24
-21.38
-2.58
14.95
27.66
33.91
34.34
31.37
27.93
26.39
27.80
32.06
38.34
45.72
53.45
60.90
67.32
71.68
72.85
70.06
63.34
53.87
43.78
35.62
31.46
32.16
36.99
43.80
49.67
52.02
49.50
42.58
33.37
24.66
18.83
17.13
19.58
25.54
34.20
44.65
55.48
64.32
67.90
62.93
47.32
21.36
-12.33
-49.49
-85.88
-118.48
-146.00
-168.48
-186.37
-199.78
-208.09
-210.31
-205.75
-194.80
-179.10
-160.96
-142.32
-123.75
-104.35
-82.49
-57.27
-29.56
-2.03
21.88
39.61
50.61
56.39
59.52
62.22
65.51
69.21
72.50
74.69
75.49
74.82
72.57
68.47
62.21
53.64
42.99
30.88
18.11
5.61
-5.83
-15.57
-23.27
-28.99
-33.25
-36.91
-40.94
-46.09
-52.65
-60.50
-69.17
-78.11
-86.76
-94.44
-100.29
-103.22
-102.24
-96.82
-87.25
-74.65
-60.56
-46.37
-32.75
-19.62
-6.40
7.30
21.21
34.32
45.26
52.83
56.56
56.79
54.39
50.31
45.25
39.61
33.73
28.12
23.66
21.38
22.20
26.47
33.77
42.99
52.63
61.24
67.78
71.80
73.35
72.90
71.01
68.22
64.89
61.16
57.13
52.98
49.03
45.72
43.42
42.25
42.05
42.46
43.20
44.27
45.93
48.55
52.23
56.72
61.42
65.75
69.33
72.06
73.98
74.97
74.77
73.07
69.69
64.64
57.97
49.48
38.72
25.25
9.15
-8.54
-25.97
-40.93
-51.69
-57.44
-58.47
-55.89
-51.15
-45.66
-40.48
-36.13
-32.62
-29.73
-27.29
-25.48
-24.74
-25.51
-27.95
-31.96
-37.49
-44.87
-54.92
-68.43
-85.51
-105.04
-124.89
-142.71
-156.94
-167.32
-174.56
-179.49
-182.29
-182.27
-178.28
-169.44
-155.68
-137.94
-117.94
-97.73
-79.26
-63.91
-52.16
-43.54
-36.73
-30.11
-22.31
-12.66
-1.36
10.80
22.91
34.37
45.03
55.03
64.40
72.85
79.77
84.51
86.85
87.11
86.05
84.43
82.52
80.00
76.18
70.57
63.31
55.24
47.46
40.67
34.68
28.52
21.10
12.02
2.07
-6.93
-12.71
-13.43
-8.16
2.99
19.22
39.32
61.85
85.14
107.27
126.40
141.18
151.06
156.23
157.07
153.49
144.60
129.10
105.97
75.34
38.69
-1.35
-41.82
-80.07
-114.17
-143.00
-166.17
-183.98
-197.31
-207.43
-215.35
-221.29
-224.27
-222.13
-212.13
-191.75
-159.66
-116.34
-64.41
-8.18
47.05
96.20
135.51
163.52
181.51
193.04
202.72
214.26
228.82
244.26
255.94
258.67
249.01
226.80
195.12
158.85
122.66
89.43
59.88
33.35
8.95
-13.67
-34.33
-52.79
-69.22
-84.18
-98.42
-112.34
-126.02
-139.34
-152.20
-164.78
-177.56
-191.08
-205.61
-220.64
-234.55
-244.81
-248.73
-244.53
-232.42
-214.85
-195.89
-179.87
-169.83
-166.63
-169.00
-174.43
-180.28
-184.47
-185.71
-183.29
-176.98
-167.21
-155.04
-142.05
-129.77
-118.96
-109.46
-100.17
-89.80
-77.38
-62.76
-46.38
-29.02
-11.37
6.19
23.45
40.27
56.44
71.61
85.38
97.49
108.00
117.54
127.45
139.41
154.78
173.71
194.62
214.47
229.86
238.41
239.73
235.43
227.97
219.35
210.15
199.73
187.26
172.91
158.27
145.79
137.61
134.57
135.74
139.05
142.40
144.52
145.17
144.82
144.14
143.57
143.24
142.91
142.11
140.62
138.53
136.18
133.75
131.10
127.72
123.03
116.05
105.74
91.37
72.76
50.25
24.69
-2.52
-29.52
-54.09
-74.96
-92.00
-106.01
-118.08
-129.11
-139.54
-149.48
-159.11
-166.74
-170.18
-168.37
-162.21
-153.09
-141.76
-128.71
-114.93
-103.43
-94.69
-89.16
-86.61
-85.89
-85.44
-84.25
-82.46
-79.78
-76.70
-72.88
-67.87
-61.55
-54.83
-49.62
-47.96
-50.49
-55.50
-59.46
-58.40
-50.68
-37.80
-23.56
-11.87
-4.52
-0.32
4.25
13.03
28.58
50.72
76.92
103.44
126.58
143.65
153.27
155.23
150.13
139.17
123.68
104.92
84.10
62.41
40.99
20.87
2.66
-13.60
-28.15
-41.11
-51.69
-58.18
-58.81
-53.11
-43.03
-32.68
-26.75
-28.15
-36.60
-48.78
-60.33
-68.13
-71.73
-72.89
-73.99
-76.27
-79.26
-81.33
-80.95
-77.56
-71.60
-63.88
-54.93
-44.82
-33.38
-20.70
-7.50
4.98
15.26
22.26
25.72
26.40
25.78
25.57
27.01
30.47
35.43
40.85
45.58
48.82
50.30
50.09
48.51
45.82
42.17
37.59
32.10
25.80
18.91
11.84
5.09
-0.72
-4.98
-7.17
-6.95
-4.29
0.58
7.19
14.98
23.42
32.09
40.68
48.90
56.44
62.86
67.73
70.72
71.86
71.59
70.66
69.84
69.56
69.70
69.55
68.11
64.66
59.19
52.44
45.39
38.63
31.84
24.02
13.95
1.04
-14.08
-29.63
-43.53
-54.48
-62.39
-68.21
-72.65
-75.97
-77.84
-77.52
-74.54
-69.32
-63.27
-58.19
-55.54
-55.09
-55.87
-56.72
-56.83
-56.08
-54.95
-54.06
-53.06
-50.18
-41.84
-25.63
-2.24
24.25
48.07
64.72
73.77
79.88
84.93
92.67
104.58
117.11
123.24
117.54
99.97
75.48
50.68
29.70
13.56
0.06
-13.36
-26.93
-38.18
-43.98
-43.30
-38.38
-33.89
-33.58
-38.83
-48.08
-57.71
-64.07
-65.42
-62.67
-58.13
-53.94
-50.37
-46.60
-41.82
-36.18
-30.88
-27.39
-26.51
-27.57
-28.82
-28.30
-25.26
-20.52
-15.74
-12.41
-10.36
-8.56
-4.92
2.95
16.91
37.47
63.64
93.28
123.66
151.90
175.28
191.70
199.69
198.39
187.55
167.58
139.52
105.24
67.35
29.09
-5.97
-34.74
-55.54
-68.57
-75.73
-79.63
-82.50
-85.44
-88.18
-89.48
-88.05
-83.50
-76.45
-68.16
-59.83
-52.22
-46.15
-42.18
-40.34
-40.06
-40.55
-41.02
-40.88
-39.78
-37.78
-36.24
-36.41
-38.30
-40.50
-41.36
-40.10
-37.07
-33.46
-30.74
-31.49
-37.19
-46.72
-56.57
-62.95
-63.46
-57.42
-45.58
-29.77
-14.89
-6.48
-8.51
-22.26
-47.10
-80.91
-120.02
-159.43
-181.04
-171.34
-131.26
-75.33
-18.88
29.30
66.11
91.75
108.32
119.03
125.14
126.92
124.48
117.87
106.44
89.36
67.32
43.07
20.72
2.52
-10.41
-17.05
-16.24
-7.68
6.82
23.41
37.21
44.14
41.68
30.92
16.67
5.36
1.59
6.15
16.63
29.20
40.62
48.61
51.99
50.43
44.01
33.23
19.20
4.09
-9.79
-20.12
-25.70
-26.89
-25.06
-21.93
-18.84
-16.38
-14.33
-12.03
-8.85
-4.74
-0.37
3.08
4.53
3.55
0.56
-3.39
-7.17
-9.91
-11.34
-11.72
-11.54
-11.29
-11.30
-11.59
-11.99
-12.10
-11.46
-9.74
-6.98
-3.57
-0.11
2.76
4.71
5.62
5.67
5.41
5.81
8.14
13.75
23.66
37.04
52.05
65.72
74.89
77.36
72.62
62.01
47.85
32.49
17.39
3.27
-9.46
-20.03
-27.08
-29.29
-26.31
-19.36
-11.01
-4.03
0.00
1.39
1.89
3.59
7.53
13.17
18.83
22.81
24.31
23.67
21.88
19.77
17.64
15.29
12.48
9.26
6.01
3.27
1.40
0.36
-0.22
-0.81
-1.68
-2.81
-3.88
-4.57
-4.73
-4.60
-4.68
-5.49
-7.24
-9.66
-12.11
-13.95
-14.86
-14.99
-14.76
-14.53
-14.38
-14.06
-13.27
-11.91
-10.25
-8.75
-7.81
-7.55
-7.81
-8.31
-8.87
-9.45
-10.07
-10.59
-10.62
-9.59
-7.01
-2.74
2.89
9.22
15.59
21.65
27.61
34.06
41.58
50.14
58.95
66.55
71.42
72.58
69.96
64.26
56.32
46.61
34.93
20.76
3.90
-14.98
-34.28
-51.99
-66.46
-76.93
-83.60
-87.26
-88.73
-88.45
-86.51
-82.94
-77.98
-72.26
-66.57
-61.48
-57.06
-52.84
-48.08
-42.15
-34.91
-26.74
-18.45
-10.89
-4.67
-0.11
2.72
3.82
3.15
0.73
-3.27
-8.52
-14.52
-20.80
-26.87
-32.23
-36.23
-38.12
-37.25
-33.35
-26.77
-18.49
-9.78
-1.83
4.61
9.26
12.21
13.75
14.19
13.91
13.36
13.03
13.31
14.31
15.80
17.23
17.95
17.45
15.54
12.41
8.51
4.42
0.52
-3.08
-6.62
-10.49
-15.03
-20.30
-25.93
-31.28
-35.55
-38.10
-38.65
-37.32
-34.52
-30.78
-26.54
-22.10
-17.67
-13.41
-9.55
-6.34
-3.96
-2.37
-1.28
-0.23
1.29
3.63
6.83
10.59
14.46
18.06
21.28
24.36
27.79
32.02
37.17
42.86
48.35
52.81
55.67
56.81
56.56
55.44
53.94
52.36
50.76
49.10
47.29
45.25
42.89
40.04
36.58
32.48
28.01
23.67
20.06
17.44
15.54
13.56
10.52
5.82
-0.42
-7.35
-13.75
-18.65
-21.63
-22.82
-22.63
-21.31
-18.78
-14.80
-9.35
-3.01
3.00
7.08
7.91
4.99
-0.93
-8.13
-14.51
-18.45
-19.45
-18.18
-15.94
-13.90
-12.53
-11.54
-10.28
-8.27
-5.52
-2.40
0.68
3.56
6.33
9.00
11.35
12.82
12.78
10.97
7.74
3.94
0.64
-1.39
-1.98
-1.61
-1.13
-1.42
-3.03
-6.03
-9.92
-13.81
-16.62
-17.40
-15.64
-11.39
-5.37
1.21
7.02
10.95
12.46
11.63
9.11
5.72
2.21
-1.00
-3.82
-6.32
-8.56
-10.43
-11.71
-12.13
-11.63
-10.43
-9.00
-7.85
-7.30
-7.36
-7.68
-7.82
-7.36
-6.12
-4.12
-1.55
1.29
4.10
6.54
8.22
8.86
8.42
7.26
6.10
5.77
6.84
9.28
12.39
15.11
16.48
16.12
14.34
11.94
9.81
8.51
8.14
8.40
8.83
9.10
9.09
8.85
8.63
8.78
9.77
11.99
15.54
20.05
24.63
28.24
30.13
30.32
29.69
29.57
31.18
35.02
40.63
46.83
52.18
55.42
55.71
52.61
46.02
36.05
23.14
8.10
-7.92
-23.56
-37.59
-49.06
-57.46
-62.69
-64.93
-64.72
-62.86
-60.44
-58.65
-58.53
-60.62
-64.88
-70.71
-77.19
-83.42
-88.64
-92.20
-93.42
-91.55
-85.93
-76.36
-63.33
-48.05
-32.16
-17.16
-3.94
7.38
17.33
26.56
35.43
43.72
50.66
55.30
56.89
55.24
50.85
44.73
38.09
31.98
27.06
23.56
21.44
20.55
20.74
21.84
23.68
26.02
28.73
31.85
35.66
40.65
47.16
55.15
63.87
71.91
77.46
78.81
74.88
65.59
51.86
35.35
18.06
1.86
-11.80
-22.09
-28.86
-32.68
-34.77
-36.77
-40.35
-46.71
-56.02
-67.22
-78.12
-85.73
-87.07
-79.83
-63.11
-37.85
-6.80
26.09
56.41
80.09
93.86
95.43
83.78
59.70
26.26
-11.14
-45.84
-71.76
-85.45
-87.04
-79.62
-67.54
-54.51
-42.72
-32.97
-25.46
-20.40
-17.85
-17.23
-17.07
-15.49
-11.16
-4.18
3.88
10.71
14.40
14.51
12.16
9.50
8.74
11.13
16.27
22.27
26.45
26.66
22.38
15.23
8.47
5.61
8.93
18.41
31.76
45.32
55.40
59.41
56.71
49.02
40.30
35.72
39.81
54.26
76.46
99.83
116.20
119.18
107.04
83.43
55.53
30.74
13.69
4.99
2.21
2.01
1.92
1.15
0.00
-1.03
-1.93
-3.14
-5.04
-7.48
-9.46
-9.65
-7.23
-2.61
2.22
4.41
1.21
-8.71
-24.55
-43.40
-61.26
-74.26
-79.81
-77.35
-68.40
-56.40
-45.55
-39.42
-39.71
-45.71
-54.83
-63.62
-69.04
-69.53
-65.73
-59.72
-53.69
-48.78
-44.82
-40.80
-35.43
-27.54
-16.38
-2.61
12.30
26.81
40.23
52.47
63.33
72.26
78.38
80.78
77.84
68.07
50.80
26.75
-2.59
-35.83
-71.90
-109.64
-141.10
-157.33
-153.83
-134.29
-106.43
-76.68
-48.53
-23.35
-1.60
16.46
29.21
36.46
38.21
35.57
30.12
22.97
14.69
5.86
-2.49
-9.86
-15.50
-19.31
-21.43
-22.35
-22.73
-22.85
-22.32
-20.36
-17.01
-13.15
-10.21
-8.96
-9.21
-10.14
-10.80
-10.59
-9.41
-7.88
-6.73
-6.64
-7.67
-9.54
-11.87
-14.30
-16.48
-18.01
-18.38
-16.73
-11.99
-2.98
10.49
27.10
44.14
58.44
67.48
70.49
68.71
64.72
61.42
60.18
60.52
61.12
61.04
60.33
59.89
60.68
62.93
66.40
69.99
73.16
77.19
84.80
98.14
116.82
137.47
155.08
165.73
166.88
157.97
140.15
115.23
84.50
48.62
8.55
-36.39
-79.52
-111.60
-127.81
-130.34
-125.03
-117.05
-109.13
-101.88
-94.69
-86.33
-76.98
-67.96
-60.65
-55.58
-52.50
-50.70
-49.25
-47.17
-43.31
-37.81
-31.87
-26.87
-23.61
-22.20
-22.19
-22.72
-22.79
-21.40
-18.59
-15.27
-12.64
-11.55
-12.35
-15.15
-19.87
-26.50
-33.77
-40.07
-43.30
-41.43
-33.44
-20.17
-4.34
10.44
21.18
26.81
28.11
27.03
25.40
24.09
22.87
21.04
18.23
14.81
11.67
9.58
8.83
9.10
9.79
10.21
10.04
9.28
8.10
6.64
4.94
2.95
0.65
-1.91
-4.62
-7.36
-10.02
-12.23
-13.93
-15.27
-16.50
-17.89
-19.61
-21.55
-23.40
-24.53
-24.24
-22.07
-17.93
-12.24
-5.82
0.28
5.12
8.03
8.78
7.57
4.89
1.46
-1.99
-4.88
-6.99
-8.35
-9.24
-9.92
-10.54
-11.21
-12.02
-13.11
-14.63
-16.68
-19.15
-21.72
-23.93
-25.37
-25.83
-25.29
-23.85
-21.62
-18.64
-14.96
-10.70
-6.10
-1.52
2.64
6.11
8.83
10.99
12.87
14.72
16.60
18.31
19.48
19.73
18.86
16.89
14.14
11.08
8.13
5.63
3.68
2.27
1.33
0.79
0.52
0.32
-0.11
-1.03
-2.54
-4.41
-6.08
-6.80
-6.00
-3.48
0.45
5.09
9.58
13.28
15.86
17.29
17.78
17.56
16.82
15.72
14.33
12.74
11.02
9.29
7.63
6.19
5.02
4.17
3.61
3.23
2.90
2.40
1.52
0.09
-2.01
-4.72
-7.81
-10.82
-13.22
-14.49
-14.29
-12.60
-9.68
-5.99
-2.07
1.66
4.91
7.57
9.62
11.05
11.88
12.11
11.83
11.14
10.18
9.07
7.94
6.85
5.89
5.08
4.40
3.72
2.87
1.67
0.03
-2.01
-4.30
-6.67
-8.98
-11.10
-12.86
-14.05
-14.35
-13.52
-11.48
-8.37
-4.54
-0.48
3.39
6.79
9.61
11.92
13.81
15.37
16.57
17.30
17.44
16.97
15.96
14.60
13.12
11.67
10.34
9.16
8.16
7.40
6.93
6.67
6.43
5.86
4.64
2.59
-0.15
-3.17
-5.84
-7.51
-7.67
-6.12
-3.02
1.11
5.54
9.54
12.58
14.55
15.69
16.51
17.53
18.97
20.65
22.01
22.39
21.35
18.89
15.55
12.20
9.72
8.67
9.14
10.72
12.70
14.22
14.43
12.66
8.70
3.04
-3.09
-8.00
-10.15
-8.83
-4.53
1.20
6.43
9.64
10.33
9.09
7.19
5.94
6.16
7.96
10.88
14.15
17.00
18.86
19.42
18.67
16.75
13.95
10.65
7.25
4.17
1.76
0.22
-0.49
-0.67
-0.80
-1.38
-2.77
-5.09
-8.17
-11.58
-14.79
-17.25
-18.60
-18.69
-17.64
-15.80
-13.58
-11.32
-9.17
-7.10
-4.89
-2.34
0.63
3.88
7.08
9.84
11.80
12.81
12.92
12.38
11.46
10.39
9.28
8.15
6.94
5.59
4.10
2.46
0.71
-1.14
-3.05
-5.01
-7.03
-9.11
-11.24
-13.33
-15.17
-16.46
-16.94
-16.44
-14.95
-12.65
-9.82
-6.74
-3.59
-0.51
2.43
5.14
7.53
9.51
11.00
12.00
12.51
12.55
12.14
11.33
10.18
8.72
7.01
5.13
3.20
1.34
-0.32
-1.75
-3.01
-4.24
-5.60
-7.16
-8.93
-10.78
-12.59
-14.16
-15.28
-15.69
-15.18
-13.69
-11.32
-8.39
-5.34
-2.53
-0.15
1.82
3.50
4.99
6.25
7.14
7.49
7.24
6.43
5.25
3.84
2.32
0.67
-1.15
-3.14
-5.27
-7.42
-9.47
-11.34
-13.02
-14.54
-15.94
-17.30
-18.69
-20.14
-21.55
-22.68
-23.23
-22.85
-21.37
-18.87
-15.63
-12.06
-8.50
-5.13
-2.00
0.91
3.53
5.68
7.19
7.99
8.18
8.00
7.73
7.52
7.36
7.11
6.62
5.82
4.81
3.75
2.81
2.05
1.44
0.83
0.08
-0.90
-2.14
-3.59
-5.15
-6.60
-7.69
-8.12
-7.61
-6.08
-3.60
-0.44
3.07
6.62
9.95
12.87
15.23
16.89
17.76
17.85
17.30
16.35
15.25
14.15
13.05
11.83
10.34
8.56
6.55
4.52
2.70
1.23
0.12
-0.74
-1.60
-2.71
-4.27
-6.34
-8.78
-11.28
-13.41
-14.67
-14.69
-13.22
-10.27
-6.05
-0.89
4.79
10.57
16.04
20.86
24.75
27.55
29.22
29.86
29.63
28.71
27.28
25.46
23.39
21.17
18.91
16.75
14.75
12.93
11.27
9.73
8.26
6.79
5.24
3.51
1.44
-1.04
-3.88
-6.80
-9.34
-10.99
-11.33
-10.28
-8.07
-5.25
-2.45
-0.21
1.22
1.89
2.04
2.02
2.07
2.28
2.61
2.91
3.04
2.90
2.43
1.55
0.24
-1.51
-3.62
-5.89
-8.02
-9.71
-10.76
-11.14
-10.99
-10.59
-10.22
-10.16
-10.63
-11.80
-13.73
-16.34
-19.33
-22.25
-24.53
-25.65
-25.36
-23.71
-21.08
-17.97
-14.90
-12.21
-9.97
-8.10
-6.45
-4.93
-3.54
-2.39
-1.57
-1.06
-0.69
-0.20
0.66
2.01
3.81
5.84
7.87
9.68
11.17
12.29
13.04
13.37
13.20
12.48
11.18
9.34
7.00
4.15
0.72
-3.36
-8.10
-13.31
-18.61
-23.43
-27.28
-29.83
-31.16
-31.61
-31.71
-31.90
-32.33
-32.83
-33.00
-32.37
-30.55
-27.37
-22.78
-16.88
-9.88
-2.15
5.76
13.16
19.37
23.95
26.80
28.22
28.76
29.01
29.34
29.80
30.13
29.83
28.41
25.49
20.94
14.92
7.88
0.48
-6.46
-12.16
-16.04
-17.84
-17.77
-16.33
-14.18
-11.93
-9.90
-8.17
-6.66
-5.30
-4.18
-3.48
-3.39
-3.94
-4.98
-6.24
-7.46
-8.52
-9.44
-10.31
-11.17
-11.96
-12.55
-12.81
-12.72
-12.33
-11.74
-11.08
-10.43
-9.89
-9.61
-9.77
-10.49
-11.68
-13.00
-13.88
-13.72
-12.15
-9.13
-5.00
-0.28
4.51
9.03
13.12
16.71
19.76
22.18
23.89
24.87
25.16
24.90
24.19
23.13
21.78
20.23
18.54
16.77
14.91
12.87
10.55
7.88
4.86
1.59
-1.75
-4.98
-7.95
-10.63
-13.15
-15.76
-18.77
-22.33
-26.21
-29.75
-31.95
-31.82
-28.74
-22.73
-14.45
-4.91
4.85
14.04
22.19
29.12
34.70
38.83
41.45
42.58
42.42
41.31
39.56
37.40
34.82
31.61
27.55
22.58
16.87
10.86
5.17
0.40
-3.01
-4.93
-5.50
-5.17
-4.50
-4.08
-4.38
-5.69
-8.00
-11.06
-14.36
-17.26
-19.01
-18.98
-16.75
-12.28
-6.00
1.28
8.53
14.79
19.40
22.10
22.98
22.28
20.31
17.27
13.37
8.89
4.20
-0.25
-4.03
-6.89
-8.78
-9.84
-10.32
-10.43
-10.33
-10.13
-9.90
-9.74
-9.73
-9.92
-10.28
-10.71
-11.11
-11.40
-11.58
-11.79
-12.27
-13.22
-14.75
-16.73
-18.79
-20.42
-21.10
-20.50
-18.55
-15.48
-11.66
-7.50
-3.34
0.60
4.18
7.35
10.05
12.22
13.79
14.69
14.90
14.47
13.54
12.35
11.11
9.90
8.69
7.29
5.55
3.39
0.92
-1.68
-4.23
-6.66
-9.03
-11.43
-13.89
-16.34
-18.63
-20.67
-22.49
-24.22
-25.96
-27.63
-28.94
-29.42
-28.68
-26.54
-23.13
-18.82
-14.04
-9.10
-4.21
0.47
4.73
8.30
10.87
12.27
12.56
12.07
11.25
10.54
10.18
10.18
10.35
10.44
10.27
9.80
9.10
8.30
7.49
6.67
5.74
4.56
3.03
1.13
-1.07
-3.44
-5.76
-7.80
-9.25
-9.80
-9.23
-7.45
-4.59
-0.94
3.08
7.13
10.93
14.32
17.17
19.39
20.89
21.60
21.57
20.92
19.84
18.52
17.10
15.62
14.06
12.40
10.62
8.79
7.00
5.38
3.99
2.78
1.61
0.22
-1.61
-4.08
-7.23
-10.87
-14.61
-17.84
-19.99
-20.61
-19.59
-17.18
-13.86
-10.13
-6.41
-2.86
0.50
3.69
6.62
9.10
10.89
11.84
12.01
11.61
10.96
10.30
9.69
9.03
8.11
6.82
5.18
3.40
1.71
0.30
-0.84
-1.93
-3.28
-5.17
-7.69
-10.79
-14.25
-17.77
-21.04
-23.77
-25.66
-26.45
-25.98
-24.24
-21.38
-17.73
-13.70
-9.63
-5.78
-2.30
0.74
3.25
5.15
6.36
6.86
6.67
5.89
4.63
3.05
1.28
-0.53
-2.28
-3.91
-5.39
-6.73
-7.95
-9.06
-10.06
-10.94
-11.73
-12.49
-13.29
-14.16
-15.13
-16.19
-17.26
-18.24
-18.94
-19.11
-18.41
-16.59
-13.57
-9.51
-4.78
0.19
5.07
9.68
13.99
17.98
21.54
24.45
26.44
27.37
27.32
26.54
25.38
24.12
22.88
21.65
20.32
18.83
17.16
15.34
13.39
11.34
9.14
6.75
4.16
1.45
-1.31
-4.03
-6.74
-9.51
-12.41
-15.38
-18.15
-20.24
-21.10
-20.35
-17.93
-14.14
-9.52
-4.62
0.16
4.68
8.96
13.01
16.74
19.90
22.22
23.50
23.76
23.18
22.06
20.67
19.11
17.41
15.54
13.50
11.38
9.31
7.41
5.65
3.89
1.89
-0.58
-3.59
-7.05
-10.75
-14.40
-17.74
-20.59
-22.78
-24.15
-24.56
-23.88
-22.08
-19.18
-15.28
-10.53
-5.12
0.71
6.60
12.15
16.97
20.74
23.31
24.67
24.99
24.43
23.27
21.73
20.04
18.34
16.73
15.23
13.83
12.48
11.15
9.76
8.16
6.17
3.66
0.66
-2.61
-5.75
-8.33
-10.08
-11.00
-11.33
-11.47
-11.75
-12.31
-12.98
-13.38
-13.11
-11.89
-9.69
-6.78
-3.52
-0.26
2.80
5.62
8.25
10.69
12.84
14.53
15.60
16.04
15.95
15.56
15.11
14.67
14.19
13.52
12.52
11.14
9.45
7.62
5.83
4.22
2.80
1.46
0.01
-1.72
-3.84
-6.33
-9.09
-12.00
-14.91
-17.72
-20.30
-22.45
-23.87
-24.24
-23.27
-20.89
-17.27
-12.86
-8.22
-3.89
-0.22
2.69
4.95
6.74
8.22
9.40
10.18
10.45
10.18
9.49
8.62
7.86
7.42
7.35
7.53
7.71
7.62
7.07
6.05
4.67
3.13
1.62
0.22
-1.08
-2.34
-3.65
-5.04
-6.57
-8.28
-10.25
-12.51
-14.97
-17.31
-19.06
-19.72
-18.92
-16.62
-13.09
-8.84
-4.42
-0.31
3.19
5.97
8.02
9.42
10.27
10.70
10.81
10.71
10.45
10.09
9.67
9.21
8.74
8.25
7.72
7.12
6.43
5.68
4.88
4.04
3.08
1.88
0.32
-1.61
-3.79
-5.97
-7.90
-9.47
-10.74
-11.93
-13.22
-14.64
-15.94
-16.70
-16.46
-14.93
-12.15
-8.46
-4.33
-0.21
3.62
7.06
10.07
12.59
14.47
15.54
15.77
15.29
14.42
13.51
12.80
12.34
11.89
11.15
9.83
7.80
5.18
2.25
-0.62
-3.13
-5.14
-6.75
-8.16
-9.59
-11.17
-12.88
-14.60
-16.23
-17.71
-19.05
-20.24
-21.18
-21.61
-21.24
-19.86
-17.43
-14.16
-10.45
-6.73
-3.34
-0.50
1.72
3.33
4.32
4.65
4.26
3.18
1.56
-0.32
-2.08
-3.41
-4.21
-4.55
-4.64
-4.71
-4.85
-5.05
-5.22
-5.31
-5.37
-5.48
-5.69
-5.99
-6.35
-6.77
-7.36
-8.28
-9.64
-11.36
-13.10
-14.38
-14.70
-13.78
-11.58
-8.31
-4.31
0.04
4.42
8.51
12.08
14.91
16.87
17.86
17.86
16.90
15.16
12.91
10.52
8.37
6.70
5.53
4.65
3.70
2.39
0.58
-1.62
-4.00
-6.34
-8.56
-10.65
-12.68
-14.67
-16.58
-18.31
-19.71
-20.58
-20.70
-19.88
-17.97
-14.95
-10.98
-6.37
-1.50
3.23
7.55
11.30
14.46
17.02
19.00
20.36
21.06
21.07
20.40
19.19
17.65
16.01
14.45
13.01
11.63
10.18
8.53
6.68
4.72
2.78
0.92
-0.93
-2.94
-5.33
-8.20
-11.47
-14.83
-17.80
-19.89
-20.68
-20.00
-17.96
-14.89
-11.21
-7.33
-3.49
0.22
3.82
7.36
10.82
14.05
16.87
19.16
20.86
22.04
22.77
23.10
23.05
22.56
21.60
20.18
18.39
16.33
14.11
11.76
9.23
6.45
3.35
-0.03
-3.57
-7.08
-10.35
-13.15
-15.30
-16.60
-16.88
-15.98
-13.88
-10.64
-6.42
-1.47
4.01
9.80
15.66
21.27
26.20
30.02
32.42
33.32
32.85
31.35
29.15
26.52
23.56
20.23
16.41
11.94
6.73
0.83
-5.49
-11.74
-17.29
-21.61
-24.46
-26.00
-26.82
-27.70
-29.39
-32.34
-36.50
-41.39
-46.16
-49.91
-51.87
-51.62
-49.15
-44.84
-39.27
-33.08
-26.78
-20.77
-15.30
-10.55
-6.65
-3.65
-1.46
0.15
1.47
2.78
4.27
5.89
7.49
8.82
9.65
9.91
9.63
8.95
8.03
6.98
5.82
4.53
3.07
1.44
-0.33
-2.22
-4.20
-6.32
-8.58
-10.89
-12.98
-14.43
-14.77
-13.67
-11.11
-7.35
-2.85
1.86
6.39
10.54
14.22
17.39
19.95
21.79
22.80
22.97
22.39
21.25
19.81
18.28
16.86
15.66
14.74
14.06
13.58
13.16
12.64
11.85
10.58
8.67
6.05
2.75
-1.07
-5.14
-9.14
-12.76
-15.68
-17.61
-18.25
-17.43
-15.07
-11.34
-6.63
-1.47
3.62
8.22
12.10
15.17
17.46
18.99
19.79
19.93
19.59
19.02
18.53
18.41
18.81
19.71
20.91
22.11
22.98
23.26
22.81
21.63
19.80
17.46
14.73
11.65
8.22
4.38
0.12
-4.54
-9.47
-14.45
-19.18
-23.29
-26.34
-27.95
-27.87
-26.04
-22.66
-18.15
-13.02
-7.72
-2.59
2.17
6.49
10.30
13.56
16.18
18.05
19.09
19.29
18.69
17.45
15.77
13.87
11.93
10.07
8.31
6.65
5.02
3.39
1.72
-0.02
-1.82
-3.66
-5.48
-7.24
-8.93
-10.57
-12.25
-14.06
-16.09
-18.36
-20.76
-23.05
-24.86
-25.75
-25.35
-23.45
-20.15
-15.82
-11.00
-6.25
-1.96
1.70
4.80
7.45
9.74
11.60
12.86
13.40
13.24
12.54
11.58
10.58
9.61
8.61
7.46
6.12
4.67
3.33
2.27
1.54
0.99
0.35
-0.68
-2.29
-4.45
-6.99
-9.68
-12.35
-14.94
-17.54
-20.27
-23.21
-26.33
-29.49
-32.41
-34.74
-36.07
-36.03
-34.35
-31.00
-26.22
-20.49
-14.39
-8.45
-3.00
1.85
6.08
9.68
12.60
14.73
16.03
16.57
16.53
16.15
15.65
15.16
14.70
14.22
13.64
12.90
12.05
11.16
10.35
9.65
9.02
8.35
7.47
6.32
4.90
3.31
1.63
-0.14
-2.10
-4.42
-7.21
-10.41
-13.70
-16.59
-18.49
-18.91
-17.61
-14.67
-10.46
-5.55
-0.53
4.12
8.05
11.14
13.38
14.86
15.72
16.04
15.94
15.46
14.73
13.85
12.99
12.25
11.68
11.20
10.66
9.89
8.79
7.36
5.67
3.83
1.96
0.16
-1.49
-2.96
-4.31
-5.70
-7.31
-9.33
-11.79
-14.50
-17.00
-18.74
-19.21
-18.11
-15.48
-11.64
-7.08
-2.26
2.51
7.05
11.22
14.86
17.73
19.59
20.35
20.11
19.18
17.97
16.80
15.84
15.13
14.60
14.16
13.73
13.16
12.28
10.93
9.03
6.65
3.97
1.22
-1.48
-4.13
-6.84
-9.72
-12.77
-15.85
-18.67
-20.94
-22.36
-22.75
-22.02
-20.20
-17.45
-14.01
-10.19
-6.28
-2.57
0.75
3.51
5.60
6.91
7.40
7.12
6.23
5.01
3.75
2.68
1.88
1.30
0.80
0.26
-0.37
-1.04
-1.64
-2.10
-2.37
-2.54
-2.73
-3.09
-3.75
-4.78
-6.23
-8.06
-10.19
-12.40
-14.40
-15.86
-16.46
-16.00
-14.43
-11.90
-8.70
-5.17
-1.62
1.68
4.52
6.79
8.39
9.29
9.53
9.22
8.59
7.90
7.34
7.02
6.92
6.91
6.85
6.65
6.30
5.87
5.41
4.97
4.57
4.13
3.59
2.85
1.83
0.51
-1.11
-3.01
-5.18
-7.59
-10.07
-12.28
-13.73
-13.90
-12.47
-9.44
-5.20
-0.31
4.64
9.28
13.41
16.96
19.85
21.94
23.09
23.27
22.64
21.50
20.18
18.87
17.62
16.30
14.77
12.95
10.89
8.74
6.60
4.58
2.63
0.72
-1.16
-3.01
-4.81
-6.62
-8.55
-10.78
-13.43
-16.54
-19.97
-23.42
-26.50
-28.74
-29.78
-29.37
-27.53
-24.48
-20.61
-16.35
-12.06
-7.99
-4.20
-0.75
2.35
4.98
7.01
8.31
8.85
8.70
8.08
7.21
6.25
5.24
4.11
2.79
1.22
-0.54
-2.34
-4.05
-5.54
-6.78
-7.83
-8.79
-9.78
-10.89
-12.20
-13.74
-15.51
-17.45
-19.43
-21.20
-22.41
-22.69
-21.72
-19.36
-15.73
-11.16
-6.14
-1.18
3.32
7.08
9.96
11.92
12.98
13.22
12.79
11.87
10.68
9.42
8.24
7.25
6.49
5.92
5.48
5.05
4.56
3.94
3.15
2.17
1.02
-0.29
-1.68
-3.12
-4.61
-6.18
-7.85
-9.52
-10.97
-11.82
-11.68
-10.31
-7.71
-4.14
0.03
4.45
8.88
13.17
17.14
20.54
23.04
24.37
24.40
23.30
21.46
19.32
17.28
15.47
13.84
12.18
10.26
7.95
5.31
2.49
-0.29
-2.91
-5.34
-7.64
-9.95
-12.37
-14.93
-17.57
-20.14
-22.40
-24.03
-24.64
-23.83
-21.37
-17.23
-11.71
-5.41
0.88
6.42
10.67
13.50
15.21
16.38
17.65
19.51
22.05
24.98
27.72
29.60
30.07
28.88
26.16
22.36
18.19
14.52
12.15
11.62
12.94
15.47
18.04
19.30
18.22
14.51
8.78
2.35
-3.23
-6.67
-7.38
-5.55
-1.93
2.48
6.75
10.17
12.36
13.19
12.76
11.35
9.31
7.01
4.74
2.66
0.79
-0.91
-2.54
-4.10
-5.63
-7.11
-8.56
-10.06
-11.67
-13.45
-15.45
-17.69
-20.16
-22.82
-25.54
-28.16
-30.49
-32.40
-33.89
-35.07
-36.12
-37.12
-38.02
-38.56
-38.39
-37.15
-34.65
-30.89
-26.08
-20.63
-14.97
-9.51
-4.58
-0.36
3.10
5.84
7.97
9.65
11.01
12.21
13.31
14.33
15.21
15.86
16.20
16.21
15.88
15.24
14.31
13.09
11.66
10.09
8.52
7.04
5.65
4.26
2.72
0.83
-1.52
-4.32
-7.39
-10.35
-12.65
-13.70
-13.07
-10.64
-6.68
-1.80
3.31
8.04
12.13
15.52
18.32
20.56
22.16
22.99
22.96
22.19
20.92
19.50
18.17
17.04
16.04
15.03
13.85
12.40
10.68
8.71
6.63
4.55
2.59
0.85
-0.69
-2.10
-3.50
-4.99
-6.66
-8.55
-10.70
-13.14
-15.80
-18.47
-20.69
-21.87
-21.45
-19.20
-15.30
-10.39
-5.32
-0.80
2.78
5.45
7.48
9.12
10.46
11.37
11.67
11.26
10.24
8.83
7.30
5.85
4.53
3.30
2.12
0.97
-0.14
-1.19
-2.16
-3.07
-3.98
-4.94
-6.05
-7.37
-8.93
-10.75
-12.74
-14.84
-16.95
-19.01
-20.90
-22.42
-23.28
-23.12
-21.65
-18.80
-14.77
-10.03
-5.15
-0.65
3.12
5.98
7.92
9.00
9.31
8.96
8.09
6.88
5.54
4.33
3.45
3.00
2.98
3.20
3.42
3.40
3.00
2.21
1.16
-0.01
-1.21
-2.41
-3.59
-4.80
-6.02
-7.26
-8.53
-9.81
-10.97
-11.75
-11.78
-10.68
-8.24
-4.53
0.12
5.23
10.31
15.01
19.11
22.51
25.12
26.85
27.62
27.43
26.42
24.83
23.00
21.23
19.72
18.49
17.45
16.42
15.25
13.82
12.14
10.26
8.21
5.97
3.46
0.54
-2.85
-6.66
-10.70
-14.64
-18.07
-20.61
-21.93
-21.88
-20.47
-17.90
-14.46
-10.50
-6.38
-2.38
1.30
4.55
7.27
9.41
10.87
11.62
11.62
10.96
9.83
8.45
7.08
5.86
4.81
3.83
2.74
1.38
-0.25
-2.05
-3.88
-5.58
-7.15
-8.69
-10.43
-12.55
-15.12
-18.01
-20.89
-23.25
-24.55
-24.36
-22.46
-18.98
-14.36
-9.19
-4.08
0.48
4.27
7.22
9.40
10.87
11.72
11.95
11.63
10.88
9.86
8.80
7.87
7.12
6.46
5.72
4.68
3.24
1.43
-0.60
-2.64
-4.51
-6.19
-7.75
-9.42
-11.40
-13.84
-16.72
-19.84
-22.88
-25.41
-27.04
-27.48
-26.59
-24.38
-21.02
-16.80
-12.09
-7.28
-2.72
1.32
4.68
7.28
9.11
10.19
10.58
10.49
10.15
9.84
9.76
9.95
10.27
10.45
10.25
9.51
8.35
6.96
5.61
4.44
3.43
2.41
1.18
-0.43
-2.47
-4.93
-7.74
-10.74
-13.74
-16.44
-18.47
-19.45
-19.11
-17.37
-14.41
-10.57
-6.30
-2.02
1.92
5.29
7.95
9.80
10.82
11.08
10.67
9.76
8.55
7.28
6.11
5.19
4.55
4.12
3.77
3.37
2.83
2.16
1.46
0.84
0.34
-0.11
-0.70
-1.67
-3.19
-5.28
-7.78
-10.34
-12.48
-13.75
-13.78
-12.40
-9.66
-5.80
-1.17
3.82
8.84
13.60
17.90
21.54
24.37
26.20
26.93
26.59
25.43
23.86
22.38
21.37
20.92
20.78
20.48
19.56
17.81
15.34
12.56
9.91
7.69
5.97
4.59
3.35
2.03
0.54
-1.15
-2.93
-4.61
-5.87
-6.25
-5.34
-2.92
0.91
5.67
10.72
15.38
19.23
22.06
23.87
24.70
24.58
23.54
21.62
18.96
15.77
12.26
8.57
4.79
0.95
-2.90
-6.71
-10.44
-14.07
-17.63
-21.16
-24.67
-28.08
-31.29
-34.18
-36.70
-38.88
-40.82
-42.63
-44.36
-45.94
-47.08
-47.38
-46.34
-43.56
-38.89
-32.54
-25.00
-16.88
-8.79
-1.14
5.88
12.22
17.89
22.83
26.94
30.10
32.23
33.37
33.66
33.33
32.66
31.89
31.20
30.63
30.11
29.49
28.58
27.26
25.51
23.39
21.03
18.53
15.96
13.28
10.35
6.99
3.06
-1.53
-6.70
-12.26
-17.88
-23.17
-27.68
-31.02
-32.91
-33.32
-32.44
-30.71
-28.62
-26.62
-24.92
-23.50
-22.19
-20.80
-19.22
-17.43
-15.53
-13.55
-11.51
-9.35
-6.99
-4.33
-1.30
2.03
5.55
9.08
12.41
15.40
18.00
20.22
22.10
23.65
24.84
25.59
25.87
25.67
24.98
23.78
22.01
19.70
17.06
14.51
12.65
12.06
13.05
15.48
18.79
22.17
24.82
26.20
26.16
24.85
22.53
19.43
15.69
11.34
6.48
1.28
-4.00
-9.07
-13.68
-17.76
-21.30
-24.35
-26.89
-28.81
-29.99
-30.32
-29.84
-28.68
-27.14
-25.54
-24.15
-23.17
-22.68
-22.59
-22.78
-23.05
-23.16
-22.81
-21.64
-19.31
-15.55
-10.30
-3.76
3.65
11.35
18.76
25.42
31.07
35.60
38.99
41.23
42.33
42.27
41.12
39.08
36.40
33.36
30.19
27.00
23.82
20.59
17.27
13.85
10.31
6.70
3.01
-0.75
-4.57
-8.47
-12.43
-16.44
-20.53
-24.75
-29.09
-33.46
-37.54
-40.86
-42.80
-42.86
-40.78
-36.71
-31.15
-24.80
-18.34
-12.30
-6.94
-2.34
1.51
4.65
7.12
8.93
10.10
10.65
10.63
10.14
9.34
8.40
7.47
6.61
5.82
4.99
4.04
2.97
1.85
0.79
-0.08
-0.76
-1.33
-1.95
-2.83
-4.13
-5.96
-8.33
-11.13
-14.10
-16.84
-18.82
-19.53
-18.63
-16.05
-12.03
-7.05
-1.67
3.57
8.25
12.12
15.07
17.08
18.21
18.51
18.04
16.89
15.18
13.15
11.17
9.65
8.86
8.77
9.02
9.05
8.30
6.49
3.68
0.20
-3.55
-7.33
-11.05
-14.77
-18.59
-22.53
-26.51
-30.34
-33.77
-36.49
-38.10
-38.13
-36.22
-32.20
-26.29
-19.12
-11.54
-4.45
1.48
5.96
9.02
10.92
11.96
12.38
12.32
11.92
11.33
10.74
10.30
10.09
10.05
10.08
10.10
10.04
9.93
9.78
9.63
9.44
9.14
8.56
7.51
5.78
3.20
-0.24
-4.35
-8.66
-12.55
-15.36
-16.59
-15.96
-13.55
-9.73
-5.07
-0.19
4.39
8.36
11.59
14.07
15.83
16.86
17.12
16.67
15.68
14.44
13.25
12.35
11.80
11.49
11.21
10.78
10.09
9.16
8.05
6.83
5.56
4.20
2.68
0.86
-1.36
-4.03
-7.06
-10.28
-13.40
-16.08
-17.91
-18.55
-17.72
-15.33
-11.56
-6.83
-1.69
3.32
7.78
11.47
14.24
16.01
16.70
16.30
14.93
12.86
10.45
8.03
5.82
3.84
2.05
0.35
-1.34
-3.04
-4.76
-6.56
-8.45
-10.47
-12.57
-14.70
-16.80
-18.89
-21.06
-23.44
-26.12
-29.03
-31.87
-34.14
-35.21
-34.60
-32.13
-28.04
-22.88
-17.33
-11.93
-6.96
-2.48
1.53
5.06
7.96
10.02
11.08
11.20
10.61
9.72
8.87
8.26
7.84
7.46
6.89
6.07
5.07
4.14
3.51
3.31
3.45
3.69
3.66
3.06
1.74
-0.28
-2.75
-5.31
-7.54
-8.99
-9.28
-8.16
-5.57
-1.66
3.19
8.42
13.45
17.79
21.13
23.36
24.49
24.63
23.91
22.48
20.59
18.55
16.66
15.14
14.00
13.06
12.09
10.93
9.57
8.12
6.74
5.52
4.46
3.43
2.25
0.73
-1.27
-3.82
-6.78
-9.82
-12.43
-14.00
-14.06
-12.40
-9.17
-4.84
0.02
4.87
9.33
13.18
16.27
18.47
19.67
19.84
19.07
17.60
15.78
13.91
12.19
10.66
9.24
7.81
6.28
4.64
2.91
1.13
-0.75
-2.80
-5.14
-7.85
-10.96
-14.41
-18.04
-21.60
-24.68
-26.84
-27.61
-26.68
-23.98
-19.77
-14.51
-8.80
-3.19
1.86
6.06
9.30
11.56
12.92
13.46
13.27
12.46
11.14
9.49
7.70
6.00
4.54
3.36
2.37
1.38
0.18
-1.32
-3.05
-4.87
-6.63
-8.28
-9.91
-11.73
-13.95
-16.67
-19.76
-22.80
-25.25
-26.50
-26.19
-24.21
-20.84
-16.52
-11.77
-7.01
-2.49
1.60
5.13
7.91
9.79
10.69
10.70
10.06
9.09
8.11
7.28
6.67
6.21
5.81
5.40
4.97
4.58
4.23
3.95
3.62
3.12
2.25
0.88
-1.09
-3.62
-6.57
-9.70
-12.62
-14.80
-15.69
-14.89
-12.28
-8.16
-3.13
2.09
6.91
11.07
14.50
17.26
19.36
20.66
21.05
20.53
19.30
17.69
16.05
14.59
13.40
12.43
11.60
10.86
10.15
9.41
8.56
7.54
6.35
5.09
3.88
2.83
1.92
0.96
-0.29
-2.03
-4.25
-6.72
-8.94
-10.40
-10.65
-9.53
-7.17
-3.93
-0.28
3.32
6.52
9.09
10.92
12.02
12.43
12.26
11.62
10.62
9.38
8.03
6.72
5.62
4.83
4.33
4.00
3.62
3.02
2.18
1.18
0.21
-0.61
-1.29
-2.00
-2.98
-4.44
-6.46
-9.01
-11.96
-15.08
-18.02
-20.35
-21.55
-21.19
-19.11
-15.48
-10.81
-5.77
-0.93
3.36
7.01
10.03
12.46
14.26
15.33
15.58
15.00
13.70
11.87
9.78
7.70
5.86
4.42
3.39
2.64
1.95
1.11
0.01
-1.28
-2.60
-3.81
-4.94
-6.18
-7.80
-10.05
-13.04
-16.71
-20.88
-25.32
-29.74
-33.75
-36.82
-38.31
-37.72
-34.89
-30.13
-24.21
-18.03
-12.30
-7.33
-3.08
0.68
4.10
7.12
9.57
11.30
12.38
13.07
13.71
14.46
15.12
15.14
13.78
10.47
5.08
-1.84
-9.15
-15.43
-19.49
-20.80
-19.55
-16.62
-13.10
-9.91
-7.59
-6.20
-5.55
-5.33
-5.23
-4.96
-4.16
-2.43
0.61
5.21
11.35
18.71
26.74
34.78
42.23
48.55
53.39
56.48
57.63
56.71
53.66
48.56
41.71
33.63
24.99
16.54
8.92
2.56
-2.32
-5.76
-7.89
-8.98
-9.39
-9.55
-9.89
-10.79
-12.39
-14.54
-16.85
-18.79
-19.95
-20.07
-19.18
-17.45
-15.11
-12.35
-9.36
-6.29
-3.32
-0.62
1.67
3.55
5.12
6.47
7.69
8.74
9.44
9.64
9.23
8.23
6.80
5.15
3.46
1.91
0.67
-0.17
-0.53
-0.52
-0.41
-0.65
-1.65
-3.70
-6.83
-10.87
-15.51
-20.45
-25.36
-29.85
-33.44
-35.55
-35.62
-33.37
-28.85
-22.50
-15.02
-7.19
0.33
7.00
12.50
16.65
19.41
20.85
21.13
20.50
19.26
17.71
16.09
14.58
13.25
12.05
10.83
9.38
7.48
5.03
2.11
-1.03
-4.08
-6.82
-9.24
-11.55
-14.06
-17.02
-20.50
-24.31
-28.06
-31.24
-33.38
-34.11
-33.25
-30.83
-27.06
-22.33
-17.05
-11.62
-6.35
-1.46
2.83
6.31
8.71
9.84
9.60
8.16
5.92
3.40
1.11
-0.64
-1.73
-2.29
-2.52
-2.62
-2.69
-2.71
-2.67
-2.57
-2.50
-2.61
-3.03
-3.90
-5.27
-7.14
-9.46
-12.06
-14.67
-16.87
-18.21
-18.24
-16.74
-13.71
-9.40
-4.23
1.32
6.79
11.74
15.81
18.69
20.28
20.63
20.04
18.90
17.61
16.46
15.54
14.77
14.01
13.09
11.90
10.37
8.46
6.23
3.74
1.12
-1.54
-4.21
-6.95
-9.85
-12.96
-16.18
-19.22
-21.60
-22.79
-22.38
-20.21
-16.41
-11.37
-5.57
0.52
6.49
12.02
16.77
20.44
22.79
23.73
23.33
21.86
19.65
17.04
14.31
11.69
9.34
7.38
5.82
4.65
3.77
3.11
2.62
2.30
2.07
1.76
1.13
-0.08
-2.03
-4.68
-7.77
-10.87
-13.47
-15.12
-15.44
-14.26
-11.62
-7.73
-2.95
2.33
7.70
12.83
17.46
21.36
24.32
26.15
26.71
26.03
24.35
22.01
19.42
16.89
14.52
12.30
10.12
7.96
5.88
4.01
2.41
1.01
-0.39
-2.07
-4.29
-7.26
-11.13
-15.97
-21.65
-27.72
-33.43
-37.75
-39.75
-38.87
-35.18
-29.30
-22.21
-14.84
-7.87
-1.59
3.92
8.67
12.59
15.56
17.47
18.35
18.45
18.16
17.89
17.87
18.05
18.19
17.93
17.06
15.63
13.98
12.58
11.79
11.69
12.01
12.28
11.93
10.57
8.02
4.32
-0.30
-5.51
-10.85
-15.75
-19.53
-21.56
-21.41
-19.03
-14.82
-9.48
-3.92
1.06
4.89
7.27
8.20
7.87
6.58
4.68
2.52
0.37
-1.57
-3.20
-4.51
-5.55
-6.40
-7.12
-7.80
-8.47
-9.13
-9.72
-10.17
-10.43
-10.57
-10.72
-11.09
-11.83
-13.04
-14.71
-16.70
-18.81
-20.76
-22.13
-22.51
-21.48
-18.82
-14.60
-9.18
-3.15
2.90
8.53
13.54
17.86
21.44
24.12
25.63
25.66
24.07
20.99
16.85
12.31
8.11
4.85
2.97
2.60
3.63
5.73
8.38
10.92
12.67
13.03
11.66
8.57
4.09
-1.22
-6.74
-11.99
-16.68
-20.64
-23.71
-25.64
-26.08
-24.72
-21.46
-16.52
-10.46
-3.93
2.44
8.26
13.34
17.64
21.07
23.47
24.65
24.48
23.05
20.71
17.97
15.32
13.07
11.28
9.75
8.16
6.24
3.88
1.20
-1.55
-4.08
-6.28
-8.22
-10.18
-12.46
-15.29
-18.69
-22.48
-26.31
-29.74
-32.25
-33.39
-32.75
-30.17
-25.74
-19.88
-13.16
-6.19
0.58
6.90
12.60
17.59
21.69
24.76
26.71
27.65
27.84
27.59
27.17
26.65
25.96
24.96
23.52
21.64
19.45
17.08
14.67
12.21
9.62
6.77
3.55
-0.04
-3.89
-7.91
-12.03
-16.28
-20.64
-24.98
-28.93
-31.91
-33.38
-32.95
-30.64
-26.78
-21.96
-16.73
-11.51
-6.53
-1.93
2.12
5.38
7.61
8.72
8.83
8.31
7.64
7.29
7.52
8.33
9.51
10.72
11.66
12.13
12.13
11.74
11.10
10.34
9.49
8.51
7.31
5.76
3.75
1.22
-1.76
-5.01
-8.21
-10.92
-12.65
-12.97
-11.63
-8.65
-4.35
0.76
6.07
11.07
15.37
18.81
21.29
22.78
23.25
22.71
21.28
19.18
16.73
14.24
11.91
9.78
7.78
5.77
3.64
1.39
-0.97
-3.37
-5.75
-8.07
-10.29
-12.35
-14.25
-16.02
-17.71
-19.46
-21.35
-23.44
-25.63
-27.68
-29.22
-29.76
-28.85
-26.21
-21.83
-15.98
-9.22
-2.19
4.46
10.23
14.83
18.15
20.26
21.32
21.56
21.21
20.44
19.35
17.99
16.41
14.69
12.96
11.34
9.93
8.77
7.83
7.06
6.36
5.63
4.68
3.38
1.62
-0.58
-3.10
-5.78
-8.50
-11.24
-14.03
-16.84
-19.44
-21.37
-22.06
-20.99
-17.95
-13.13
-7.07
-0.54
5.73
11.22
15.67
19.02
21.26
22.41
22.46
21.44
19.53
17.04
14.38
11.91
9.82
8.08
6.47
4.77
2.82
0.66
-1.53
-3.54
-5.20
-6.53
-7.67
-8.82
-10.15
-11.77
-13.71
-16.01
-18.67
-21.62
-24.57
-27.03
-28.35
-27.94
-25.57
-21.40
-15.95
-9.91
-3.89
1.61
6.29
9.93
12.36
13.51
13.42
12.32
10.56
8.52
6.53
4.84
3.58
2.79
2.40
2.24
2.07
1.67
0.93
-0.11
-1.30
-2.45
-3.43
-4.27
-5.10
-6.18
-7.75
-9.98
-12.92
-16.39
-20.03
-23.28
-25.53
-26.27
-25.21
-22.37
-18.00
-12.57
-6.58
-0.53
5.10
9.84
13.30
15.23
15.56
14.50
12.49
10.11
7.89
6.22
5.22
4.83
4.79
4.87
4.86
4.66
4.25
3.66
2.94
2.12
1.21
0.22
-0.88
-2.15
-3.68
-5.48
-7.48
-9.42
-10.86
-11.29
-10.34
-7.84
-4.01
0.71
5.75
10.59
14.83
18.19
20.47
21.54
21.37
20.09
18.00
15.54
13.12
11.00
9.21
7.64
6.08
4.43
2.69
0.99
-0.55
-1.88
-3.00
-4.05
-5.18
-6.59
-8.45
-10.83
-13.68
-16.78
-19.74
-22.12
-23.53
-23.72
-22.66
-20.54
-17.70
-14.57
-11.43
-8.41
-5.37
-2.04
1.80
6.11
10.44
13.97
15.85
15.55
13.10
9.17
4.80
0.97
-1.69
-3.14
-3.76
-4.17
-4.83
-5.96
-7.36
-8.66
-9.48
-9.62
-9.23
-8.74
-8.76
-9.85
-12.29
-15.95
-20.23
-24.23
-26.98
-27.69
-25.99
-21.95
-15.99
-8.72
-0.73
7.45
15.42
22.72
28.86
33.34
35.75
35.98
34.32
31.41
28.03
24.83
22.17
20.02
18.18
16.41
14.61
12.85
11.21
9.64
7.95
5.87
3.22
0.01
-3.56
-7.25
-10.87
-14.36
-17.67
-20.65
-22.93
-23.99
-23.35
-20.78
-16.43
-10.83
-4.68
1.33
6.74
11.31
15.01
17.86
19.88
21.05
21.35
20.86
19.77
18.34
16.80
15.32
13.86
12.31
10.49
8.36
5.97
3.50
1.14
-1.06
-3.17
-5.42
-8.09
-11.36
-15.28
-19.70
-24.37
-28.97
-33.18
-36.59
-38.79
-39.34
-37.92
-34.43
-29.09
-22.48
-15.36
-8.53
-2.60
2.12
5.57
7.90
9.25
9.79
9.62
8.86
7.73
6.55
5.67
5.39
5.79
6.71
7.78
8.54
8.67
8.05
6.82
5.26
3.60
2.00
0.41
-1.33
-3.40
-5.92
-8.90
-12.22
-15.58
-18.52
-20.46
-20.82
-19.24
-15.69
-10.54
-4.42
1.93
7.96
13.36
18.06
22.07
25.28
27.50
28.54
28.34
27.13
25.31
23.29
21.36
19.52
17.62
15.46
13.00
10.37
7.82
5.60
3.86
2.59
1.63
0.69
-0.61
-2.65
-5.71
-9.79
-14.53
-19.23
-22.98
-25.00
-24.80
-22.38
-18.14
-12.74
-6.82
-0.90
4.70
9.82
14.37
18.22
21.19
23.08
23.77
23.30
21.91
20.00
17.95
16.00
14.16
12.24
10.09
7.70
5.29
3.26
1.91
1.31
1.18
1.03
0.38
-1.09
-3.45
-6.56
-10.16
-13.90
-17.36
-20.00
-21.25
-20.62
-17.95
-13.40
-7.48
-0.86
5.86
12.24
18.08
23.26
27.64
31.10
33.44
34.54
34.44
33.32
31.47
29.25
27.00
24.93
23.12
21.52
19.96
18.24
16.21
13.79
11.02
7.99
4.84
1.73
-1.29
-4.23
-7.22
-10.38
-13.88
-17.77
-21.96
-26.20
-30.05
-32.90
-34.13
-33.23
-30.01
-24.72
-17.96
-10.57
-3.36
3.09
8.48
12.76
16.01
18.31
19.72
20.28
20.09
19.32
18.20
16.98
15.84
14.84
13.95
13.06
12.08
10.99
9.87
8.82
7.88
6.99
5.95
4.49
2.46
-0.12
-3.07
-6.04
-8.76
-11.07
-13.00
-14.79
-16.72
-19.12
-22.19
-25.92
-29.99
-33.78
-36.52
-37.43
-36.05
-32.33
-26.68
-19.78
-12.46
-5.39
0.91
6.17
10.31
13.35
15.42
16.63
17.17
17.18
16.79
16.12
15.25
14.22
13.05
11.72
10.25
8.72
7.23
5.87
4.73
3.81
3.04
2.29
1.43
0.34
-1.04
-2.74
-4.70
-6.86
-9.14
-11.49
-13.89
-16.37
-19.02
-21.95
-25.23
-28.84
-32.57
-35.93
-38.27
-38.90
-37.30
-33.41
-27.58
-20.51
-13.03
-5.88
0.45
5.69
9.76
12.65
14.43
15.28
15.45
15.25
14.92
14.58
14.17
13.58
12.70
11.57
10.37
9.32
8.57
8.11
7.75
7.24
6.30
4.83
2.87
0.61
-1.67
-3.73
-5.45
-6.88
-8.22
-9.76
-11.75
-14.33
-17.44
-20.75
-23.71
-25.66
-25.91
-24.02
-19.94
-14.02
-7.00
0.30
7.10
12.89
17.41
20.63
22.60
23.45
23.35
22.54
21.33
19.99
18.71
17.57
16.53
15.51
14.46
13.33
12.10
10.73
9.17
7.44
5.57
3.64
1.69
-0.29
-2.37
-4.63
-7.08
-9.74
-12.59
-15.64
-18.86
-22.13
-25.15
-27.40
-28.28
-27.30
-24.28
-19.39
-13.17
-6.31
0.48
6.65
11.85
15.90
18.78
20.57
21.44
21.57
21.13
20.23
18.95
17.38
15.61
13.83
12.18
10.72
9.40
8.04
6.41
4.39
1.99
-0.61
-3.20
-5.61
-7.81
-9.90
-12.04
-14.38
-17.01
-19.93
-23.11
-26.38
-29.40
-31.66
-32.55
-31.56
-28.46
-23.43
-17.02
-9.98
-3.06
3.18
8.43
12.60
15.70
17.81
18.98
19.34
19.04
18.29
17.29
16.20
15.12
14.02
12.86
11.59
10.23
8.83
7.41
5.91
4.21
2.19
-0.16
-2.77
-5.47
-8.07
-10.46
-12.66
-14.77
-17.00
-19.57
-22.59
-26.00
-29.47
-32.43
-34.18
-34.11
-31.93
-27.78
-22.16
-15.81
-9.40
-3.42
1.85
6.33
10.01
12.88
14.88
15.98
16.17
15.61
14.54
13.24
11.96
10.83
9.84
8.89
7.88
6.73
5.44
4.01
2.46
0.83
-0.84
-2.47
-3.98
-5.33
-6.57
-7.81
-9.24
-11.04
-13.33
-16.14
-19.31
-22.45
-24.95
-26.14
-25.44
-22.68
-18.07
-12.19
-5.77
0.53
6.31
11.40
15.78
19.48
22.51
24.87
26.57
27.64
28.13
28.10
27.57
26.60
25.25
23.62
21.76
19.69
17.39
14.82
11.99
8.93
5.72
2.39
-1.04
-4.64
-8.48
-12.58
-16.90
-21.27
-25.46
-29.18
-32.06
-33.73
-33.82
-32.04
-28.26
-22.66
-15.71
-8.15
-0.79
5.70
10.95
14.92
17.78
19.77
21.03
21.55
21.33
20.44
19.16
17.84
16.84
16.32
16.18
16.13
15.83
15.05
13.72
11.95
9.88
7.65
5.30
2.82
0.15
-2.80
-6.17
-10.03
-14.40
-19.07
-23.60
-27.32
-29.50
-29.55
-27.29
-23.02
-17.39
-11.23
-5.22
0.19
4.85
8.74
11.87
14.20
15.65
16.19
15.93
15.14
14.11
13.09
12.17
11.29
10.30
9.10
7.64
5.98
4.25
2.54
0.88
-0.77
-2.52
-4.44
-6.58
-8.90
-11.36
-13.88
-16.39
-18.78
-20.87
-22.34
-22.78
-21.72
-18.85
-14.13
-7.94
-0.94
6.04
12.25
17.23
20.89
23.38
24.93
25.73
25.84
25.23
23.89
21.89
19.45
16.84
14.32
12.08
10.18
8.53
6.94
5.23
3.27
1.07
-1.23
-3.43
-5.37
-6.98
-8.35
-9.69
-11.23
-13.21
-15.76
-18.89
-22.48
-26.13
-29.29
-31.26
-31.43
-29.47
-25.51
-20.08
-13.93
-7.83
-2.35
2.21
5.81
8.50
10.39
11.58
12.21
12.47
12.56
12.69
12.93
13.31
13.74
14.17
14.56
14.84
14.94
14.73
14.10
13.00
11.49
9.68
7.66
5.49
3.15
0.59
-2.18
-5.15
-8.26
-11.56
-15.09
-18.85
-22.63
-25.92
-27.99
-28.13
-25.94
-21.46
-15.24
-8.11
-0.91
5.67
11.27
15.74
19.12
21.51
22.99
23.63
23.55
22.89
21.80
20.47
19.06
17.67
16.36
15.16
14.09
13.15
12.31
11.48
10.57
9.44
8.01
6.29
4.35
2.30
0.21
-1.90
-4.08
-6.43
-9.06
-12.10
-15.53
-19.15
-22.54
-25.09
-26.14
-25.19
-22.14
-17.26
-11.17
-4.60
1.76
7.46
12.24
16.04
18.84
20.65
21.51
21.50
20.76
19.50
18.01
16.54
15.25
14.22
13.37
12.54
11.55
10.30
8.75
6.95
4.99
2.91
0.74
-1.52
-3.87
-6.27
-8.64
-10.93
-13.20
-15.56
-18.18
-21.13
-24.22
-26.98
-28.74
-28.82
-26.80
-22.67
-16.88
-10.15
-3.32
2.90
8.06
11.92
14.48
15.79
16.01
15.34
14.04
12.38
10.65
9.11
7.89
7.02
6.39
5.77
4.95
3.77
2.23
0.42
-1.45
-3.21
-4.82
-6.36
-7.98
-9.86
-12.03
-14.42
-16.94
-19.50
-22.12
-24.76
-27.28
-29.27
-30.13
-29.30
-26.44
-21.71
-15.72
-9.30
-3.24
1.94
6.09
9.27
11.60
13.11
13.76
13.51
12.46
10.89
9.19
7.68
6.52
5.63
4.84
3.96
2.93
1.79
0.64
-0.47
-1.57
-2.73
-4.01
-5.42
-6.95
-8.62
-10.52
-12.80
-15.57
-18.77
-22.05
-24.78
-26.24
-25.86
-23.40
-19.08
-13.47
-7.29
-1.15
4.54
9.55
13.78
17.09
19.34
20.44
20.48
19.75
18.67
17.66
16.94
16.55
16.31
16.01
15.48
14.66
13.56
12.22
10.62
8.74
6.52
3.95
1.05
-2.20
-5.84
-9.86
-14.17
-18.46
-22.19
-24.70
-25.38
-23.94
-20.49
-15.50
-9.71
-3.76
1.84
6.87
11.21
14.80
17.48
19.10
19.59
19.07
17.88
16.41
15.05
13.92
12.96
11.98
10.74
9.20
7.43
5.62
3.93
2.38
0.83
-0.99
-3.35
-6.41
-10.20
-14.56
-19.22
-23.78
-27.73
-30.51
-31.63
-30.77
-27.89
-23.29
-17.51
-11.20
-4.95
0.82
5.90
10.15
13.46
15.73
16.89
16.96
16.16
14.80
13.26
11.84
10.63
9.53
8.35
6.88
5.07
3.03
0.94
-1.00
-2.69
-4.20
-5.71
-7.46
-9.64
-12.41
-15.76
-19.52
-23.39
-26.86
-29.39
-30.44
-29.62
-26.86
-22.38
-16.68
-10.40
-4.21
1.42
6.17
9.95
12.76
14.64
15.62
15.75
15.14
14.01
12.65
11.34
10.22
9.25
8.22
6.88
5.10
2.94
0.63
-1.55
-3.41
-4.97
-6.41
-7.96
-9.84
-12.15
-14.89
-17.98
-21.27
-24.48
-27.21
-28.89
-28.94
-26.94
-22.81
-16.89
-9.81
-2.33
4.87
11.40
17.02
21.66
25.22
27.56
28.56
28.28
27.01
25.25
23.58
22.42
21.93
21.91
21.96
21.68
20.80
19.34
17.51
15.61
13.82
12.15
10.44
8.44
5.91
2.69
-1.28
-5.92
-11.03
-16.24
-21.00
-24.63
-26.47
-26.09
-23.47
-18.99
-13.37
-7.37
-1.62
3.54
8.04
11.87
15.03
17.39
18.79
19.22
18.86
18.10
17.39
17.01
16.95
16.96
16.67
15.83
14.43
12.71
10.99
9.50
8.28
7.20
6.07
4.70
2.95
0.70
-2.18
-5.73
-9.84
-14.04
-17.57
-19.56
-19.32
-16.65
-11.95
-6.12
-0.19
4.97
8.93
11.69
13.48
14.56
15.04
14.86
13.96
12.33
10.15
7.72
5.37
3.39
1.87
0.78
-0.03
-0.70
-1.30
-1.84
-2.32
-2.73
-3.13
-3.66
-4.43
-5.55
-7.07
-9.02
-11.42
-14.29
-17.51
-20.80
-23.62
-25.29
-25.21
-23.07
-19.01
-13.58
-7.50
-1.51
3.85
8.30
11.79
14.32
15.92
16.57
16.28
15.15
13.43
11.49
9.71
8.36
7.55
7.18
7.02
6.82
6.38
5.63
4.56
3.20
1.58
-0.30
-2.43
-4.84
-7.55
-10.59
-13.99
-17.78
-21.92
-26.26
-30.50
-34.11
-36.46
-36.92
-35.05
-30.78
-24.45
-16.77
-8.62
-0.76
6.25
12.16
16.86
20.32
22.50
23.39
23.05
21.72
19.76
17.60
15.60
13.93
12.63
11.60
10.68
9.72
8.65
7.47
6.23
5.02
3.83
2.60
1.17
-0.66
-3.05
-6.06
-9.71
-13.87
-18.26
-22.43
-25.72
-27.42
-26.91
-23.93
-18.65
-11.67
-3.82
4.08
11.36
17.63
22.64
26.23
28.30
28.83
27.96
26.07
23.67
21.30
19.33
17.89
16.85
15.96
14.96
13.70
12.17
10.43
8.57
6.68
4.76
2.77
0.65
-1.72
-4.46
-7.66
-11.29
-15.16
-18.89
-21.93
-23.70
-23.70
-21.67
-17.64
-11.97
-5.27
1.75
8.38
14.07
18.50
21.55
23.26
23.74
23.16
21.67
19.47
16.82
14.03
11.40
9.19
7.45
6.08
4.83
3.45
1.75
-0.27
-2.50
-4.72
-6.74
-8.50
-10.02
-11.48
-13.11
-15.12
-17.66
-20.64
-23.80
-26.60
-28.38
-28.49
-26.49
-22.32
-16.30
-9.11
-1.56
5.57
11.71
16.51
19.89
21.92
22.79
22.72
21.99
20.89
19.62
18.36
17.19
16.09
15.00
13.83
12.49
10.92
9.12
7.09
4.83
2.34
-0.38
-3.30
-6.36
-9.47
-12.53
-15.55
-18.60
-21.86
-25.51
-29.56
-33.78
-37.68
-40.56
-41.67
-40.52
-36.97
-31.37
-24.41
-16.96
-9.80
-3.45
1.86
6.18
9.62
12.32
14.36
15.76
16.58
16.94
16.94
16.69
16.22
15.49
14.49
13.21
11.75
10.23
8.75
7.27
5.66
3.73
1.36
-1.43
-4.43
-7.36
-9.99
-12.26
-14.31
-16.38
-18.72
-21.42
-24.33
-27.01
-28.82
-29.13
-27.49
-23.78
-18.35
-11.85
-5.12
1.12
6.34
10.34
13.12
14.79
15.47
15.26
14.27
12.69
10.82
9.01
7.62
6.85
6.69
6.95
7.35
7.58
7.46
6.92
6.05
4.94
3.68
2.28
0.70
-1.13
-3.22
-5.55
-8.05
-10.68
-13.40
-16.12
-18.65
-20.63
-21.50
-20.73
-17.96
-13.19
-6.85
0.32
7.52
14.06
19.57
23.93
27.19
29.42
30.67
30.92
30.20
28.63
26.43
23.95
21.51
19.35
17.50
15.82
14.08
12.09
9.76
7.19
4.58
2.12
-0.10
-2.15
-4.18
-6.39
-8.95
-11.96
-15.42
-19.29
-23.43
-27.57
-31.29
-34.02
-35.16
-34.24
-31.13
-26.07
-19.67
-12.77
-6.12
-0.28
4.52
8.33
11.39
13.88
15.90
17.38
18.22
18.32
17.74
16.69
15.45
14.30
13.40
12.74
12.21
11.60
10.76
9.59
8.13
6.47
4.74
3.04
1.40
-0.19
-1.84
-3.65
-5.77
-8.27
-11.13
-14.12
-16.80
-18.54
-18.71
-16.83
-12.79
-6.91
0.11
7.35
13.93
19.20
22.80
24.69
25.04
24.12
22.20
19.54
16.41
13.05
9.73
6.76
4.39
2.80
1.97
1.72
1.72
1.62
1.18
0.33
-0.87
-2.23
-3.64
-5.03
-6.45
-7.91
-9.47
-11.18
-13.16
-15.57
-18.58
-22.08
-25.63
-28.44
-29.58
-28.33
-24.47
-18.37
-10.86
-2.94
4.55
11.10
16.52
20.84
24.16
26.56
28.05
28.65
28.40
27.41
25.91
24.15
22.37
20.73
19.26
17.88
16.43
14.77
12.80
10.52
7.99
5.30
2.54
-0.21
-2.92
-5.57
-8.17
-10.79
-13.50
-16.37
-19.33
-22.20
-24.59
-26.04
-26.09
-24.44
-21.05
-16.21
-10.44
-4.39
1.34
6.27
10.15
12.86
14.43
14.96
14.61
13.60
12.22
10.76
9.45
8.41
7.61
6.91
6.07
4.92
3.37
1.51
-0.44
-2.21
-3.62
-4.61
-5.29
-5.89
-6.61
-7.65
-9.15
-11.20
-13.88
-17.12
-20.64
-23.87
-26.13
-26.76
-25.40
-22.12
-17.36
-11.78
-6.03
-0.66
3.98
7.66
10.27
11.75
12.19
11.74
10.67
9.27
7.87
6.71
5.97
5.67
5.71
5.87
5.92
5.66
5.01
3.97
2.66
1.23
-0.20
-1.52
-2.69
-3.81
-5.05
-6.66
-8.84
-11.54
-14.43
-16.90
-18.24
-17.87
-15.56
-11.46
-6.07
-0.05
5.94
11.37
15.84
19.10
21.00
21.50
20.62
18.55
15.57
12.07
8.45
5.08
2.16
-0.24
-2.23
-3.97
-5.63
-7.28
-8.93
-10.51
-11.98
-13.35
-14.71
-16.18
-17.89
-19.90
-22.23
-24.84
-27.55
-30.07
-31.94
-32.63
-31.70
-28.93
-24.43
-18.65
-12.21
-5.68
0.48
5.97
10.57
14.06
16.20
16.85
16.03
14.05
11.36
8.47
5.80
3.59
1.88
0.58
-0.46
-1.37
-2.25
-3.14
-4.03
-4.91
-5.79
-6.74
-7.84
-9.21
-10.96
-13.16
-15.80
-18.68
-21.45
-23.57
-24.48
-23.73
-21.17
-16.98
-11.60
-5.56
0.65
6.64
12.10
16.71
20.10
21.99
22.27
21.15
19.11
16.72
14.44
12.51
10.94
9.57
8.24
6.88
5.47
4.06
2.67
1.35
0.10
-1.07
-2.20
-3.38
-4.77
-6.50
-8.56
-10.73
-12.56
-13.51
-13.07
-10.91
-7.01
-1.64
4.72
11.46
18.01
23.87
28.71
32.32
34.57
35.40
34.87
33.19
30.76
28.09
25.62
23.64
22.15
20.97
19.91
18.89
18.02
17.45
17.29
17.46
17.77
17.96
17.79
17.13
15.84
13.87
11.24
8.17
5.13
2.79
1.76
2.40
4.67
8.14
12.29
16.63
20.93
25.10
29.04
32.51
35.13
36.47
36.30
34.73
32.12
28.92
25.44
21.68
17.40
12.33
6.35
-0.35
-7.34
-14.20
-20.72
-27.10
-33.94
-42.00
-51.97
-64.03
-77.66
-91.49
-103.63
-112.01
-114.99
-111.74
-102.47
-88.33
-71.05
-52.54
-34.52
-18.39
-5.15
4.58
10.50
12.73
11.75
8.45
4.00
-0.35
-3.46
-4.59
-3.46
-0.29
4.37
9.80
15.37
20.51
24.89
28.29
30.61
31.84
31.99
31.12
29.24
26.41
22.72
18.41
13.91
9.80
6.71
5.18
5.46
7.39
10.48
13.99
17.17
19.44
20.54
20.52
19.53
17.65
14.76
10.55
4.80
-2.34
-10.26
-17.92
-24.18
-28.18
-29.56
-28.48
-25.52
-21.42
-16.94
-12.67
-8.97
-5.96
-3.55
-1.56
0.03
0.94
0.53
-1.87
-6.57
-13.14
-20.24
-25.98
-28.48
-26.52
-19.93
-9.64
2.69
15.20
26.28
34.92
40.74
43.78
44.28
42.53
38.79
33.39
26.76
19.49
12.18
5.30
-0.99
-6.78
-12.28
-17.63
-22.76
-27.32
-30.92
-33.26
-34.36
-34.50
-34.23
-34.06
-34.42
-35.50
-37.28
-39.59
-42.17
-44.66
-46.64
-47.55
-46.82
-43.95
-38.76
-31.46
-22.68
-13.26
-4.00
4.50
11.86
17.86
22.28
24.90
25.53
24.27
21.51
17.95
14.39
11.50
9.70
9.11
9.67
11.21
13.44
15.96
18.20
19.55
19.51
17.89
14.92
11.18
7.36
4.08
1.66
0.13
-0.60
-0.61
0.15
1.82
4.45
7.93
11.89
15.83
19.28
22.00
23.94
25.20
25.82
25.76
24.82
22.87
19.98
16.48
12.91
9.72
7.17
5.16
3.36
1.42
-0.82
-3.19
-5.29
-6.54
-6.52
-5.01
-2.15
1.60
5.58
9.01
11.20
11.75
10.69
8.56
6.29
4.91
5.22
7.46
11.30
15.88
20.25
23.62
25.61
26.26
25.85
24.62
22.70
20.03
16.53
12.18
7.18
1.86
-3.40
-8.32
-12.78
-16.80
-20.51
-23.99
-27.23
-30.17
-32.70
-34.80
-36.50
-37.92
-39.19
-40.42
-41.71
-43.11
-44.60
-46.04
-47.05
-47.07
-45.44
-41.63
-35.50
-27.32
-17.76
-7.62
2.39
11.80
20.36
27.88
34.12
38.76
41.51
42.30
41.37
39.21
36.47
33.67
31.15
28.94
26.89
24.79
22.47
19.85
16.92
13.72
10.29
6.70
3.05
-0.49
-3.79
-6.74
-9.43
-12.09
-14.99
-18.29
-21.76
-24.81
-26.58
-26.28
-23.49
-18.37
-11.62
-4.19
2.94
9.14
14.08
17.78
20.37
22.01
22.82
22.85
22.17
20.90
19.22
17.36
15.54
13.88
12.37
10.88
9.23
7.26
4.89
2.14
-0.87
-3.99
-7.02
-9.84
-12.36
-14.63
-16.77
-18.98
-21.47
-24.41
-27.81
-31.44
-34.84
-37.32
-38.15
-36.78
-33.04
-27.22
-20.00
-12.27
-4.82
1.77
7.20
11.40
14.33
16.02
16.51
15.95
14.64
12.99
11.41
10.20
9.42
8.99
8.66
8.17
7.35
6.12
4.50
2.57
0.39
-1.98
-4.51
-7.19
-9.98
-12.87
-15.84
-18.85
-21.82
-24.68
-27.28
-29.39
-30.64
-30.55
-28.68
-24.73
-18.77
-11.28
-3.08
4.91
11.90
17.44
21.42
23.95
25.20
25.27
24.26
22.35
19.91
17.45
15.49
14.33
13.89
13.82
13.57
12.74
11.19
9.11
6.89
4.90
3.37
2.29
1.47
0.64
-0.49
-2.07
-4.19
-6.75
-9.49
-11.91
-13.39
-13.27
-11.14
-6.99
-1.26
5.29
11.80
17.58
22.24
25.62
27.72
28.50
27.93
26.04
23.05
19.44
15.80
12.71
10.48
9.07
8.16
7.31
6.14
4.50
2.45
0.16
-2.18
-4.49
-6.83
-9.33
-12.14
-15.39
-19.14
-23.32
-27.73
-31.95
-35.35
-37.17
-36.75
-33.75
-28.30
-21.05
-12.96
-5.01
2.07
7.94
12.52
15.90
18.11
19.11
18.90
17.64
15.72
13.64
11.84
10.55
9.67
8.94
8.04
6.75
5.05
3.03
0.86
-1.31
-3.39
-5.36
-7.27
-9.22
-11.36
-13.89
-16.95
-20.52
-24.36
-27.96
-30.58
-31.51
-30.24
-26.68
-21.18
-14.47
-7.38
-0.58
5.47
10.58
14.72
17.86
19.99
21.05
21.11
20.31
18.88
17.08
15.14
13.18
11.24
9.28
7.26
5.16
2.99
0.82
-1.31
-3.37
-5.40
-7.46
-9.67
-12.09
-14.78
-17.78
-21.08
-24.67
-28.39
-31.88
-34.59
-35.80
-34.91
-31.60
-26.05
-18.86
-10.90
-3.02
4.09
10.08
14.75
18.06
19.98
20.52
19.80
18.07
15.68
13.02
10.41
8.01
5.87
3.91
2.04
0.16
-1.73
-3.53
-5.09
-6.26
-7.01
-7.49
-7.99
-8.86
-10.41
-12.85
-16.19
-20.23
-24.51
-28.36
-30.89
-31.28
-28.98
-23.93
-16.59
-7.84
1.33
10.02
17.63
23.79
28.30
31.08
32.15
31.73
30.23
28.17
26.10
24.35
23.02
21.98
20.97
19.79
18.32
16.58
14.64
12.59
10.52
8.47
6.49
4.56
2.62
0.46
-2.18
-5.53
-9.59
-14.01
-18.09
-20.90
-21.57
-19.59
-14.99
-8.36
-0.63
7.21
14.38
20.38
25.00
28.17
29.88
30.14
29.03
26.76
23.67
20.19
16.72
13.58
10.89
8.61
6.55
4.57
2.54
0.52
-1.35
-2.82
-3.68
-3.87
-3.48
-2.82
-2.27
-2.28
-3.24
-5.32
-8.37
-11.90
-15.12
-17.17
-17.36
-15.43
-11.59
-6.37
-0.46
5.53
11.19
16.26
20.57
23.98
26.35
27.59
27.71
26.83
25.18
23.02
20.63
18.25
16.03
14.04
12.20
10.33
8.20
5.60
2.51
-0.97
-4.61
-8.18
-11.55
-14.80
-18.08
-21.60
-25.49
-29.72
-34.09
-38.21
-41.50
-43.27
-42.86
-39.91
-34.45
-27.01
-18.51
-9.98
-2.30
4.01
8.79
12.13
14.25
15.35
15.64
15.32
14.61
13.70
12.73
11.75
10.71
9.50
8.04
6.30
4.45
2.70
1.37
0.65
0.58
1.01
1.63
2.14
2.31
2.01
1.17
-0.28
-2.50
-5.57
-9.37
-13.49
-17.14
-19.42
-19.58
-17.33
-12.93
-7.08
-0.72
5.27
10.26
13.93
16.20
17.17
17.00
15.93
14.23
12.17
10.11
8.32
7.07
6.44
6.33
6.44
6.40
5.89
4.78
3.18
1.31
-0.57
-2.38
-4.19
-6.16
-8.43
-11.05
-14.00
-17.16
-20.43
-23.62
-26.43
-28.38
-28.88
-27.42
-23.79
-18.14
-11.01
-3.14
4.74
12.09
18.56
24.00
28.34
31.52
33.51
34.39
34.35
33.71
32.86
32.14
31.70
31.49
31.27
30.74
29.66
27.95
25.66
22.90
19.77
16.33
12.52
8.28
3.56
-1.68
-7.44
-13.61
-19.98
-26.16
-31.58
-35.57
-37.51
-36.99
-34.01
-28.97
-22.64
-15.90
-9.58
-4.21
0.02
3.18
5.50
7.14
8.19
8.59
8.34
7.49
6.29
5.09
4.23
3.88
4.00
4.36
4.62
4.53
3.98
3.06
1.92
0.74
-0.47
-1.76
-3.28
-5.13
-7.34
-9.89
-12.71
-15.72
-18.79
-21.64
-23.79
-24.62
-23.54
-20.23
-14.83
-7.96
-0.56
6.46
12.41
16.96
20.06
21.74
22.04
20.95
18.55
15.15
11.25
7.51
4.42
2.21
0.73
-0.36
-1.52
-3.02
-4.93
-7.08
-9.19
-10.97
-12.23
-12.91
-13.06
-12.86
-12.57
-12.45
-12.82
-13.95
-15.92
-18.56
-21.38
-23.59
-24.28
-22.74
-18.72
-12.53
-5.03
2.67
9.52
14.78
18.14
19.67
19.74
18.76
17.13
15.14
12.99
10.83
8.82
7.19
6.15
5.84
6.22
7.03
7.90
8.46
8.43
7.75
6.54
4.93
3.02
0.84
-1.64
-4.43
-7.49
-10.78
-14.24
-17.78
-21.24
-24.31
-26.51
-27.24
-26.03
-22.64
-17.28
-10.57
-3.35
3.55
9.51
14.17
17.49
19.54
20.44
20.29
19.20
17.31
14.84
12.08
9.36
6.93
4.94
3.36
2.11
1.04
0.07
-0.78
-1.42
-1.73
-1.66
-1.32
-0.97
-0.97
-1.64
-3.18
-5.59
-8.75
-12.37
-16.09
-19.41
-21.74
-22.50
-21.26
-17.92
-12.79
-6.54
-0.05
5.87
10.66
14.10
16.25
17.28
17.31
16.46
14.87
12.80
10.71
9.08
8.23
8.20
8.67
9.12
9.06
8.26
6.81
5.02
3.23
1.60
0.11
-1.41
-3.12
-5.14
-7.50
-10.18
-13.17
-16.38
-19.61
-22.48
-24.41
-24.75
-23.05
-19.18
-13.51
-6.80
0.02
6.08
10.78
13.85
15.30
15.32
14.20
12.27
9.89
7.45
5.28
3.65
2.62
2.11
1.89
1.71
1.39
0.83
0.10
-0.72
-1.54
-2.38
-3.35
-4.64
-6.46
-8.98
-12.25
-16.20
-20.62
-25.09
-29.06
-31.86
-32.90
-31.80
-28.50
-23.30
-16.79
-9.62
-2.42
4.31
10.18
14.88
18.14
19.81
19.87
18.54
16.27
13.61
11.13
9.20
7.99
7.40
7.22
7.16
6.94
6.36
5.27
3.63
1.49
-1.01
-3.69
-6.41
-9.15
-12.01
-15.17
-18.75
-22.67
-26.58
-29.89
-31.93
-32.18
-30.39
-26.70
-21.50
-15.34
-8.77
-2.27
3.82
9.20
13.57
16.69
18.39
18.74
18.00
16.67
15.25
14.12
13.44
13.06
12.72
12.10
11.00
9.35
7.25
4.88
2.46
0.09
-2.26
-4.81
-7.88
-11.80
-16.68
-22.30
-28.08
-33.18
-36.68
-37.85
-36.31
-32.09
-25.62
-17.55
-8.66
0.30
8.63
15.68
20.90
23.89
24.54
23.10
20.24
16.82
13.72
11.55
10.49
10.35
10.70
11.07
11.17
10.95
10.51
10.02
9.63
9.33
9.05
8.52
7.44
5.51
2.65
-0.88
-4.46
-7.18
-8.18
-6.93
-3.38
1.94
8.24
14.64
20.48
25.36
29.05
31.43
32.37
31.83
29.88
26.82
23.07
19.16
15.46
12.19
9.32
6.61
3.82
0.74
-2.66
-6.26
-9.84
-13.17
-16.20
-19.03
-21.96
-25.30
-29.22
-33.65
-38.21
-42.25
-45.02
-45.83
-44.21
-40.07
-33.70
-25.73
-16.96
-8.15
0.10
7.46
13.75
18.94
22.93
25.63
26.98
27.07
26.19
24.78
23.28
22.02
21.09
20.36
19.57
18.51
17.10
15.47
13.82
12.36
11.06
9.70
7.86
5.18
1.45
-3.25
-8.49
-13.58
-17.75
-20.29
-20.73
-18.96
-15.26
-10.17
-4.41
1.36
6.64
11.11
14.60
16.99
18.14
17.93
16.31
13.39
9.48
5.03
0.53
-3.65
-7.32
-10.54
-13.50
-16.41
-19.32
-22.09
-24.43
-26.07
-26.91
-27.11
-27.05
-27.16
-27.80
-29.13
-31.11
-33.43
-35.60
-36.96
-36.80
-34.53
-29.90
-23.13
-14.82
-5.81
3.09
11.34
18.70
25.11
30.51
34.78
37.74
39.25
39.39
38.44
36.86
35.13
33.62
32.47
31.62
30.81
29.73
28.13
25.92
23.21
20.27
17.42
14.87
12.61
10.37
7.81
4.60
0.59
-4.16
-9.36
-14.55
-19.13
-22.43
-23.83
-22.92
-19.67
-14.53
-8.33
-2.04
3.49
7.72
10.45
11.73
11.72
10.65
8.79
6.51
4.25
2.42
1.26
0.78
0.72
0.74
0.54
0.01
-0.78
-1.64
-2.33
-2.71
-2.70
-2.44
-2.18
-2.33
-3.33
-5.54
-9.00
-13.33
-17.74
-21.14
-22.49
-21.06
-16.70
-9.83
-1.30
7.80
16.50
24.09
30.26
34.99
38.46
40.87
42.35
42.98
42.82
42.00
40.68
39.05
37.22
35.25
33.06
30.59
27.79
24.71
21.44
18.12
14.82
11.47
7.94
4.05
-0.33
-5.22
-10.51
-16.07
-21.83
-27.72
-33.66
-39.35
-44.26
-47.67
-48.85
-47.42
-43.48
-37.61
-30.67
-23.52
-16.77
-10.72
-5.45
-1.00
2.56
5.18
6.86
7.76
8.17
8.42
8.73
9.18
9.75
10.35
10.95
11.51
11.99
12.28
12.24
11.72
10.70
9.23
7.45
5.52
3.51
1.44
-0.76
-3.15
-5.85
-8.92
-12.35
-15.99
-19.45
-22.14
-23.38
-22.61
-19.57
-14.48
-7.91
-0.71
6.28
12.45
17.45
21.27
23.99
25.77
26.69
26.82
26.22
25.02
23.36
21.42
19.32
17.06
14.65
12.06
9.31
6.48
3.67
0.90
-1.86
-4.76
-7.95
-11.52
-15.45
-19.57
-23.67
-27.58
-31.22
-34.67
-38.10
-41.73
-45.69
-49.91
-54.03
-57.46
-59.40
-59.08
-55.97
-49.99
-41.57
-31.58
-21.09
-11.14
-2.46
4.59
10.03
14.03
16.88
18.78
19.90
20.38
20.41
20.23
20.09
20.16
20.48
20.97
21.50
21.92
22.10
21.95
21.37
20.25
18.54
16.28
13.64
10.90
8.35
6.19
4.46
2.93
1.27
-0.93
-3.89
-7.54
-11.47
-14.91
-16.99
-16.96
-14.48
-9.73
-3.33
3.81
10.79
16.91
21.78
25.30
27.54
28.64
28.78
28.07
26.65
24.67
22.28
19.68
17.06
14.56
12.23
10.04
7.83
5.41
2.64
-0.56
-4.12
-7.97
-11.92
-15.81
-19.44
-22.71
-25.55
-28.07
-30.50
-33.14
-36.19
-39.60
-42.99
-45.65
-46.74
-45.54
-41.72
-35.41
-27.22
-18.01
-8.70
0.00
7.64
13.99
19.01
22.70
25.11
26.37
26.68
26.28
25.47
24.46
23.38
22.29
21.24
20.28
19.47
18.83
18.29
17.72
16.96
15.90
14.50
12.75
10.71
8.40
5.81
2.91
-0.34
-3.98
-8.01
-12.37
-16.81
-20.86
-23.84
-25.07
-24.03
-20.65
-15.30
-8.73
-1.82
4.62
10.05
14.17
16.89
18.24
18.29
17.19
15.10
12.24
8.87
5.23
1.58
-1.89
-5.01
-7.72
-10.08
-12.25
-14.44
-16.82
-19.45
-22.24
-25.03
-27.60
-29.83
-31.64
-33.10
-34.30
-35.35
-36.33
-37.34
-38.49
-39.87
-41.49
-43.10
-44.16
-43.91
-41.58
-36.71
-29.35
-20.11
-9.98
-0.00
9.03
16.69
22.88
27.70
31.28
33.71
35.02
35.30
34.73
33.58
32.19
30.86
29.77
28.95
28.29
27.60
26.73
25.57
24.08
22.23
20.01
17.42
14.49
11.32
8.11
5.08
2.35
-0.12
-2.59
-5.42
-8.89
-13.07
-17.60
-21.78
-24.66
-25.39
-23.43
-18.78
-11.97
-3.95
4.17
11.44
17.22
21.29
23.74
24.88
24.97
24.21
22.67
20.43
17.61
14.43
11.22
8.22
5.59
3.26
1.08
-1.19
-3.66
-6.36
-9.20
-12.02
-14.69
-17.15
-19.42
-21.52
-23.50
-25.31
-26.93
-28.40
-29.88
-31.65
-33.91
-36.65
-39.40
-41.34
-41.48
-39.03
-33.68
-25.74
-16.09
-5.85
3.87
12.21
18.64
23.02
25.50
26.41
26.24
25.48
24.56
23.74
23.14
22.71
22.34
21.89
21.23
20.28
19.01
17.38
15.41
13.07
10.40
7.48
4.48
1.60
-0.91
-2.88
-4.28
-5.22
-5.90
-6.62
-7.68
-9.34
-11.70
-14.61
-17.58
-19.79
-20.33
-18.41
-13.76
-6.70
1.85
10.71
18.75
25.21
29.72
32.25
33.04
32.39
30.67
28.28
25.62
23.02
20.70
18.71
17.00
15.50
14.14
12.93
11.87
10.94
9.99
8.80
7.14
4.83
1.88
-1.61
-5.39
-9.21
-12.89
-16.32
-19.51
-22.55
-25.58
-28.76
-32.19
-35.77
-39.16
-41.77
-42.86
-41.78
-38.17
-32.09
-24.02
-14.70
-4.89
4.76
13.78
21.78
28.38
33.23
36.07
36.89
36.00
34.04
31.71
29.65
28.17
27.28
26.70
26.09
25.14
23.73
21.86
19.67
17.32
14.90
12.42
9.89
7.29
4.67
2.07
-0.45
-2.93
-5.48
-8.34
-11.72
-15.80
-20.49
-25.45
-29.95
-33.09
-33.94
-31.94
-27.06
-19.89
-11.39
-2.68
5.35
12.12
17.41
21.14
23.27
23.80
22.79
20.52
17.48
14.29
11.55
9.69
8.84
8.88
9.44
10.07
10.30
9.79
8.35
6.02
2.95
-0.60
-4.37
-8.16
-11.79
-15.18
-18.27
-21.08
-23.73
-26.44
-29.40
-32.73
-36.29
-39.66
-42.15
-43.00
-41.58
-37.61
-31.29
-23.27
-14.47
-5.87
1.69
7.71
12.00
14.68
15.97
16.12
15.28
13.58
11.18
8.32
5.37
2.72
0.70
-0.54
-1.00
-0.86
-0.35
0.32
0.95
1.40
1.54
1.30
0.67
-0.33
-1.65
-3.32
-5.41
-8.05
-11.29
-15.00
-18.80
-22.11
-24.25
-24.62
-22.90
-19.05
-13.41
-6.52
0.96
8.43
15.32
21.14
25.51
28.10
28.76
27.53
24.72
20.85
16.61
12.67
9.54
7.43
6.22
5.56
5.01
4.26
3.18
1.86
0.48
-0.78
-1.89
-2.92
-4.03
-5.44
-7.34
-9.88
-13.15
-17.05
-21.24
-25.10
-27.81
-28.62
-27.03
-23.04
-17.11
-9.98
-2.49
4.71
11.13
16.45
20.47
23.04
24.12
23.80
22.38
20.30
18.02
15.93
14.27
13.11
12.37
11.81
11.18
10.25
8.93
7.34
5.77
4.51
3.69
3.19
2.65
1.58
-0.43
-3.62
-7.92
-12.98
-18.24
-22.92
-26.22
-27.39
-25.92
-21.77
-15.41
-7.80
-0.12
6.54
11.40
14.20
15.07
14.38
12.51
9.74
6.26
2.30
-1.77
-5.48
-8.35
-10.10
-10.80
-10.78
-10.53
-10.46
-10.72
-11.22
-11.70
-11.98
-12.03
-12.04
-12.29
-13.07
-14.46
-16.42
-18.73
-21.04
-22.92
-23.81
-23.16
-20.51
-15.69
-8.89
-0.67
8.21
17.00
25.12
32.23
38.13
42.72
45.88
47.56
47.77
46.68
44.58
41.81
38.69
35.47
32.31
29.26
26.24
23.10
19.63
15.72
11.33
6.60
1.71
-3.16
-7.94
-12.69
-17.53
-22.62
-28.06
-33.86
-39.92
-45.99
-51.58
-56.04
-58.58
-58.53
-55.50
-49.59
-41.39
-31.82
-21.86
-12.33
-3.78
3.55
9.60
14.40
18.04
20.65
22.45
23.64
24.44
24.95
25.23
25.31
25.26
25.17
25.14
25.16
25.09
24.70
23.80
22.30
20.21
17.67
14.79
11.71
8.50
5.19
1.72
-2.06
-6.35
-11.22
-16.56
-21.87
-26.39
-29.24
-29.78
-27.84
-23.82
-18.56
-13.06
-8.14
-4.25
-1.45
0.41
1.55
2.05
1.91
1.09
-0.36
-2.20
-4.06
-5.54
-6.31
-6.20
-5.23
-3.63
-1.78
-0.15
0.86
1.05
0.46
-0.67
-1.97
-3.21
-4.31
-5.39
-6.65
-8.29
-10.40
-12.95
-15.76
-18.48
-20.58
-21.42
-20.38
-17.08
-11.56
-4.31
3.86
12.00
19.35
25.40
29.92
32.88
34.30
34.29
33.02
30.83
28.16
25.50
23.29
21.75
20.83
20.25
19.63
18.64
17.11
15.07
12.66
10.05
7.37
4.66
1.86
-1.14
-4.48
-8.29
-12.62
-17.44
-22.48
-27.28
-31.16
-33.40
-33.35
-30.74
-25.72
-18.83
-10.93
-2.92
4.41
10.56
15.26
18.42
20.07
20.30
19.29
17.37
15.00
12.68
10.76
9.38
8.44
7.67
6.81
5.69
4.32
2.80
1.28
-0.14
-1.40
-2.52
-3.57
-4.68
-6.01
-7.74
-10.05
-13.02
-16.57
-20.39
-23.88
-26.29
-26.85
-25.02
-20.72
-14.34
-6.66
1.41
9.03
15.64
20.92
24.83
27.41
28.76
29.06
28.45
27.16
25.38
23.34
21.29
19.47
18.06
17.11
16.47
15.84
14.85
13.24
10.95
8.07
4.86
1.54
-1.76
-5.03
-8.35
-11.83
-15.56
-19.58
-23.80
-28.02
-31.86
-34.81
-36.30
-35.77
-32.91
-27.67
-20.43
-11.91
-3.02
5.30
12.41
17.97
22.01
24.78
26.47
27.19
26.93
25.66
23.47
20.64
17.58
14.65
12.11
10.05
8.40
7.04
5.84
4.71
3.55
2.26
0.70
-1.22
-3.51
-6.12
-8.95
-11.86
-14.78
-17.74
-20.89
-24.43
-28.54
-33.09
-37.61
-41.22
-42.89
-41.79
-37.61
-30.72
-22.07
-12.85
-4.11
3.52
9.82
14.85
18.71
21.41
22.92
23.20
22.41
20.83
18.88
16.93
15.23
13.88
12.82
11.92
11.06
10.11
8.93
7.40
5.43
3.01
0.29
-2.45
-4.90
-6.86
-8.29
-9.46
-10.75
-12.61
-15.26
-18.64
-22.30
-25.50
-27.36
-27.09
-24.22
-18.75
-11.23
-2.61
6.00
13.59
19.50
23.48
25.72
26.59
26.49
25.69
24.30
22.36
19.91
17.08
14.09
11.20
8.60
6.37
4.48
2.81
1.27
-0.21
-1.66
-3.11
-4.62
-6.28
-8.18
-10.35
-12.77
-15.40
-18.20
-21.22
-24.50
-28.06
-31.73
-35.02
-37.25
-37.62
-35.59
-31.05
-24.49
-16.79
-9.00
-1.94
3.92
8.54
12.07
14.71
16.49
17.40
17.38
16.52
15.01
13.16
11.29
9.67
8.40
7.47
6.72
5.98
5.06
3.87
2.39
0.70
-1.11
-2.95
-4.75
-6.51
-8.26
-10.13
-12.30
-14.96
-18.17
-21.75
-25.21
-27.83
-28.79
-27.49
-23.72
-17.71
-10.12
-1.76
6.50
13.97
20.15
24.77
27.67
28.89
28.51
26.76
23.94
20.46
16.76
13.26
10.25
7.82
5.87
4.15
2.38
0.38
-1.84
-4.11
-6.20
-7.93
-9.25
-10.21
-10.95
-11.61
-12.33
-13.31
-14.78
-16.88
-19.55
-22.35
-24.51
-25.09
-23.29
-18.80
-11.88
-3.34
5.78
14.54
22.31
28.81
33.98
37.85
40.38
41.51
41.24
39.74
37.35
34.53
31.71
29.12
26.73
24.31
21.54
18.22
14.31
10.00
5.56
1.25
-2.79
-6.58
-10.23
-13.91
-17.78
-21.97
-26.60
-31.73
-37.30
-43.05
-48.42
-52.60
-54.68
-53.95
-50.07
-43.33
-34.50
-24.74
-15.21
-6.84
-0.13
4.85
8.33
10.67
12.17
13.03
13.38
13.36
13.23
13.28
13.74
14.70
15.95
17.14
17.89
17.97
17.38
16.33
15.10
13.87
12.71
11.51
10.18
8.64
6.87
4.83
2.42
-0.49
-3.98
-7.87
-11.67
-14.61
-15.83
-14.80
-11.49
-6.46
-0.65
4.94
9.58
12.91
14.97
15.97
16.09
15.41
13.91
11.59
8.61
5.29
2.07
-0.69
-2.79
-4.28
-5.40
-6.43
-7.60
-8.94
-10.32
-11.55
-12.49
-13.16
-13.71
-14.41
-15.48
-17.09
-19.25
-21.93
-24.93
-27.92
-30.37
-31.61
-31.00
-28.13
-22.99
-16.01
-7.93
0.44
8.42
15.58
21.67
26.50
29.91
31.73
31.91
30.61
28.23
25.33
22.49
20.15
18.50
17.46
16.79
16.16
15.32
14.11
12.47
10.42
8.03
5.35
2.46
-0.56
-3.66
-6.84
-10.22
-13.95
-18.09
-22.52
-26.77
-30.08
-31.59
-30.63
-26.99
-21.04
-13.67
-5.96
1.14
7.03
11.56
14.82
17.00
18.21
18.43
17.66
16.04
13.92
11.76
9.98
8.82
8.25
7.99
7.64
6.89
5.60
3.81
1.73
-0.42
-2.45
-4.34
-6.15
-8.04
-10.21
-12.79
-15.92
-19.58
-23.64
-27.71
-31.18
-33.26
-33.21
-30.59
-25.45
-18.37
-10.33
-2.36
4.67
10.29
14.38
17.07
18.54
18.95
18.41
17.04
15.01
12.58
10.06
7.75
5.84
4.39
3.31
2.41
1.47
0.32
-1.11
-2.78
-4.59
-6.39
-8.05
-9.49
-10.69
-11.70
-12.70
-13.86
-15.30
-16.95
-18.40
-18.97
-17.87
-14.44
-8.50
-0.43
8.91
18.39
26.97
33.94
38.98
42.10
43.50
43.41
42.03
39.55
36.19
32.21
27.97
23.75
19.79
16.15
12.76
9.49
6.16
2.70
-0.88
-4.47
-7.91
-11.09
-13.93
-16.48
-18.78
-20.95
-23.09
-25.29
-27.60
-29.88
-31.82
-32.84
-32.25
-29.43
-24.14
-16.57
-7.39
2.52
12.25
21.14
28.71
34.67
38.80
40.89
40.86
38.80
35.06
30.24
25.04
20.08
15.78
12.22
9.20
6.29
3.11
-0.53
-4.50
-8.38
-11.63
-13.84
-14.90
-15.02
-14.66
-14.36
-14.51
-15.34
-16.90
-19.05
-21.54
-23.90
-25.48
-25.53
-23.41
-18.81
-12.00
-3.76
4.75
12.38
18.30
22.14
24.02
24.24
23.18
21.04
17.99
14.17
9.87
5.54
1.64
-1.50
-3.82
-5.55
-7.05
-8.67
-10.56
-12.71
-14.96
-17.15
-19.20
-21.06
-22.71
-24.16
-25.41
-26.50
-27.52
-28.59
-29.80
-31.12
-32.38
-33.20
-33.11
-31.55
-28.05
-22.43
-14.87
-5.97
3.41
12.36
20.13
26.27
30.60
33.14
34.03
33.47
31.76
29.26
26.39
23.55
21.04
18.91
17.09
15.33
13.41
11.10
8.29
4.98
1.28
-2.63
-6.52
-10.17
-13.41
-16.19
-18.61
-20.92
-23.41
-26.30
-29.54
-32.71
-35.07
-35.76
-34.04
-29.63
-22.79
-14.26
-5.07
3.82
11.69
18.11
22.95
26.22
28.05
28.65
28.37
27.59
26.74
26.09
25.72
25.55
25.39
25.08
24.48
23.60
22.49
21.21
19.83
18.31
16.54
14.39
11.73
8.49
4.63
0.18
-4.84
-10.32
-16.01
-21.42
-25.86
-28.58
-29.03
-27.09
-23.14
-17.86
-12.06
-6.30
-0.93
3.96
8.30
12.00
14.85
16.67
17.37
17.07
16.06
14.75
13.55
12.74
12.40
12.43
12.60
12.63
12.36
11.72
10.77
9.65
8.42
7.08
5.49
3.50
0.97
-2.15
-5.80
-9.80
-13.79
-17.30
-19.72
-20.43
-18.96
-15.19
-9.47
-2.52
4.76
11.58
17.44
22.13
25.65
28.04
29.30
29.46
28.58
26.83
24.50
21.90
19.28
16.77
14.45
12.29
10.23
8.15
5.91
3.40
0.59
-2.42
-5.44
-8.27
-10.81
-13.07
-15.22
-17.46
-20.01
-23.07
-26.73
-30.91
-35.27
-39.20
-41.89
-42.55
-40.66
-36.22
-29.74
-22.12
-14.39
-7.37
-1.56
2.92
6.20
8.52
10.09
11.04
11.39
11.15
10.34
9.04
7.37
5.52
3.66
1.93
0.45
-0.75
-1.70
-2.51
-3.34
-4.36
-5.74
-7.53
-9.73
-12.22
-14.85
-17.47
-20.04
-22.62
-25.34
-28.37
-31.71
-35.15
-38.18
-40.08
-40.07
-37.65
-32.73
-25.70
-17.35
-8.59
-0.24
7.18
13.45
18.51
22.37
24.99
26.34
26.44
25.50
23.88
22.03
20.34
19.03
18.14
17.54
17.06
16.53
15.86
14.99
13.89
12.57
11.06
9.44
7.76
6.01
4.09
1.83
-0.93
-4.25
-7.95
-11.62
-14.65
-16.42
-16.41
-14.35
-10.26
-4.47
2.50
10.05
17.55
24.47
30.39
35.05
38.28
40.02
40.29
39.19
36.96
33.88
30.29
26.47
22.65
18.93
15.36
11.94
8.68
5.58
2.57
-0.44
-3.54
-6.85
-10.41
-14.23
-18.27
-22.51
-26.90
-31.37
-35.70
-39.52
-42.29
-43.45
-42.53
-39.37
-34.19
-27.58
-20.33
-13.20
-6.66
-0.90
4.14
8.57
12.34
15.22
16.89
17.16
16.08
14.06
11.71
9.65
8.31
7.80
7.97
8.48
8.99
9.20
8.97
8.25
7.10
5.62
3.95
2.21
0.46
-1.29
-3.13
-5.22
-7.70
-10.60
-13.66
-16.38
-18.04
-17.92
-15.59
-11.12
-5.07
1.64
8.06
13.49
17.60
20.43
22.20
23.09
23.21
22.61
21.40
19.77
18.09
16.70
15.85
15.56
15.64
15.73
15.51
14.77
13.45
11.65
9.50
7.16
4.75
2.33
-0.07
-2.47
-4.91
-7.52
-10.41
-13.68
-17.23
-20.74
-23.66
-25.32
-25.13
-22.80
-18.44
-12.55
-5.88
0.76
6.68
11.40
14.69
16.54
17.05
16.43
14.93
12.78
10.20
7.46
4.80
2.46
0.59
-0.81
-1.88
-2.90
-4.15
-5.81
-7.85
-10.12
-12.38
-14.49
-16.41
-18.26
-20.21
-22.37
-24.81
-27.51
-30.47
-33.66
-36.94
-39.97
-42.16
-42.76
-41.14
-36.95
-30.38
-22.06
-12.90
-3.81
4.50
11.57
17.21
21.36
24.08
25.49
25.84
25.44
24.70
23.98
23.57
23.54
23.77
23.94
23.72
22.84
21.20
18.92
16.23
13.38
10.53
7.71
4.88
1.99
-1.02
-4.19
-7.60
-11.30
-15.24
-19.12
-22.39
-24.39
-24.51
-22.54
-18.70
-13.63
-8.16
-3.00
1.37
4.76
7.16
8.59
9.05
8.52
7.10
5.07
2.89
1.10
0.13
0.18
1.09
2.48
3.88
4.90
5.35
5.25
4.74
3.95
2.94
1.68
0.10
-1.87
-4.26
-7.07
-10.23
-13.59
-16.81
-19.41
-20.79
-20.42
-18.06
-13.85
-8.36
-2.41
3.16
7.78
11.22
13.53
14.92
15.54
15.51
14.88
13.74
12.34
11.00
10.01
9.52
9.40
9.34
8.96
8.00
6.45
4.54
2.65
1.16
0.20
-0.34
-0.80
-1.57
-2.98
-5.18
-8.12
-11.63
-15.39
-18.96
-21.77
-23.22
-22.76
-20.17
-15.67
-9.89
-3.75
1.86
6.32
9.42
11.31
12.29
12.63
12.47
11.89
10.90
9.62
8.25
7.01
6.03
5.34
4.85
4.39
3.81
2.95
1.74
0.17
-1.67
-3.62
-5.50
-7.17
-8.56
-9.77
-11.01
-12.51
-14.40
-16.65
-18.93
-20.69
-21.31
-20.28
-17.38
-12.79
-7.04
-0.84
5.11
10.29
14.42
17.42
19.33
20.26
20.29
19.55
18.21
16.51
14.74
13.18
12.04
11.39
11.15
11.14
11.10
10.81
10.18
9.20
7.93
6.47
4.84
3.03
0.90
-1.69
-4.89
-8.70
-13.00
-17.44
-21.58
-24.84
-26.72
-26.87
-25.19
-21.91
-17.48
-12.51
-7.60
-3.20
0.46
3.29
5.33
6.64
7.22
7.04
6.09
4.49
2.47
0.37
-1.43
-2.69
-3.37
-3.65
-3.86
-4.30
-5.16
-6.41
-7.84
-9.25
-10.53
-11.75
-13.13
-14.88
-17.08
-19.65
-22.36
-24.91
-26.99
-28.27
-28.42
-27.09
-24.05
-19.30
-13.14
-6.21
0.69
6.81
11.64
15.03
17.08
18.05
18.18
17.65
16.56
15.02
13.21
11.37
9.81
8.71
8.12
7.89
7.72
7.30
6.40
5.02
3.29
1.42
-0.45
-2.33
-4.37
-6.76
-9.61
-12.93
-16.57
-20.30
-23.86
-26.94
-29.20
-30.26
-29.76
-27.53
-23.69
-18.63
-12.99
-7.40
-2.37
1.84
5.15
7.64
9.37
10.41
10.81
10.70
10.30
9.91
9.80
10.09
10.70
11.44
12.06
12.44
12.60
12.71
12.90
13.16
13.28
12.92
11.77
9.68
6.69
2.99
-1.19
-5.61
-10.04
-14.15
-17.50
-19.60
-19.98
-18.45
-15.08
-10.28
-4.62
1.26
6.84
11.76
15.77
18.73
20.55
21.15
20.54
18.84
16.33
13.40
10.53
8.14
6.43
5.37
4.68
3.96
2.86
1.21
-0.92
-3.34
-5.76
-7.93
-9.75
-11.24
-12.54
-13.86
-15.41
-17.38
-19.79
-22.51
-25.10
-26.94
-27.29
-25.59
-21.58
-15.49
-7.96
0.08
7.70
14.20
19.24
22.79
25.08
26.39
26.94
26.87
26.25
25.16
23.75
22.21
20.74
19.45
18.34
17.32
16.22
14.87
13.19
11.18
8.94
6.56
4.11
1.55
-1.20
-4.25
-7.71
-11.60
-15.84
-20.23
-24.38
-27.72
-29.54
-29.19
-26.34
-21.10
-14.11
-6.35
1.17
7.67
12.78
16.49
19.03
20.61
21.34
21.23
20.33
18.76
16.83
14.94
13.41
12.41
11.86
11.47
10.89
9.85
8.26
6.22
3.91
1.51
-0.93
-3.41
-6.00
-8.74
-11.65
-14.72
-17.98
-21.42
-24.97
-28.33
-31.06
-32.52
-32.16
-29.66
-25.12
-19.03
-12.14
-5.25
1.00
6.31
10.63
14.12
16.94
19.10
20.45
20.70
19.66
17.35
14.15
10.67
7.55
5.21
3.77
3.01
2.62
2.32
1.95
1.52
1.05
0.55
-0.01
-0.66
-1.42
-2.25
-3.16
-4.21
-5.51
-7.12
-8.96
-10.69
-11.74
-11.48
-9.45
-5.60
-0.35
5.52
11.08
15.61
18.79
20.70
21.70
22.16
22.34
22.31
22.01
21.37
20.34
18.95
17.25
15.34
13.32
11.31
9.44
7.78
6.39
5.24
4.25
3.25
2.04
0.35
-2.05
-5.33
-9.49
-14.35
-19.58
-24.71
-29.19
-32.41
-33.80
-32.93
-29.65
-24.20
-17.15
-9.31
-1.44
5.88
12.32
17.78
22.15
25.34
27.18
27.58
26.61
24.59
22.00
19.36
17.03
15.19
13.81
12.70
11.61
10.35
8.83
7.08
5.19
3.25
1.29
-0.79
-3.12
-5.88
-9.22
-13.14
-17.45
-21.75
-25.42
-27.73
-28.06
-26.08
-21.89
-15.99
-9.13
-2.11
4.51
10.44
15.58
19.92
23.41
25.90
27.20
27.23
26.03
23.85
20.99
17.80
14.58
11.57
8.93
6.74
5.00
3.63
2.46
1.36
0.19
-1.13
-2.69
-4.53
-6.71
-9.29
-12.31
-15.72
-19.40
-23.13
-26.56
-29.26
-30.71
-30.46
-28.22
-24.03
-18.24
-11.46
-4.42
2.24
8.05
12.79
16.40
18.96
20.58
21.36
21.36
20.66
19.37
17.69
15.87
14.21
12.94
12.15
11.75
11.53
11.18
10.43
9.11
7.15
4.56
1.48
-1.91
-5.38
-8.71
-11.70
-14.34
-16.71
-19.00
-21.36
-23.76
-25.86
-27.07
-26.72
-24.36
-19.93
-13.86
-6.94
-0.10
5.88
10.53
13.75
15.69
16.66
16.92
16.65
15.90
14.68
13.04
11.17
9.34
7.85
6.90
6.53
6.58
6.76
6.79
6.47
5.77
4.73
3.43
1.93
0.22
-1.71
-3.84
-6.15
-8.55
-11.05
-13.67
-16.50
-19.50
-22.46
-24.89
-26.15
-25.59
-22.83
-17.88
-11.19
-3.54
4.17
11.15
16.83
20.98
23.60
24.84
24.90
23.97
22.20
19.77
16.95
14.07
11.49
9.45
8.03
7.08
6.32
5.39
4.03
2.11
-0.35
-3.23
-6.38
-9.65
-12.93
-16.12
-19.13
-21.94
-24.63
-27.38
-30.44
-33.90
-37.54
-40.78
-42.81
-42.82
-40.39
-35.55
-28.86
-21.16
-13.28
-5.87
0.63
5.95
9.92
12.43
13.48
13.26
12.19
10.79
9.61
9.04
9.19
9.92
10.86
11.62
11.91
11.59
10.71
9.42
7.88
6.16
4.33
2.40
0.40
-1.59
-3.56
-5.55
-7.64
-9.94
-12.42
-14.85
-16.82
-17.79
-17.30
-15.12
-11.30
-6.23
-0.51
5.20
10.32
14.46
17.42
19.21
19.91
19.64
18.55
16.81
14.70
12.54
10.70
9.40
8.66
8.24
7.81
7.05
5.81
4.16
2.32
0.56
-0.98
-2.31
-3.62
-5.14
-7.12
-9.73
-12.99
-16.76
-20.67
-24.19
-26.67
-27.49
-26.29
-23.01
-18.03
-11.97
-5.60
0.42
5.65
9.87
13.03
15.14
16.26
16.44
15.83
14.67
13.30
12.05
11.15
10.71
10.65
10.75
10.73
10.34
9.42
7.99
6.19
4.30
2.57
1.11
-0.16
-1.49
-3.20
-5.54
-8.58
-12.17
-15.96
-19.44
-22.09
-23.34
-22.81
-20.30
-15.94
-10.14
-3.49
3.35
9.78
15.32
19.66
22.59
24.03
24.02
22.80
20.74
18.28
15.88
13.82
12.19
10.84
9.51
7.95
6.01
3.67
1.05
-1.68
-4.38
-6.93
-9.26
-11.35
-13.22
-14.94
-16.65
-18.50
-20.61
-23.03
-25.63
-28.10
-29.95
-30.67
-29.85
-27.36
-23.36
-18.29
-12.69
-7.03
-1.60
3.48
8.22
12.54
16.29
19.25
21.19
22.03
21.86
20.87
19.33
17.48
15.52
13.57
11.72
10.01
8.45
6.98
5.54
4.05
2.46
0.82
-0.84
-2.44
-3.94
-5.36
-6.77
-8.26
-9.92
-11.82
-13.87
-15.84
-17.36
-18.05
-17.60
-15.93
-13.12
-9.42
-5.09
-0.33
4.69
9.77
14.62
18.85
22.01
23.79
24.11
23.20
21.56
19.69
18.02
16.69
15.52
14.18
12.29
9.64
6.17
2.02
-2.60
-7.42
-12.14
-16.45
-20.06
-22.73
-24.40
-25.18
-25.33
-25.18
-25.03
-25.03
-25.11
-24.96
-24.11
-22.04
-18.38
-13.06
-6.37
1.07
8.45
14.98
20.04
23.29
24.71
24.53
23.13
20.97
18.46
15.94
13.68
11.87
10.61
9.96
9.83
10.06
10.42
10.68
10.67
10.29
9.51
8.33
6.71
4.61
2.06
-0.84
-3.91
-7.01
-10.11
-13.38
-17.07
-21.33
-25.96
-30.33
-33.48
-34.38
-32.32
-27.13
-19.28
-9.75
0.24
9.45
16.85
21.77
24.00
23.78
21.73
18.68
15.46
12.75
10.89
9.96
9.79
10.07
10.38
10.34
9.57
7.90
5.34
2.18
-1.17
-4.24
-6.71
-8.47
-9.65
-10.57
-11.61
-13.10
-15.15
-17.59
-19.97
-21.62
-21.87
-20.24
-16.63
-11.40
-5.22
1.15
7.07
12.18
16.34
19.49
21.56
22.45
22.11
20.67
18.47
15.97
13.57
11.51
9.82
8.39
7.07
5.76
4.43
3.06
1.64
0.20
-1.22
-2.56
-3.82
-5.09
-6.55
-8.47
-11.01
-14.15
-17.65
-21.05
-23.74
-25.12
-24.70
-22.29
-18.02
-12.37
-5.99
0.41
6.27
11.25
15.23
18.23
20.28
21.37
21.50
20.71
19.21
17.35
15.51
14.03
13.06
12.50
12.07
11.45
10.43
8.93
7.08
5.12
3.27
1.65
0.21
-1.20
-2.85
-4.97
-7.72
-11.08
-14.81
-18.43
-21.31
-22.78
-22.30
-19.63
-14.94
-8.77
-1.90
4.89
10.94
15.87
19.53
21.94
23.14
23.19
22.22
20.40
18.02
15.44
13.03
11.08
9.72
8.87
8.25
7.51
6.40
4.81
2.83
0.70
-1.37
-3.28
-5.10
-7.00
-9.20
-11.88
-15.06
-18.66
-22.40
-25.85
-28.42
-29.52
-28.72
-25.90
-21.37
-15.71
-9.67
-3.92
1.10
5.16
8.15
10.07
10.91
10.77
9.81
8.31
6.59
4.95
3.63
2.73
2.25
2.04
1.88
1.49
0.63
-0.78
-2.67
-4.83
-6.99
-8.98
-10.78
-12.49
-14.28
-16.30
-18.64
-21.28
-24.15
-27.01
-29.48
-31.04
-31.13
-29.38
-25.73
-20.51
-14.38
-8.09
-2.29
2.68
6.71
9.86
12.21
13.75
14.44
14.27
13.38
12.07
10.76
9.79
9.31
9.19
9.12
8.75
7.91
6.70
5.35
4.15
3.19
2.35
1.33
-0.18
-2.32
-5.08
-8.26
-11.61
-14.84
-17.62
-19.57
-20.22
-19.18
-16.24
-11.56
-5.62
0.87
7.17
12.72
17.19
20.44
22.52
23.50
23.52
22.75
21.41
19.76
18.03
16.47
15.17
14.16
13.30
12.42
11.35
9.97
8.28
6.30
4.12
1.76
-0.72
-3.28
-5.84
-8.37
-10.92
-13.60
-16.50
-19.48
-22.16
-23.89
-24.01
-22.10
-18.22
-12.84
-6.73
-0.60
5.08
10.10
14.42
18.00
20.68
22.30
22.79
22.27
21.11
19.79
18.72
18.11
17.92
17.92
17.79
17.27
16.22
14.62
12.57
10.22
7.74
5.26
2.84
0.47
-1.96
-4.60
-7.66
-11.25
-15.37
-19.77
-23.99
-27.40
-29.31
-29.25
-27.05
-22.98
-17.63
-11.74
-5.93
-0.59
4.23
8.63
12.72
16.45
19.60
21.86
23.06
23.26
22.80
22.18
21.83
21.88
22.14
22.17
21.51
19.89
17.39
14.30
11.02
7.84
4.86
2.01
-0.80
-3.60
-6.35
-8.99
-11.52
-14.05
-16.69
-19.40
-21.84
-23.39
-23.34
-21.16
-16.79
-10.67
-3.69
3.15
9.01
13.44
16.43
18.24
19.20
19.55
19.42
18.85
17.92
16.75
15.53
14.34
13.16
11.87
10.29
8.37
6.21
4.00
1.98
0.23
-1.29
-2.75
-4.30
-6.03
-7.87
-9.71
-11.45
-13.10
-14.75
-16.62
-18.88
-21.62
-24.70
-27.74
-30.13
-31.19
-30.33
-27.29
-22.24
-15.74
-8.64
-1.81
4.07
8.61
11.77
13.74
14.82
15.29
15.37
15.09
14.45
13.40
11.96
10.24
8.41
6.65
5.08
3.78
2.70
1.81
1.04
0.34
-0.39
-1.27
-2.43
-3.92
-5.71
-7.64
-9.55
-11.37
-13.13
-15.02
-17.21
-19.85
-22.94
-26.25
-29.41
-31.83
-32.93
-32.21
-29.50
-24.98
-19.23
-12.98
-6.90
-1.43
3.28
7.26
10.56
13.12
14.82
15.55
15.34
14.43
13.19
12.04
11.31
11.20
11.77
12.92
14.41
15.90
17.01
17.39
16.87
15.48
13.44
11.08
8.71
6.50
4.48
2.56
0.60
-1.57
-4.11
-7.12
-10.68
-14.71
-18.87
-22.60
-25.22
-26.11
-24.94
-21.82
-17.23
-11.90
-6.55
-1.70
2.43
5.85
8.68
11.04
13.01
14.62
15.93
16.99
17.85
18.47
18.80
18.71
18.11
16.99
15.39
13.41
11.10
8.52
5.75
2.89
0.11
-2.42
-4.61
-6.46
-8.04
-9.44
-10.72
-11.94
-13.21
-14.75
-16.82
-19.54
-22.76
-25.90
-28.10
-28.52
-26.65
-22.54
-16.79
-10.27
-3.86
1.87
6.65
10.46
13.31
15.15
15.91
15.56
14.21
12.14
9.75
7.44
5.48
3.95
2.84
2.03
1.42
0.93
0.47
-0.05
-0.74
-1.72
-3.01
-4.59
-6.41
-8.42
-10.60
-12.99
-15.60
-18.45
-21.51
-24.69
-27.85
-30.70
-32.83
-33.71
-32.84
-29.96
-25.13
-18.86
-11.93
-5.20
0.67
5.34
8.80
11.27
12.98
14.07
14.58
14.49
13.87
12.88
11.79
10.86
10.26
9.99
9.91
9.85
9.66
9.23
8.56
7.63
6.44
5.00
3.35
1.55
-0.35
-2.33
-4.43
-6.76
-9.31
-11.97
-14.35
-15.95
-16.23
-14.85
-11.81
-7.44
-2.30
3.02
8.03
12.38
15.85
18.27
19.52
19.51
18.32
16.24
13.71
11.27
9.37
8.20
7.68
7.48
7.23
6.61
5.52
4.08
2.53
1.13
0.00
-0.93
-1.87
-3.10
-4.82
-7.13
-9.98
-13.17
-16.36
-19.08
-20.82
-21.11
-19.68
-16.58
-12.16
-6.97
-1.61
3.46
7.93
11.64
14.53
16.51
17.55
17.69
17.08
15.99
14.74
13.59
12.74
12.23
11.95
11.68
11.12
10.06
8.40
6.26
3.86
1.42
-0.96
-3.32
-5.81
-8.60
-11.83
-15.51
-19.53
-23.60
-27.18
-29.52
-29.85
-27.60
-22.70
-15.68
-7.52
0.69
8.06
14.11
18.75
22.09
24.27
25.38
25.45
24.54
22.79
20.43
17.76
15.06
12.60
10.56
9.02
7.95
7.24
6.74
6.32
5.90
5.43
4.80
3.90
2.56
0.62
-2.04
-5.46
-9.51
-13.87
-18.05
-21.46
-23.45
-23.53
-21.50
-17.48
-11.95
-5.53
1.08
7.34
12.90
17.60
21.34
24.07
25.71
26.21
25.65
24.22
22.27
20.20
18.33
16.82
15.65
14.66
13.64
12.37
10.76
8.79
6.53
4.13
1.71
-0.64
-2.99
-5.44
-8.12
-11.11
-14.38
-17.77
-21.03
-23.81
-25.75
-26.49
-25.71
-23.30
-19.37
-14.29
-8.60
-2.90
2.34
6.85
10.52
13.39
15.48
16.77
17.24
16.87
15.76
14.10
12.18
10.30
8.63
7.20
5.90
4.56
3.00
1.19
-0.79
-2.83
-4.82
-6.73
-8.61
-10.52
-12.44
-14.35
-16.21
-18.08
-20.12
-22.50
-25.21
-27.90
-29.95
-30.55
-29.13
-25.48
-19.97
-13.39
-6.69
-0.65
4.26
7.93
10.45
11.98
12.64
12.49
11.65
10.28
8.67
7.10
5.76
4.73
3.94
3.29
2.66
2.01
1.35
0.64
-0.22
-1.43
-3.19
-5.58
-8.50
-11.68
-14.82
-17.81
-20.70
-23.68
-26.79
-29.65
-31.49
-31.33
-28.41
-22.54
-14.30
-4.83
4.47
12.38
18.15
21.57
22.90
22.72
21.76
20.67
19.96
19.76
19.93
20.13
20.04
19.55
18.79
17.97
17.26
16.59
15.69
14.20
11.89
8.77
5.09
1.21
-2.61
-6.38
-10.35
-14.89
-20.11
-25.73
-30.98
-34.78
-36.14
-34.55
-30.12
-23.60
-16.04
-8.45
-1.51
4.47
9.45
13.43
16.22
17.52
17.11
14.99
11.59
7.58
3.62
0.06
-3.18
-6.40
-9.75
-12.95
-15.24
-15.73
-13.93
-10.13
-5.40
-1.17
1.40
1.89
0.71
-1.23
-3.03
-4.26
-4.94
-5.32
-5.49
-5.07
-3.41
0.09
5.52
12.22
18.95
24.47
28.04
29.75
30.38
30.93
32.08
33.90
35.90
37.42
37.99
37.60
36.55
35.21
33.73
31.93
29.43
25.88
21.18
15.57
9.51
3.51
-2.08
-7.14
-11.67
-15.71
-19.15
-21.80
-23.48
-24.17
-24.15
-23.95
-24.14
-25.06
-26.62
-28.28
-29.32
-29.17
-27.73
-25.37
-22.77
-20.52
-18.83
-17.44
-15.79
-13.36
-9.90
-5.58
-0.87
3.65
7.44
10.17
11.69
12.05
11.47
10.34
9.06
8.00
7.35
7.08
6.99
6.82
6.43
5.80
5.05
4.29
3.52
2.60
1.31
-0.58
-3.05
-5.85
-8.40
-9.98
-9.91
-7.84
-3.85
1.46
7.18
12.34
16.22
18.57
19.61
19.81
19.68
19.43
18.96
17.85
15.64
12.04
7.10
1.25
-4.85
-10.50
-15.19
-18.61
-20.72
-21.64
-21.56
-20.70
-19.28
-17.58
-15.80
-14.15
-12.80
-11.94
-11.87
-12.98
-15.67
-20.08
-25.80
-31.87
-36.95
-39.84
-39.91
-37.35
-32.98
-27.77
-22.36
-16.78
-10.61
-3.43
4.74
13.29
21.13
27.20
30.84
32.06
31.39
29.61
27.32
24.74
21.85
18.56
15.02
11.71
9.23
8.03
8.10
8.99
9.98
10.43
10.05
8.93
7.39
5.71
4.05
2.40
0.85
-0.36
-0.79
0.08
2.58
6.72
12.12
18.16
24.14
29.52
33.97
37.37
39.75
41.16
41.68
41.39
40.37
38.65
36.24
33.15
29.44
25.27
20.98
16.95
13.55
10.93
8.99
7.40
5.69
3.45
0.46
-3.33
-7.76
-12.62
-17.69
-22.80
-27.86
-32.77
-37.29
-41.02
-43.42
-43.94
-42.24
-38.36
-32.76
-26.16
-19.34
-12.89
-7.14
-2.16
2.10
5.76
8.88
11.49
13.64
15.37
16.71
17.68
18.28
18.54
18.56
18.43
18.26
18.06
17.83
17.51
17.12
16.66
16.08
15.26
13.95
11.92
9.05
5.38
1.13
-3.47
-8.27
-13.24
-18.36
-23.46
-28.10
-31.63
-33.36
-32.79
-29.86
-24.94
-18.74
-12.11
-5.82
-0.43
3.77
6.67
8.34
8.95
8.72
7.91
6.80
5.65
4.73
4.17
4.03
4.19
4.47
4.65
4.57
4.19
3.55
2.74
1.79
0.66
-0.74
-2.43
-4.35
-6.42
-8.58
-10.90
-13.55
-16.62
-20.00
-23.25
-25.68
-26.60
-25.57
-22.58
-18.07
-12.69
-7.15
-1.97
2.50
6.09
8.71
10.33
10.97
10.71
9.70
8.16
6.32
4.45
2.76
1.45
0.60
0.12
-0.24
-0.76
-1.68
-3.05
-4.69
-6.37
-7.90
-9.33
-10.86
-12.74
-15.06
-17.75
-20.60
-23.39
-25.97
-28.25
-30.10
-31.24
-31.29
-29.83
-26.68
-21.99
-16.22
-10.06
-4.11
1.18
5.62
9.16
11.76
13.30
13.67
12.85
11.06
8.75
6.56
5.03
4.45
4.72
5.50
6.34
6.88
6.95
6.55
5.79
4.84
3.79
2.72
1.61
0.42
-1.00
-2.79
-5.07
-7.86
-11.01
-14.15
-16.76
-18.23
-18.03
-15.90
-11.98
-6.81
-1.18
4.07
8.28
11.11
12.49
12.58
11.58
9.73
7.29
4.60
2.02
-0.09
-1.46
-2.05
-2.03
-1.77
-1.60
-1.76
-2.27
-3.02
-3.79
-4.46
-5.02
-5.59
-6.37
-7.58
-9.38
-11.83
-14.82
-17.97
-20.67
-22.14
-21.69
-18.96
-14.09
-7.72
-0.69
6.15
12.21
17.20
21.03
23.69
25.17
25.49
24.75
23.21
21.21
19.15
17.33
15.88
14.73
13.66
12.33
10.48
7.98
4.88
1.42
-2.08
-5.42
-8.55
-11.68
-15.13
-19.23
-24.15
-29.81
-35.81
-41.48
-46.02
-48.63
-48.74
-46.12
-40.99
-33.98
-25.95
-17.81
-10.26
-3.71
1.73
6.14
9.69
12.53
14.77
16.56
18.07
19.55
21.20
23.15
25.32
27.46
29.16
30.08
30.05
29.20
27.91
26.63
25.71
25.22
24.95
24.53
23.56
21.75
18.99
15.34
11.06
6.63
2.68
-0.09
-1.10
-0.12
2.65
6.63
11.08
15.34
18.97
21.77
23.65
24.51
24.24
22.76
20.11
16.54
12.42
8.20
4.26
0.79
-2.17
-4.71
-6.95
-8.92
-10.58
-11.82
-12.52
-12.73
-12.59
-12.38
-12.36
-12.74
-13.57
-14.87
-16.60
-18.69
-21.00
-23.21
-24.80
-25.09
-23.52
-19.83
-14.20
-7.21
0.33
7.61
14.01
19.14
22.86
25.15
26.07
25.79
24.53
22.56
20.18
17.67
15.24
13.08
11.27
9.79
8.50
7.18
5.64
3.76
1.58
-0.74
-3.05
-5.30
-7.55
-9.93
-12.56
-15.48
-18.65
-21.99
-25.39
-28.69
-31.60
-33.64
-34.21
-32.73
-28.90
-22.87
-15.21
-6.86
1.24
8.34
14.03
18.14
20.71
21.79
21.48
19.96
17.60
14.95
12.61
11.16
10.92
11.88
13.77
16.11
18.39
20.10
20.83
20.33
18.50
15.41
11.36
6.75
2.03
-2.43
-6.48
-10.18
-13.69
-17.12
-20.32
-22.89
-24.24
-23.81
-21.33
-16.97
-11.22
-4.83
1.49
7.15
11.77
15.14
17.13
17.72
17.02
15.32
13.13
11.06
9.65
9.22
9.72
10.73
11.66
11.97
11.36
9.83
7.62
5.04
2.34
-0.33
-2.89
-5.28
-7.47
-9.50
-11.56
-13.94
-16.90
-20.43
-24.18
-27.44
-29.37
-29.31
-27.02
-22.70
-16.96
-10.56
-4.22
1.53
6.35
10.08
12.60
13.89
14.02
13.21
11.80
10.22
8.79
7.68
6.85
6.10
5.15
3.84
2.13
0.15
-1.88
-3.77
-5.40
-6.79
-8.11
-9.61
-11.54
-14.06
-17.19
-20.74
-24.34
-27.49
-29.60
-30.20
-28.98
-25.90
-21.22
-15.41
-9.09
-2.79
3.03
8.05
12.05
14.88
16.42
16.69
15.84
14.20
12.23
10.36
8.96
8.12
7.79
7.75
7.75
7.63
7.34
6.90
6.36
5.71
4.87
3.71
2.09
-0.08
-2.82
-6.05
-9.54
-12.92
-15.66
-17.14
-16.84
-14.49
-10.23
-4.64
1.46
7.23
12.07
15.70
18.15
19.58
20.12
19.87
18.87
17.25
15.27
13.24
11.44
9.98
8.76
7.58
6.27
4.79
3.23
1.75
0.44
-0.68
-1.78
-3.03
-4.66
-6.80
-9.55
-12.90
-16.71
-20.64
-24.13
-26.49
-27.08
-25.59
-22.11
-17.13
-11.39
-5.54
-0.06
4.85
9.13
12.69
15.39
17.04
17.56
17.05
15.81
14.23
12.67
11.29
10.11
9.00
7.82
6.48
4.98
3.41
1.86
0.47
-0.69
-1.65
-2.52
-3.52
-4.89
-6.87
-9.56
-12.92
-16.68
-20.38
-23.42
-25.19
-25.17
-23.17
-19.32
-14.08
-8.17
-2.29
2.98
7.32
10.68
13.19
14.98
16.15
16.69
16.55
15.74
14.42
12.85
11.33
10.04
8.97
7.99
6.88
5.54
3.98
2.32
0.67
-0.92
-2.52
-4.25
-6.19
-8.35
-10.68
-13.14
-15.75
-18.60
-21.73
-24.99
-27.97
-30.02
-30.47
-28.88
-25.23
-19.95
-13.79
-7.56
-1.85
3.00
6.94
10.06
12.44
14.13
15.14
15.49
15.24
14.56
13.64
12.72
11.96
11.44
11.07
10.69
10.11
9.20
7.98
6.58
5.15
3.83
2.64
1.51
0.32
-1.00
-2.51
-4.22
-6.17
-8.44
-11.07
-13.94
-16.67
-18.61
-19.05
-17.47
-13.77
-8.36
-2.00
4.46
10.38
15.48
19.76
23.33
26.24
28.40
29.72
30.19
29.99
29.41
28.76
28.19
27.72
27.24
26.63
25.76
24.58
23.10
21.33
19.31
17.10
14.75
12.27
9.64
6.77
3.62
0.22
-3.38
-7.10
-10.94
-14.87
-18.79
-22.41
-25.17
-26.42
-25.67
-22.79
-18.12
-12.36
-6.34
-0.72
4.07
7.91
10.80
12.84
14.10
14.70
14.78
14.51
14.04
13.48
12.84
12.10
11.24
10.26
9.22
8.17
7.13
6.05
4.83
3.37
1.60
-0.42
-2.58
-4.75
-6.81
-8.75
-10.69
-12.79
-15.27
-18.21
-21.51
-24.84
-27.63
-29.27
-29.25
-27.40
-23.95
-19.40
-14.36
-9.32
-4.59
-0.27
3.58
6.85
9.38
11.03
11.74
11.68
11.10
10.29
9.45
8.64
7.83
6.96
6.03
5.06
4.12
3.24
2.41
1.55
0.52
-0.75
-2.31
-4.12
-6.09
-8.09
-10.07
-11.96
-13.78
-15.54
-17.31
-19.15
-21.11
-23.19
-25.25
-27.05
-28.17
-28.17
-26.68
-23.52
-18.83
-13.06
-6.81
-0.71
4.73
9.26
12.79
15.35
17.05
17.91
18.03
17.51
16.56
15.43
14.32
13.32
12.38
11.37
10.21
8.90
7.53
6.21
5.01
3.88
2.72
1.43
0.04
-1.34
-2.55
-3.49
-4.16
-4.72
-5.42
-6.54
-8.27
-10.63
-13.39
-16.05
-17.95
-18.40
-16.94
-13.48
-8.35
-2.16
4.35
10.55
16.03
20.55
24.06
26.53
27.98
28.46
28.09
27.06
25.55
23.71
21.61
19.29
16.76
14.10
11.41
8.82
6.35
3.95
1.53
-1.04
-3.74
-6.51
-9.20
-11.74
-14.11
-16.34
-18.44
-20.36
-22.01
-23.38
-24.55
-25.69
-26.89
-28.00
-28.59
-28.01
-25.75
-21.63
-15.95
-9.43
-2.88
2.98
7.76
11.35
13.85
15.41
16.16
16.21
15.73
14.92
13.98
13.07
12.23
11.43
10.58
9.66
8.69
7.78
6.99
6.34
5.72
4.96
3.97
2.71
1.27
-0.25
-1.74
-3.18
-4.68
-6.40
-8.57
-11.40
-14.95
-19.04
-23.23
-26.81
-29.01
-29.26
-27.29
-23.34
-18.01
-12.12
-6.45
-1.55
2.27
4.96
6.59
7.31
7.30
6.78
5.99
5.14
4.41
3.87
3.53
3.31
3.16
3.04
2.94
2.88
2.83
2.77
2.63
2.33
1.81
0.99
-0.18
-1.77
-3.81
-6.29
-9.15
-12.29
-15.59
-18.89
-21.96
-24.46
-25.96
-26.06
-24.42
-20.92
-15.77
-9.44
-2.66
3.78
9.19
13.09
15.34
16.13
15.84
14.95
13.83
12.72
11.72
10.86
10.22
9.88
9.92
10.32
10.89
11.35
11.43
10.97
10.00
8.69
7.26
5.86
4.47
2.96
1.13
-1.16
-3.96
-7.23
-10.88
-14.82
-18.88
-22.78
-26.04
-28.03
-28.14
-26.03
-21.76
-15.86
-9.15
-2.47
3.54
8.57
12.58
15.68
18.01
19.65
20.64
20.95
20.64
19.80
18.62
17.28
15.98
14.83
13.81
12.83
11.76
10.51
9.03
7.37
5.60
3.77
1.87
-0.16
-2.39
-4.88
-7.64
-10.72
-14.07
-17.58
-20.98
-23.81
-25.48
-25.46
-23.43
-19.41
-13.84
-7.45
-1.00
4.84
9.68
13.34
15.84
17.25
17.62
17.05
15.68
13.75
11.59
9.53
7.78
6.42
5.36
4.46
3.53
2.50
1.33
0.07
-1.24
-2.59
-3.96
-5.36
-6.75
-8.07
-9.28
-10.44
-11.66
-13.13
-14.95
-17.03
-18.98
-20.22
-20.16
-18.44
-15.11
-10.57
-5.47
-0.41
4.16
8.00
10.97
12.97
13.88
13.67
12.44
10.47
8.18
5.98
4.18
2.91
2.08
1.54
1.07
0.54
-0.15
-0.98
-1.92
-2.93
-3.99
-5.14
-6.45
-7.94
-9.63
-11.50
-13.49
-15.57
-17.64
-19.47
-20.71
-20.86
-19.45
-16.24
-11.31
-5.17
1.47
7.86
13.50
18.12
21.66
24.10
25.37
25.41
24.30
22.34
20.02
17.91
16.36
15.44
14.89
14.32
13.39
11.97
10.12
8.07
6.04
4.17
2.48
0.90
-0.70
-2.49
-4.62
-7.22
-10.30
-13.67
-16.92
-19.40
-20.47
-19.64
-16.84
-12.41
-7.03
-1.45
3.71
8.14
11.74
14.50
16.45
17.55
17.76
17.15
15.88
14.25
12.59
11.16
10.12
9.47
9.09
8.76
8.26
7.42
6.18
4.58
2.71
0.67
-1.49
-3.80
-6.31
-9.10
-12.20
-15.49
-18.70
-21.33
-22.80
-22.54
-20.27
-16.07
-10.43
-4.11
2.10
7.59
12.02
15.31
17.47
18.59
18.71
17.97
16.57
14.85
13.16
11.82
10.94
10.41
9.97
9.27
8.08
6.30
4.02
1.52
-0.90
-3.03
-4.80
-6.33
-7.88
-9.74
-12.11
-15.03
-18.40
-21.98
-25.39
-28.21
-29.96
-30.23
-28.78
-25.59
-20.90
-15.18
-9.02
-2.99
2.40
6.82
10.12
12.30
13.47
13.82
13.54
12.83
11.89
10.92
10.12
9.63
9.44
9.39
9.18
8.53
7.26
5.39
3.08
0.62
-1.74
-3.85
-5.68
-7.33
-8.95
-10.69
-12.70
-14.99
-17.47
-19.90
-21.89
-22.98
-22.69
-20.72
-17.04
-11.96
-6.10
-0.15
5.24
9.66
12.95
15.15
16.38
16.75
16.39
15.43
14.09
12.62
11.31
10.33
9.75
9.48
9.31
9.03
8.46
7.54
6.35
5.06
3.84
2.76
1.75
0.62
-0.84
-2.77
-5.18
-7.99
-11.04
-14.06
-16.73
-18.63
-19.27
-18.25
-15.35
-10.69
-4.72
1.87
8.37
14.18
18.93
22.48
24.82
26.07
26.40
26.03
25.21
24.18
23.08
22.04
21.07
20.18
19.36
18.55
17.65
16.52
15.03
13.11
10.83
8.34
5.79
3.26
0.73
-1.89
-4.71
-7.75
-11.02
-14.42
-17.77
-20.73
-22.84
-23.57
-22.58
-19.80
-15.58
-10.55
-5.37
-0.56
3.65
7.25
10.27
12.70
14.43
15.37
15.54
15.12
14.41
13.68
13.11
12.67
12.26
11.73
11.03
10.15
9.13
7.97
6.60
4.94
3.01
0.88
-1.25
-3.21
-4.91
-6.45
-8.07
-10.05
-12.64
-15.88
-19.57
-23.22
-26.19
-27.82
-27.61
-25.38
-21.34
-15.99
-10.00
-4.03
1.42
6.06
9.78
12.61
14.58
15.76
16.21
16.01
15.35
14.44
13.52
12.77
12.20
11.69
11.04
10.14
8.99
7.74
6.58
5.58
4.62
3.48
1.92
-0.12
-2.54
-5.08
-7.51
-9.67
-11.57
-13.30
-15.01
-16.86
-18.98
-21.47
-24.30
-27.24
-29.84
-31.54
-31.78
-30.23
-26.92
-22.18
-16.57
-10.66
-4.94
0.25
4.72
8.33
10.99
12.66
13.35
13.20
12.47
11.49
10.58
9.94
9.57
9.36
9.08
8.58
7.79
6.82
5.82
4.89
4.02
3.08
1.88
0.27
-1.72
-3.89
-5.96
-7.66
-8.88
-9.71
-10.44
-11.38
-12.83
-14.95
-17.70
-20.81
-23.78
-25.99
-26.83
-25.89
-23.07
-18.69
-13.33
-7.64
-2.20
2.69
6.91
10.45
13.30
15.44
16.87
17.65
17.94
17.93
17.78
17.53
17.21
16.81
16.43
16.17
16.10
16.16
16.16
15.84
15.00
13.61
11.77
9.68
7.52
5.37
3.26
1.20
-0.81
-2.80
-4.83
-7.08
-9.74
-12.92
-16.53
-20.20
-23.32
-25.22
-25.31
-23.37
-19.57
-14.45
-8.74
-3.14
1.86
6.02
9.33
11.83
13.60
14.68
15.13
15.11
14.81
14.45
14.17
13.95
13.67
13.16
12.35
11.26
10.03
8.80
7.66
6.57
5.39
3.97
2.21
0.12
-2.18
-4.50
-6.66
-8.54
-10.18
-11.77
-13.59
-15.91
-18.81
-22.13
-25.42
-28.01
-29.19
-28.49
-25.77
-21.32
-15.73
-9.71
-3.89
1.33
5.75
9.34
12.13
14.16
15.45
16.04
16.01
15.50
14.65
13.60
12.51
11.50
10.66
10.00
9.49
9.00
8.39
7.50
6.23
4.50
2.32
-0.30
-3.22
-6.26
-9.16
-11.70
-13.79
-15.53
-17.17
-19.03
-21.38
-24.30
-27.58
-30.73
-33.05
-33.84
-32.59
-29.16
-23.91
-17.50
-10.80
-4.55
0.80
5.06
8.32
10.73
12.47
13.66
14.42
14.87
15.14
15.33
15.49
15.61
15.61
15.41
14.93
14.15
13.17
12.07
10.94
9.74
8.33
6.53
4.21
1.42
-1.68
-4.86
-7.95
-10.89
-13.75
-16.68
-19.85
-23.35
-27.14
-30.98
-34.40
-36.66
-37.01
-34.81
-29.86
-22.45
-13.41
-3.81
5.24
12.87
18.53
22.07
23.66
23.74
22.93
21.90
21.24
21.35
22.44
24.43
27.09
29.99
32.57
34.21
34.27
32.29
28.05
21.80
14.12
5.89
-1.95
-8.65
-13.76
-17.20
-19.23
-20.34
-21.15
-22.20
-23.90
-26.33
-29.22
-31.97
-33.79
-33.91
-31.79
-27.34
-20.94
-13.34
-5.49
1.76
7.86
12.59
16.07
18.55
20.31
21.48
22.12
22.24
21.86
21.11
20.08
18.91
17.66
16.42
15.28
14.33
13.65
13.20
12.85
12.35
11.46
10.00
7.92
5.26
2.10
-1.45
-5.37
-9.63
-14.14
-18.70
-22.93
-26.29
-28.21
-28.23
-26.11
-21.98
-16.24
-9.48
-2.36
4.49
10.58
15.55
19.16
21.34
22.15
21.77
20.50
18.72
16.80
15.06
13.72
12.82
12.27
11.88
11.46
10.82
9.88
8.61
7.02
5.14
3.00
0.64
-1.83
-4.34
-6.82
-9.33
-12.12
-15.42
-19.42
-23.94
-28.44
-32.05
-33.85
-33.18
-29.89
-24.36
-17.43
-10.02
-2.95
3.22
8.24
12.06
14.74
16.38
17.16
17.28
16.96
16.43
15.83
15.22
14.61
13.98
13.27
12.46
11.50
10.31
8.85
7.09
5.05
2.81
0.44
-1.99
-4.48
-7.06
-9.77
-12.66
-15.76
-19.09
-22.62
-26.22
-29.62
-32.34
-33.80
-33.48
-31.10
-26.74
-20.88
-14.20
-7.42
-1.10
4.41
8.96
12.50
15.03
16.56
17.17
17.03
16.38
15.47
14.52
13.64
12.86
12.16
11.47
10.75
9.98
9.15
8.22
7.14
5.86
4.31
2.49
0.44
-1.75
-3.97
-6.19
-8.39
-10.66
-13.19
-16.17
-19.72
-23.75
-27.85
-31.32
-33.30
-33.09
-30.40
-25.47
-18.97
-11.82
-4.83
1.45
6.77
11.07
14.42
16.87
18.50
19.39
19.64
19.39
18.78
17.93
16.96
15.98
15.04
14.16
13.29
12.37
11.28
9.96
8.41
6.69
4.92
3.26
1.83
0.69
-0.21
-1.03
-2.04
-3.59
-5.96
-9.31
-13.45
-17.81
-21.52
-23.62
-23.35
-20.46
-15.24
-8.47
-1.14
5.88
11.99
16.89
20.56
23.05
24.46
24.91
24.53
23.48
21.99
20.29
18.57
16.96
15.53
14.29
13.24
12.34
11.54
10.73
9.78
8.57
7.05
5.22
3.19
1.08
-1.08
-3.35
-5.95
-9.13
-13.09
-17.79
-22.86
-27.61
-31.17
-32.72
-31.73
-28.16
-22.44
-15.36
-7.82
-0.65
5.56
10.46
13.98
16.22
17.39
17.74
17.54
16.99
16.24
15.32
14.23
12.99
11.68
10.41
9.34
8.50
7.76
6.87
5.57
3.72
1.38
-1.23
-3.83
-6.19
-8.22
-9.99
-11.61
-13.30
-15.30
-17.86
-21.10
-24.86
-28.61
-31.50
-32.62
-31.31
-27.50
-21.65
-14.62
-7.32
-0.51
5.36
10.07
13.57
15.89
17.16
17.55
17.32
16.71
15.90
14.96
13.93
12.78
11.54
10.21
8.78
7.28
5.69
4.04
2.33
0.57
-1.28
-3.29
-5.53
-7.98
-10.57
-13.15
-15.60
-17.88
-20.10
-22.42
-24.96
-27.63
-30.06
-31.66
-31.76
-29.90
-25.99
-20.39
-13.78
-6.90
-0.36
5.49
10.51
14.62
17.75
19.79
20.70
20.57
19.64
18.24
16.70
15.25
14.02
13.05
12.32
11.81
11.38
10.85
10.03
8.75
6.99
4.85
2.52
0.18
-2.00
-3.99
-5.81
-7.59
-9.53
-11.88
-14.81
-18.25
-21.79
-24.68
-25.97
-24.93
-21.27
-15.31
-7.89
-0.04
7.32
13.62
18.60
22.29
24.80
26.26
26.80
26.59
25.82
24.69
23.42
22.15
20.98
19.96
19.06
18.19
17.24
16.08
14.65
12.97
11.12
9.21
7.32
5.41
3.41
1.20
-1.31
-4.17
-7.37
-10.87
-14.57
-18.27
-21.59
-24.00
-24.92
-23.90
-20.77
-15.74
-9.39
-2.45
4.30
10.31
15.21
18.85
21.23
22.48
22.77
22.35
21.42
20.17
18.76
17.32
15.95
14.74
13.75
12.91
12.07
11.03
9.60
7.73
5.47
2.99
0.44
-2.08
-4.57
-7.02
-9.50
-12.10
-14.94
-18.17
-21.88
-25.90
-29.79
-32.80
-34.16
-33.24
-29.86
-24.34
-17.39
-9.91
-2.74
3.52
8.61
12.49
15.30
17.17
18.21
18.51
18.18
17.39
16.30
15.06
13.78
12.52
11.34
10.28
9.35
8.50
7.57
6.33
4.60
2.35
-0.23
-2.87
-5.35
-7.59
-9.76
-12.13
-14.93
-18.28
-22.13
-26.26
-30.29
-33.71
-35.95
-36.45
-34.81
-30.94
-25.16
-18.10
-10.58
-3.35
3.07
8.42
12.66
15.85
18.07
19.38
19.85
19.60
18.80
17.67
16.40
15.14
13.97
12.93
12.05
11.31
10.61
9.79
8.65
6.99
4.76
2.01
-1.04
-4.11
-6.97
-9.55
-11.88
-14.14
-16.51
-19.14
-22.09
-25.23
-28.25
-30.66
-31.89
-31.44
-29.00
-24.60
-18.60
-11.59
-4.29
2.62
8.66
13.53
17.18
19.70
21.24
21.97
21.98
21.39
20.33
19.00
17.65
16.53
15.71
15.15
14.65
13.95
12.88
11.38
9.56
7.56
5.53
3.54
1.64
-0.21
-2.03
-3.91
-5.96
-8.31
-11.10
-14.26
-17.54
-20.42
-22.21
-22.26
-20.21
-16.07
-10.31
-3.68
3.04
9.15
14.24
18.18
20.99
22.74
23.49
23.31
22.34
20.84
19.17
17.73
16.78
16.32
16.12
15.78
14.94
13.43
11.30
8.77
6.11
3.51
1.00
-1.42
-3.79
-6.11
-8.39
-10.66
-13.04
-15.72
-18.82
-22.33
-25.94
-29.05
-30.91
-30.84
-28.40
-23.66
-17.07
-9.46
-1.73
5.35
11.30
15.91
19.25
21.49
22.77
23.21
22.90
21.93
20.40
18.51
16.45
14.45
12.66
11.12
9.79
8.50
7.08
5.34
3.22
0.70
-2.13
-5.11
-8.10
-10.96
-13.62
-16.06
-18.37
-20.71
-23.29
-26.24
-29.53
-32.84
-35.52
-36.77
-35.88
-32.50
-26.81
-19.51
-11.58
-4.00
2.52
7.64
11.36
13.87
15.42
16.25
16.52
16.39
15.97
15.34
14.55
13.62
12.57
11.44
10.28
9.15
8.03
6.84
5.46
3.77
1.73
-0.55
-2.89
-5.09
-7.08
-8.89
-10.65
-12.56
-14.78
