1564575070.00
64.000000
-0.00
-0.00
-0.00
-0.00
-0.00
-0.00
-0.00
-0.00
-0.00
-0.00
0.00
0.01
0.01
-0.00
-0.03
-0.05
-0.05
0.00
0.13
0.36
0.66
1.01
1.37
1.72
2.06
2.40
2.79
3.24
3.80
4.43
5.09
5.72
6.31
6.87
7.45
8.14
8.99
10.10
11.38
12.74
14.06
15.29
16.47
17.74
19.29
21.25
23.83
26.85
30.08
33.25
36.20
39.01
41.98
45.54
50.00
55.77
62.51
69.76
76.96
83.77
90.26
96.88
104.32
113.13
123.87
136.09
149.07
162.01
174.35
186.10
197.80
210.72
223.52
238.51
256.38
277.41
300.52
322.84
339.93
346.96
340.37
319.19
285.86
244.41
199.44
154.37
110.71
68.49
27.22
-13.18
-52.15
-88.40
-121.40
-151.23
-178.54
-204.14
-228.53
-251.62
-272.88
-291.93
-309.03
-325.64
-343.58
-363.68
-385.00
-404.51
-417.89
-421.31
-413.17
-394.65
-369.18
-340.52
-311.14
-281.87
-252.51
-223.26
-195.42
-170.98
-151.25
-135.81
-122.43
-108.23
-91.55
-72.90
-54.76
-40.14
-30.73
-25.72
-22.32
-17.30
-8.88
2.12
12.81
20.01
22.24
20.61
18.32
18.73
23.38
31.09
38.51
42.29
41.07
36.43
31.97
30.97
34.54
40.80
46.05
46.99
42.69
35.16
28.25
25.39
27.53
32.70
36.97
36.97
31.86
23.87
17.02
14.68
17.67
23.76
28.95
29.71
25.11
17.34
10.50
8.14
11.17
17.40
22.81
24.05
20.36
14.01
8.88
8.02
11.88
18.04
22.61
22.59
17.68
10.39
4.63
3.31
6.78
12.70
17.34
17.70
13.19
5.87
-0.61
-3.02
-0.32
5.68
11.45
13.69
11.21
5.54
0.01
-2.32
-0.34
4.41
8.69
9.47
5.78
-0.64
-6.28
-7.99
-4.97
0.65
4.95
4.55
-1.32
-10.24
-17.93
-20.62
-17.28
-10.19
-3.64
-1.55
-5.21
-12.53
-19.34
-21.81
-18.68
-12.02
-5.95
-4.12
-7.50
-13.72
-18.51
-18.33
-12.55
-4.00
2.73
3.96
-0.82
-8.60
-14.67
-15.28
-9.75
-0.83
6.89
9.61
6.32
-0.60
-6.89
-8.83
-5.32
1.51
7.55
9.21
5.53
-1.27
-6.97
-7.89
-3.01
5.36
12.91
15.83
13.05
6.81
1.23
-0.20
3.37
9.75
15.10
16.34
12.93
7.13
2.54
1.84
5.31
10.74
14.81
15.10
11.42
5.96
1.96
1.90
6.14
12.71
18.42
20.55
18.38
13.47
8.79
7.01
9.02
13.37
17.15
17.79
14.52
8.93
4.06
2.60
5.25
10.37
14.70
15.30
11.30
4.50
-1.51
-3.48
-0.44
5.60
10.84
12.00
8.39
2.32
-2.25
-2.17
3.02
10.57
16.15
16.35
10.68
2.04
-5.06
-7.05
-3.39
3.24
8.52
9.19
4.86
-1.81
-6.75
-7.11
-2.85
3.17
7.05
6.24
1.16
-5.12
-8.75
-7.30
-1.26
6.24
11.09
10.54
4.69
-3.50
-9.86
-11.33
-7.57
-1.18
3.87
4.64
0.93
-4.59
-8.10
-7.00
-1.51
5.42
9.81
9.25
4.29
-1.83
-5.12
-3.22
3.26
10.98
15.80
15.04
9.00
0.85
-5.21
-6.21
-2.05
4.51
9.43
9.77
5.32
-1.18
-5.81
-5.85
-1.36
4.85
9.03
8.58
3.69
-2.81
-7.12
-6.85
-2.30
3.72
7.56
6.82
1.79
-4.75
-9.14
-8.86
-4.02
2.61
7.30
7.43
3.08
-3.04
-7.20
-6.90
-2.30
3.89
8.03
7.73
3.10
-3.17
-7.59
-7.75
-3.91
1.39
4.86
4.44
0.52
-4.39
-7.14
-5.80
-0.85
5.06
8.69
8.06
3.69
-1.69
-4.76
-3.48
1.68
7.96
11.93
11.41
6.79
0.82
-2.97
-2.49
1.75
6.87
9.40
7.28
1.21
-5.77
-9.96
-9.14
-3.89
2.75
7.10
6.94
2.72
-2.77
-6.12
-5.24
-0.58
5.17
8.69
8.00
3.61
-1.77
-4.92
-4.02
0.29
5.26
7.66
5.64
-0.08
-6.68
-10.68
-10.02
-5.15
1.22
5.64
5.90
2.25
-2.73
-5.76
-4.74
-0.12
5.40
8.45
7.07
1.91
-4.08
-7.33
-5.69
0.21
7.31
11.80
11.28
6.14
-0.67
-5.32
-5.34
-0.97
4.93
8.56
7.37
1.65
-5.55
-10.23
-9.78
-4.61
2.16
6.57
6.15
1.34
-4.80
-8.51
-7.56
-2.57
3.48
6.97
5.93
1.10
-4.57
-7.79
-6.77
-2.23
2.98
5.59
3.74
-1.92
-8.55
-12.68
-12.14
-7.31
-0.83
3.86
4.44
1.09
-3.65
-6.27
-4.41
1.50
8.46
12.50
11.14
4.96
-2.57
-7.17
-6.27
-0.61
6.16
9.76
7.84
1.51
-5.45
-8.94
-7.12
-1.37
4.58
7.11
4.80
-0.81
-6.34
-8.60
-6.42
-1.27
3.68
5.50
3.14
-1.87
-6.41
-7.44
-3.75
3.26
10.37
14.07
12.58
6.72
-0.43
-5.27
-5.64
-1.92
3.19
6.25
5.02
-0.30
-7.33
-12.71
-13.93
-10.64
-4.68
0.98
4.02
4.06
2.68
2.17
3.94
7.38
10.21
9.94
5.47
-1.95
-9.15
-12.66
-10.63
-3.78
4.86
11.43
13.30
10.39
5.03
0.52
-0.83
1.02
3.97
5.29
3.48
-0.64
-4.34
-4.86
-1.24
4.87
10.05
11.20
7.45
0.82
-5.00
-6.68
-3.21
3.59
10.05
12.66
9.85
2.77
-5.31
-10.71
-11.23
-7.18
-1.15
3.42
4.08
0.80
-4.19
-7.64
-7.33
-3.23
2.35
6.23
6.17
2.29
-2.93
-6.21
-5.38
-0.77
4.88
8.12
6.73
1.21
-5.57
-9.89
-9.30
-3.96
3.36
8.76
9.25
4.30
-3.85
-11.57
-15.70
-15.35
-12.07
-8.74
-7.59
-8.82
-10.50
-9.90
-5.50
1.94
9.52
13.84
12.93
7.48
0.61
-3.87
-3.40
1.91
9.40
15.34
16.90
13.61
7.40
1.32
-2.23
-2.70
-1.37
-0.28
-0.75
-2.53
-4.06
-3.59
-0.60
3.75
7.10
7.19
3.35
-2.93
-8.64
-10.75
-7.94
-1.38
5.73
9.97
9.34
4.52
-1.71
-6.00
-6.36
-3.22
0.97
3.33
2.26
-1.66
-5.99
-8.00
-6.32
-1.78
3.01
5.20
3.36
-1.51
-6.54
-8.53
-5.95
0.11
6.51
9.71
7.90
2.16
-4.24
-7.72
-6.44
-1.34
4.50
7.87
7.10
3.03
-1.66
-4.18
-3.19
0.43
4.19
5.49
3.24
-1.45
-5.90
-7.42
-4.90
0.52
6.00
8.53
6.49
0.56
-6.47
-11.19
-11.30
-6.81
-0.10
5.34
6.84
4.09
-0.80
-4.51
-4.58
-0.91
4.18
7.35
6.39
1.47
-4.69
-8.64
-8.14
-3.55
2.40
6.35
6.33
2.86
-1.56
-4.07
-3.21
0.34
4.18
5.67
3.56
-1.35
-6.37
-8.54
-6.33
-0.52
6.03
9.99
9.44
4.81
-1.36
-5.90
-6.75
-4.00
0.32
3.42
3.52
0.86
-2.43
-3.74
-1.63
3.15
7.88
9.51
6.58
0.24
-6.12
-8.85
-6.12
0.91
8.53
12.64
11.13
5.10
-1.75
-5.35
-3.78
1.61
6.99
8.46
4.56
-2.98
-10.09
-12.74
-9.29
-1.56
6.21
9.60
6.62
-1.15
-9.42
-13.65
-11.60
-4.56
3.36
7.73
6.23
-0.05
-7.31
-11.29
-9.69
-3.49
3.54
7.12
4.99
-1.82
-9.46
-13.60
-11.83
-5.04
3.17
8.55
8.81
4.61
-0.83
-3.84
-2.46
2.40
7.61
9.88
7.80
2.75
-2.03
-3.50
-0.74
4.60
9.24
10.35
7.20
1.63
-3.11
-4.25
-1.23
3.96
7.81
7.39
2.11
-5.78
-12.33
-14.18
-10.31
-2.59
5.17
9.30
8.23
3.24
-2.26
-4.79
-2.85
2.29
7.24
8.78
5.69
-0.34
-5.82
-7.45
-4.12
2.45
8.67
11.09
8.38
2.01
-4.55
-7.84
-6.27
-0.93
5.07
8.38
7.14
2.05
-3.99
-7.46
-6.27
-0.97
5.54
9.80
9.82
6.32
2.33
1.29
4.91
11.99
19.05
22.51
20.69
14.93
8.79
5.80
7.52
12.83
18.70
22.12
21.91
19.35
17.38
18.75
24.29
32.31
39.58
43.17
42.13
38.08
34.29
34.01
38.61
46.77
55.01
59.36
57.34
49.03
36.85
24.15
13.53
5.71
-0.37
-6.43
-13.48
-20.99
-26.98
-29.37
-27.43
-22.60
-18.04
-17.17
-21.95
-31.96
-44.67
-56.85
-66.29
-73.00
-79.09
-87.60
-100.76
-118.78
-139.81
-160.86
-178.99
-192.23
-199.54
-200.32
-193.84
-179.16
-155.72
-124.06
-86.18
-45.46
-5.81
29.39
58.09
79.82
95.31
105.68
111.63
113.11
109.69
101.27
88.84
74.69
61.82
52.68
47.97
46.26
44.84
41.17
34.37
25.64
17.54
12.51
11.32
12.55
13.25
10.62
3.60
-6.32
-16.01
-22.39
-24.28
-23.18
-22.39
-25.16
-32.86
-44.20
-55.85
-64.38
-68.12
-68.22
-67.87
-70.44
-77.59
-88.43
-100.07
-109.20
-113.91
-114.60
-113.16
-111.34
-109.11
-104.47
-94.78
-78.87
-58.41
-37.53
-20.79
-10.41
-5.06
-0.27
9.22
27.04
53.83
87.31
123.91
160.54
195.56
228.48
258.96
285.80
306.58
318.31
318.41
306.42
283.88
253.96
220.39
186.38
153.69
122.54
92.25
61.75
29.84
-4.88
-43.82
-87.66
-134.67
-179.68
-214.78
-231.81
-226.51
-200.82
-162.78
-123.26
-91.85
-74.31
-72.61
-86.22
-113.23
-150.39
-192.24
-230.82
-256.90
-262.56
-243.90
-202.43
-144.55
-79.50
-17.10
34.78
71.74
93.59
104.16
109.87
117.17
130.10
149.07
171.33
193.11
211.77
226.66
238.31
247.46
254.20
257.74
256.92
251.04
240.31
225.90
209.85
193.52
177.54
161.63
145.02
126.72
106.12
83.33
59.18
34.43
9.59
-14.92
-38.46
-60.02
-78.19
-91.78
-100.61
-104.57
-105.05
-103.85
-101.94
-99.17
-94.89
-88.65
-80.93
-73.41
-67.55
-64.43
-64.12
-65.58
-67.79
-70.66
-74.84
-81.05
-89.48
-98.40
-104.80
-105.26
-96.88
-76.46
-44.01
-2.35
43.40
82.97
108.46
114.30
98.02
62.31
13.28
-40.41
-89.59
-124.80
-141.75
-141.34
-129.18
-112.21
-95.33
-80.18
-66.10
-51.91
-37.54
-24.57
-14.29
-7.08
-1.90
3.03
8.96
15.77
22.23
26.45
26.64
22.37
14.37
4.22
-6.37
-16.37
-25.81
-35.56
-46.91
-61.17
-78.79
-99.45
-122.26
-146.18
-170.49
-194.93
-219.48
-244.11
-268.57
-291.90
-312.56
-328.60
-338.10
-339.55
-332.79
-317.71
-294.65
-264.42
-228.18
-187.39
-143.80
-99.33
-55.96
-15.52
20.63
51.61
77.16
97.59
113.53
125.80
135.01
141.51
145.36
146.63
145.51
142.49
138.36
134.06
130.23
127.07
124.18
120.81
116.29
110.46
103.93
97.95
93.90
92.70
94.33
97.86
101.82
105.07
107.30
109.33
112.63
118.71
128.52
142.20
159.58
180.38
203.75
227.56
247.96
260.14
260.10
246.77
223.00
194.65
167.86
146.29
129.81
115.40
99.70
81.40
62.08
45.18
33.54
27.56
24.85
21.73
15.43
5.64
-5.37
-14.25
-18.45
-17.72
-14.35
-11.97
-13.62
-19.97
-28.80
-36.19
-38.60
-34.93
-27.32
-20.10
-17.45
-21.09
-29.13
-37.03
-40.15
-36.45
-27.80
-18.89
-14.53
-16.76
-23.78
-30.99
-33.82
-30.53
-23.17
-16.30
-14.11
-17.89
-25.24
-31.57
-32.80
-27.68
-18.56
-9.96
-6.06
-8.39
-15.13
-22.17
-25.42
-23.17
-16.98
-10.74
-8.41
-11.54
-18.30
-24.42
-25.68
-20.43
-10.67
-1.04
3.82
1.99
-4.66
-11.60
-14.34
-11.00
-3.33
4.25
7.36
4.36
-2.78
-9.56
-11.69
-7.58
0.57
8.07
10.37
5.82
-3.46
-12.75
-17.48
-15.88
-9.82
-3.48
-0.84
-3.37
-9.23
-14.46
-15.39
-10.86
-2.87
4.44
7.20
4.08
-3.03
-9.88
-12.41
-9.05
-1.74
5.22
7.60
3.82
-4.10
-11.62
-14.37
-10.69
-2.53
5.61
9.41
7.09
0.33
-6.83
-10.38
-8.67
-3.28
2.13
3.99
0.99
-5.14
-10.73
-12.13
-8.01
-0.11
7.50
10.72
7.66
-0.27
-9.00
-14.11
-13.28
-7.72
-1.33
1.61
-0.81
-6.78
-11.83
-11.61
-4.89
5.58
14.52
17.30
12.68
3.64
-4.42
-6.86
-2.44
5.97
13.31
15.28
10.75
2.28
-5.64
-9.10
-6.89
-1.01
4.50
5.96
2.07
-5.31
-12.11
-14.52
-11.09
-3.64
3.75
7.12
4.83
-1.50
-8.03
-10.80
-8.21
-1.99
3.98
5.97
2.62
-4.00
-9.73
-10.70
-5.68
3.01
10.73
13.19
8.89
0.06
-8.56
-12.49
-10.03
-3.11
3.94
6.99
4.47
-1.90
-8.29
-11.15
-9.19
-3.94
1.26
3.40
1.51
-2.90
-6.82
-7.47
-3.93
2.13
7.32
8.41
4.18
-3.72
-11.56
-15.52
-13.79
-7.51
-0.26
4.09
3.52
-0.89
-5.62
-6.87
-3.01
4.34
11.09
13.20
9.17
0.94
-7.04
-10.49
-7.79
-0.89
5.80
8.09
4.66
-2.25
-8.03
-8.74
-3.53
4.65
10.88
11.22
5.23
-3.70
-10.32
-10.53
-3.81
6.35
14.39
15.96
10.30
0.68
-7.55
-10.09
-6.07
1.65
8.24
9.76
5.43
-1.99
-7.86
-8.49
-3.38
4.55
10.67
11.57
7.09
0.15
-5.00
-5.54
-1.41
4.58
8.64
8.09
2.88
-4.38
-9.94
-10.92
-6.91
-0.17
5.58
7.15
3.68
-2.87
-8.63
-10.02
-5.94
1.44
7.77
9.12
4.39
-3.99
-11.42
-13.90
-10.43
-3.68
1.80
2.31
-2.58
-9.71
-14.19
-12.54
-4.80
5.34
12.60
13.29
7.47
-1.09
-7.13
-6.93
-0.44
8.70
15.28
15.43
8.77
-1.50
-10.27
-13.35
-9.81
-2.21
4.77
7.15
3.83
-2.86
-8.57
-9.56
-4.94
2.69
8.89
9.95
5.21
-2.40
-8.18
-8.50
-3.05
5.07
11.06
11.29
5.41
-3.50
-10.59
-12.03
-7.24
0.68
6.83
7.32
1.62
-7.06
-13.66
-14.17
-8.20
0.98
8.19
9.50
4.41
-3.84
-10.23
-10.95
-5.60
2.57
8.81
9.76
5.34
-1.21
-5.46
-4.45
1.56
9.35
14.51
13.93
7.76
-0.75
-7.04
-7.72
-2.65
5.02
10.59
10.59
4.53
-4.66
-12.40
-14.83
-11.04
-3.60
2.97
4.92
1.38
-5.02
-9.90
-9.72
-3.87
4.90
12.01
13.83
9.63
2.07
-4.25
-5.63
-1.38
5.65
10.89
10.71
4.63
-4.32
-11.39
-12.84
-8.18
-0.37
5.87
7.00
2.66
-4.22
-9.34
-9.80
-5.81
-0.45
2.44
0.64
-5.02
-10.99
-13.24
-9.58
-1.20
7.86
12.93
11.38
4.34
-3.94
-8.48
-6.41
1.33
10.48
15.89
14.57
7.35
-1.51
-6.89
-5.85
0.76
8.85
13.57
12.23
5.68
-2.38
-7.54
-7.23
-2.11
4.46
8.38
7.21
1.43
-5.72
-10.29
-9.79
-4.63
2.11
6.47
5.73
-0.01
-7.89
-13.78
-14.69
-10.48
-4.02
0.47
-0.10
-5.73
-13.25
-18.22
-17.52
-11.29
-2.86
3.03
3.06
-2.82
-11.34
-17.95
-19.44
-15.82
-10.28
-7.06
-8.92
-15.62
-24.01
-30.06
-31.14
-27.66
-22.88
-21.10
-25.14
-34.67
-46.20
-55.10
-58.43
-56.66
-53.58
-53.93
-60.70
-73.20
-87.30
-97.86
-101.76
-99.95
-97.00
-98.58
-107.86
-123.51
-140.32
-151.99
-154.28
-146.69
-131.87
-113.36
-93.32
-71.75
-47.37
-19.30
12.10
45.34
79.19
113.91
151.20
193.33
241.53
294.84
350.06
402.80
448.58
483.85
506.24
514.27
507.73
487.40
454.76
411.55
359.78
301.33
237.96
172.86
107.69
43.41
-19.22
-79.44
-136.35
-188.76
-235.23
-274.21
-304.21
-324.30
-333.83
-332.64
-320.82
-299.19
-269.30
-233.27
-193.64
-153.03
-114.08
-78.85
-48.71
-24.32
-5.72
7.56
16.30
21.44
23.93
24.46
23.64
21.97
19.84
17.45
14.94
12.45
10.04
7.82
5.77
3.92
2.31
0.96
-0.20
-1.20
-2.08
-2.89
-3.62
-4.28
-4.87
-5.36
-5.75
-6.04
-6.25
-6.40
-6.50
-6.55
-6.53
-6.44
-6.24
-5.95
-5.56
-5.08
-4.51
-3.87
-3.14
-2.34
-1.46
-0.50
0.52
1.55
2.58
3.64
4.60
5.36
5.88
6.11
6.07
5.80
5.36
4.90
4.57
4.48
4.70
5.18
5.79
6.27
6.25
5.26
2.91
-1.15
-7.21
-15.41
-25.62
-37.47
-50.35
-63.40
-75.68
-86.05
-93.50
-97.20
-96.65
-91.75
-82.79
-70.45
-55.27
-38.86
-22.53
-7.40
5.75
16.44
24.51
30.08
33.47
35.10
35.38
34.79
33.77
32.59
31.50
30.51
29.63
28.85
28.15
27.44
26.76
26.16
25.69
25.34
25.11
24.97
24.91
24.89
24.83
24.69
24.40
23.89
23.13
22.09
20.79
19.27
17.65
16.11
14.81
13.97
13.81
14.50
16.13
18.81
22.50
27.13
32.48
38.19
43.96
49.43
54.27
58.12
60.75
61.94
61.55
59.47
55.43
49.34
41.22
31.25
19.79
7.50
-4.83
-16.50
-26.81
-35.57
-42.61
-48.02
-52.05
-54.91
-56.72
-57.51
-57.40
-55.64
-53.64
-52.35
-52.46
-54.33
-57.69
-61.78
-65.51
-67.97
-68.69
-68.24
-67.57
-67.83
-69.80
-73.52
-78.18
-82.54
-86.03
-87.84
-88.59
-89.24
-90.92
-94.59
-100.87
-110.12
-121.94
-134.64
-144.84
-148.17
-140.45
-119.90
-88.46
-51.38
-15.28
14.45
36.22
51.60
63.80
75.72
88.35
100.79
111.30
118.77
123.13
125.06
125.16
123.34
119.07
111.83
101.56
89.15
76.12
64.10
54.24
46.88
41.69
38.05
35.18
32.76
30.69
29.30
28.85
29.71
32.08
35.87
40.48
44.71
47.23
47.16
44.56
40.20
34.84
28.46
20.12
8.71
-6.03
-22.52
-37.39
-46.83
-47.74
-40.02
-26.49
-11.16
2.59
13.17
20.94
27.13
32.98
39.07
44.93
49.64
52.25
52.55
50.59
46.96
42.32
37.42
32.66
27.79
22.21
14.20
1.77
-17.26
-43.91
-76.72
-110.88
-139.01
-152.60
-147.65
-125.41
-91.86
-55.82
-25.34
-5.74
0.88
-4.47
-19.52
-40.49
-61.83
-77.12
-81.31
-72.78
-54.28
-31.73
-11.40
3.28
13.16
22.13
34.35
50.66
67.86
80.18
82.24
72.04
51.99
28.35
8.19
-1.71
0.54
12.04
27.46
41.88
52.82
60.19
65.46
70.02
74.08
76.44
75.77
71.43
63.72
53.43
41.40
27.03
9.27
-12.64
-38.32
-65.00
-87.88
-101.83
-102.46
-91.29
-73.53
-55.84
-43.53
-38.68
-39.94
-44.16
-48.66
-52.36
-56.10
-60.59
-65.31
-68.45
-67.58
-60.59
-46.49
-26.30
-2.35
20.75
37.65
43.95
38.16
22.91
4.43
-9.97
-14.47
-8.08
5.28
19.55
29.92
34.99
36.80
38.77
43.05
49.31
55.04
57.13
53.89
45.61
33.89
20.62
6.79
-6.76
-19.45
-29.58
-34.90
-33.59
-25.77
-13.79
-1.37
7.73
11.61
10.58
6.72
2.83
1.46
3.99
10.10
17.95
24.90
29.08
30.94
32.95
37.34
43.87
48.77
47.19
37.01
21.06
6.46
0.43
5.62
17.65
27.63
27.44
13.94
-7.82
-28.85
-42.59
-46.62
-42.69
-34.53
-25.72
-18.62
-14.49
-13.87
-16.92
-22.78
-29.15
-33.58
-33.92
-29.22
-20.92
-11.46
-2.93
2.97
4.83
1.74
-6.20
-16.47
-24.68
-25.75
-16.19
4.16
31.00
57.02
74.92
80.08
69.57
48.17
22.99
-0.25
-18.68
-32.00
-40.72
-45.36
-46.19
-43.89
-38.72
-32.10
-25.86
-21.74
-20.72
-22.47
-26.11
-30.80
-35.76
-40.00
-42.94
-44.37
-44.56
-44.06
-42.58
-40.45
-38.35
-37.11
-36.75
-37.05
-37.75
-38.54
-38.98
-36.33
-27.84
-11.90
10.89
37.36
62.40
80.65
89.08
80.42
56.88
26.69
-0.94
-21.00
-33.23
-38.89
-37.12
-24.43
2.16
42.99
91.93
138.27
171.78
187.32
186.52
175.45
165.10
156.90
150.33
143.05
132.62
118.02
100.10
80.77
61.78
40.21
17.45
-4.70
-25.28
-43.67
-59.14
-70.79
-77.87
-80.32
-79.00
-75.41
-71.02
-67.05
-64.10
-62.08
-60.34
-58.05
-54.67
-50.20
-44.97
-39.77
-35.40
-32.34
-30.62
-29.68
-28.69
-26.81
-23.63
-19.22
-14.39
-10.24
-7.63
-6.87
-7.45
-8.28
-8.11
-6.11
-2.23
2.59
6.90
9.40
9.73
8.44
6.75
5.87
6.39
8.27
11.21
15.45
21.25
27.78
32.06
29.43
15.83
-8.94
-39.71
-67.41
-82.40
-79.42
-59.92
-30.82
-0.40
25.53
45.09
58.72
66.32
65.96
55.18
33.64
5.19
-22.83
-42.86
-50.78
-47.55
-38.29
-28.67
-22.21
-19.08
-17.06
-13.62
-7.79
-0.47
6.06
9.02
6.42
-2.55
-16.66
-32.58
-45.37
-50.05
-43.68
-26.08
-2.65
19.38
34.02
38.83
35.37
27.68
19.62
13.06
7.63
1.86
-4.71
-11.10
-15.42
-16.33
-14.08
-10.63
-8.61
-10.16
-15.82
-24.04
-32.14
-37.61
-39.33
-38.07
-36.40
-36.95
-41.48
-50.11
-61.00
-71.34
-78.77
-82.44
-83.36
-83.95
-86.63
-92.29
-99.80
-106.23
-107.82
-101.66
-86.77
-63.33
-32.58
3.36
41.14
75.92
102.06
115.09
113.87
101.71
85.22
71.20
63.21
60.31
58.32
52.85
42.50
29.75
19.28
15.34
19.39
29.88
43.69
58.08
71.83
84.66
96.05
104.82
109.12
106.88
96.83
79.01
54.81
27.14
0.36
-20.41
-30.46
-27.57
-13.70
4.71
18.94
21.71
10.72
-10.19
-33.93
-54.09
-68.48
-79.51
-91.23
-105.52
-120.11
-129.51
-128.75
-117.14
-99.36
-83.30
-75.63
-78.00
-86.20
-92.45
-89.13
-72.50
-44.04
-9.07
25.64
54.71
75.88
89.94
98.37
103.42
106.94
109.99
113.13
116.68
120.86
125.81
131.03
135.22
136.79
134.24
126.81
115.05
100.87
86.93
75.88
68.97
65.71
64.46
62.74
57.73
47.35
31.29
11.99
-5.26
-13.62
-8.99
9.08
36.34
64.93
86.28
94.29
86.10
64.91
36.83
7.57
-19.21
-42.40
-62.24
-78.89
-91.85
-100.21
-103.31
-101.75
-97.36
-92.28
-88.43
-86.81
-87.35
-89.21
-91.16
-91.93
-91.00
-88.70
-85.84
-83.60
-83.09
-84.95
-89.21
-95.13
-101.35
-106.59
-110.02
-111.52
-111.94
-112.68
-114.83
-118.73
-123.47
-127.00
-126.77
-120.71
-106.54
-82.53
-47.97
-4.03
45.34
93.42
132.14
154.34
157.29
144.23
122.85
101.97
87.77
81.74
81.35
82.57
82.45
80.47
77.80
75.56
73.65
71.05
66.24
58.70
49.40
40.16
33.02
29.08
27.99
28.29
28.14
26.12
21.93
16.32
10.69
6.44
4.30
4.03
4.68
5.08
4.30
2.13
-1.03
-4.38
-7.11
-8.75
-9.35
-9.30
-9.10
-9.17
-9.57
-10.14
-10.58
-10.60
-10.10
-9.13
-7.93
-6.72
-5.67
-4.88
-4.31
-3.90
-3.60
-3.36
-3.17
-3.02
-2.89
-2.78
-2.65
-2.48
-2.32
-2.23
-2.23
-2.33
-2.46
-2.51
-2.39
-2.07
-1.60
-1.19
-1.02
-1.22
-1.78
-2.49
-3.04
-3.18
-2.77
-1.94
-1.03
-0.44
-0.46
-1.13
-2.17
-3.13
-3.54
-3.13
-2.01
-0.61
0.46
0.72
-0.01
-1.44
-3.04
-4.18
-4.33
-3.29
-1.26
1.13
2.66
1.70
-3.30
-12.71
-24.92
-36.06
-41.41
-37.46
-23.76
-3.40
18.33
36.24
46.73
48.31
40.80
24.50
0.14
-30.25
-62.54
-90.86
-109.02
-113.55
-105.18
-88.24
-68.56
-51.13
-38.67
-31.83
-30.18
-33.27
-40.55
-50.35
-59.17
-62.19
-54.98
-35.57
-6.28
26.94
56.68
77.06
86.15
86.16
81.56
76.43
72.63
69.64
65.93
60.75
54.80
49.95
47.87
48.91
51.86
54.54
54.85
51.91
46.52
40.68
36.75
36.29
39.34
44.40
49.06
51.25
49.97
45.83
40.63
36.53
35.28
37.80
44.10
53.02
62.06
67.43
64.90
51.44
27.03
-4.55
-36.79
-62.85
-78.66
-84.36
-83.68
-81.42
-80.73
-81.68
-81.93
-79.06
-72.25
-63.19
-55.06
-50.66
-51.11
-55.64
-62.35
-68.70
-72.23
-70.43
-61.11
-43.14
-17.32
12.97
42.65
66.80
82.64
90.79
94.77
98.99
106.04
114.76
120.45
117.17
100.99
72.57
37.54
4.22
-20.02
-31.76
-32.72
-28.48
-24.81
-25.31
-30.21
-37.56
-45.03
-50.85
-53.56
-51.23
-41.73
-24.40
-1.96
19.35
32.00
30.76
15.74
-7.37
-30.09
-45.12
-49.66
-45.74
-37.58
-28.61
-19.92
-10.82
-0.63
9.86
18.54
23.25
23.06
19.38
14.94
12.55
14.04
19.25
26.49
33.32
37.71
38.86
37.53
35.33
33.98
34.48
36.59
39.07
40.23
38.68
33.88
26.32
17.15
7.75
-0.86
-8.26
-14.29
-19.56
-24.47
-29.07
-33.08
-36.03
-37.51
-37.40
-36.02
-34.09
-32.14
-30.62
-29.64
-28.98
-28.23
-27.02
-25.21
-23.16
-21.32
-20.29
-20.33
-21.26
-22.43
-23.04
-22.49
-20.72
-18.41
-16.60
-16.35
-18.09
-21.39
-25.05
-27.61
-28.06
-26.41
-23.94
-22.17
-22.67
-25.87
-30.96
-36.40
-40.96
-43.98
-45.40
-45.17
-42.88
-38.33
-32.49
-27.93
-27.90
-34.09
-44.64
-54.03
-55.38
-44.12
-20.89
8.35
35.28
53.28
60.47
59.55
55.37
51.82
49.89
48.19
44.87
39.49
33.10
28.02
25.87
26.72
29.18
31.17
30.89
27.83
22.84
17.56
13.73
12.24
12.93
14.70
16.07
15.99
14.12
11.07
7.85
5.51
4.56
4.88
5.85
6.63
6.66
5.80
4.35
2.82
1.71
1.25
1.36
1.77
2.11
2.18
1.91
1.43
0.93
0.57
0.41
0.41
0.52
0.63
0.72
0.74
0.75
0.75
0.76
0.78
0.79
0.80
0.80
0.78
0.75
0.71
0.64
0.55
0.45
0.32
0.18
0.03
-0.12
-0.28
-0.43
-0.57
-0.71
-0.85
-0.99
-1.12
-1.25
-1.39
-1.54
-1.70
-1.88
-2.09
-2.34
-2.64
-2.99
-3.39
-3.86
-4.39
-5.00
-5.69
-6.49
-7.39
-8.41
-9.54
-10.78
-12.14
-13.59
-15.14
-16.80
-18.61
-20.57
-22.66
-24.88
-27.21
-29.67
-32.18
-34.76
-37.42
-40.28
-43.32
-46.51
-49.87
-53.36
-57.00
-60.63
-64.21
-67.62
-70.73
-73.18
-74.50
-74.19
-71.66
-66.49
-58.01
-45.94
-30.31
-11.62
9.55
32.27
55.40
77.58
96.86
112.20
122.84
129.22
130.62
127.06
118.91
106.75
91.41
73.84
55.14
36.14
17.60
-0.05
-16.09
-30.00
-41.51
-50.50
-56.87
-60.54
-61.42
-59.56
-55.26
-48.46
-39.37
-28.30
-15.68
-1.91
12.63
27.55
42.52
55.58
66.61
75.53
82.20
86.60
88.71
88.71
86.86
84.91
82.17
78.03
71.85
63.06
51.34
36.77
19.91
1.73
-17.94
-37.47
-55.46
-71.23
-84.50
-95.02
-102.12
-105.23
-103.52
-96.34
-83.63
-66.29
-45.82
-24.14
-2.95
15.57
30.91
43.52
53.98
62.71
69.69
75.15
79.31
82.13
82.50
78.78
69.55
54.85
38.43
23.51
13.87
11.62
15.89
23.06
28.84
30.19
26.47
19.24
10.67
2.77
-4.55
-10.68
-15.66
-19.40
-21.72
-22.57
-22.25
-21.33
-20.52
-20.35
-20.93
-22.21
-23.73
-24.75
-24.64
-23.04
-20.21
-16.67
-12.99
-9.50
-6.42
-3.65
-0.91
2.05
5.31
8.74
12.24
15.82
19.62
23.66
27.95
32.41
36.89
41.16
45.03
48.50
51.68
54.97
58.69
63.43
69.78
77.72
86.11
92.51
93.80
87.28
71.67
47.64
17.72
-14.73
-46.65
-75.91
-101.32
-122.38
-138.46
-148.94
-153.74
-153.29
-148.70
-141.38
-132.59
-123.03
-112.83
-101.79
-89.11
-75.12
-60.44
-45.82
-32.10
-19.95
-9.79
-1.69
4.64
9.64
13.68
17.01
19.85
22.18
23.85
24.73
24.80
24.29
23.61
23.16
23.31
24.12
25.31
26.33
26.65
25.96
24.43
22.74
21.66
21.95
23.82
26.71
29.46
30.80
29.94
27.04
23.34
20.59
20.40
23.36
28.58
33.85
36.64
35.20
29.42
21.03
12.48
6.27
3.40
2.76
1.62
-3.39
-14.93
-33.96
-58.55
-84.90
-107.14
-118.71
-114.42
-92.37
-55.19
-10.20
31.82
60.14
66.91
50.52
16.73
-22.90
-55.16
-70.02
-64.11
-41.25
-9.74
21.44
46.35
63.14
73.01
77.80
78.31
74.57
66.90
57.32
49.59
47.95
54.93
69.24
85.10
94.10
88.04
62.81
20.65
-30.22
-78.56
-114.32
-132.35
-133.73
-123.90
-109.35
-94.48
-80.39
-65.80
-49.18
-30.48
-11.01
6.29
19.17
27.03
30.70
31.57
31.03
29.32
25.59
18.38
6.56
-9.92
-29.80
-50.83
-70.51
-86.54
-97.47
-102.71
-102.39
-96.99
-87.01
-72.92
-54.71
-33.76
-11.71
9.70
28.81
44.35
55.57
62.44
65.47
65.48
63.24
59.52
54.88
49.57
43.66
37.17
30.23
23.03
15.92
9.08
2.88
-2.30
-6.10
-8.29
-8.83
-7.80
-5.41
-1.99
2.01
6.21
10.23
13.77
16.64
18.70
19.92
20.36
20.13
19.39
18.31
17.05
15.74
14.46
13.28
12.16
11.10
10.12
9.17
8.25
7.40
6.63
5.94
5.34
4.80
4.29
3.78
3.25
2.68
2.12
1.62
1.21
0.91
0.69
0.50
0.28
-0.02
-0.40
-0.80
-1.16
-1.41
-1.53
-1.56
-1.60
-1.76
-2.12
-2.66
-3.28
-3.80
-4.08
-4.05
-3.83
-3.66
-3.84
-4.55
-5.78
-7.23
-8.50
-9.18
-9.15
-8.63
-8.20
-8.48
-9.87
-12.32
-15.27
-17.88
-19.40
-19.56
-18.78
-18.04
-18.35
-20.42
-24.13
-28.61
-32.55
-35.03
-35.63
-34.86
-33.78
-33.46
-34.71
-38.03
-43.71
-51.53
-60.19
-66.81
-67.42
-58.35
-38.26
-9.49
22.39
50.53
69.72
78.30
78.27
73.61
68.00
63.31
59.50
55.77
51.74
47.89
45.13
43.99
44.11
44.52
44.29
42.85
40.55
38.18
36.52
35.96
36.28
36.88
37.25
37.18
36.94
37.09
38.03
39.79
41.93
43.93
45.31
46.02
46.32
46.65
47.52
49.60
53.69
60.18
68.29
75.38
77.36
70.19
51.99
24.64
-6.45
-34.36
-53.40
-61.33
-59.73
-52.61
-44.24
-37.48
-33.17
-31.04
-30.46
-31.15
-32.94
-35.71
-39.42
-44.02
-49.55
-55.99
-63.31
-70.98
-79.14
-87.76
-96.43
-103.41
-105.56
-100.00
-84.78
-61.90
-36.93
-16.87
-6.80
-7.37
-14.62
-22.23
-25.13
-21.71
-14.23
-6.44
-1.11
1.75
4.25
8.78
15.92
23.69
28.66
27.63
19.61
6.97
-5.13
-11.34
-8.51
2.40
16.77
28.86
34.46
32.90
26.76
20.06
15.73
14.44
14.82
14.79
13.04
9.71
6.17
3.92
3.78
5.36
7.48
8.77
8.38
6.38
3.61
1.19
-0.02
0.23
1.44
2.80
3.47
3.08
1.81
0.23
-0.99
-1.46
-1.15
-0.41
0.30
0.59
0.32
-0.36
-1.13
-1.70
-1.93
-1.82
-1.55
-1.33
-1.30
-1.49
-1.85
-2.26
-2.64
-2.94
-3.16
-3.37
-3.60
-3.90
-4.26
-4.68
-5.15
-5.67
-6.22
-6.81
-7.44
-8.11
-8.83
-9.59
-10.40
-11.25
-12.16
-13.11
-14.11
-15.16
-16.26
-17.39
-18.57
-19.77
-20.98
-22.13
-23.17
-24.01
-24.53
-24.68
-24.36
-23.48
-21.98
-19.79
-16.97
-13.56
-9.63
-5.23
-0.46
4.54
9.51
14.22
18.48
22.13
25.06
27.20
28.51
28.95
28.51
27.17
24.96
22.00
18.40
14.44
10.36
6.36
2.50
-1.20
-5.02
-9.07
-13.36
-17.94
-22.55
-26.78
-30.32
-33.03
-34.98
-36.76
-38.63
-40.72
-43.24
-45.70
-47.35
-47.72
-46.73
-44.71
-43.15
-42.71
-43.69
-46.41
-49.98
-53.07
-54.76
-54.74
-53.37
-52.75
-53.61
-56.04
-60.09
-64.00
-65.54
-63.17
-56.11
-44.44
-30.36
-13.79
7.11
29.60
47.37
56.43
55.21
45.10
40.86
43.85
53.48
70.42
88.52
107.10
127.41
150.79
178.11
209.16
240.43
268.57
289.57
299.18
296.31
282.66
262.02
238.93
216.85
195.79
175.13
153.67
130.27
105.73
81.72
60.04
42.19
29.32
21.28
18.45
20.78
27.15
36.05
45.37
52.86
56.64
55.62
49.28
38.72
26.56
16.42
12.31
16.66
28.89
44.93
58.67
64.07
57.96
41.04
16.91
-10.28
-38.44
-68.04
-100.64
-136.93
-175.32
-212.61
-245.59
-272.12
-290.51
-298.53
-292.91
-270.23
-229.50
-174.12
-112.06
-53.62
-7.71
22.05
38.21
48.06
59.69
77.69
100.57
121.38
131.24
123.84
100.80
70.23
43.45
28.70
26.64
29.90
26.85
7.10
-35.01
-96.25
-169.06
-243.21
-307.92
-352.95
-369.76
-353.98
-308.85
-247.74
-187.41
-146.93
-139.36
-166.96
-220.37
-282.11
-333.36
-361.00
-362.90
-340.59
-301.54
-253.05
-199.97
-144.33
-85.75
-23.51
52.50
123.32
187.81
242.20
282.84
306.21
306.55
280.70
234.89
182.60
133.50
95.16
67.54
48.25
34.43
23.78
15.50
8.03
2.36
-2.05
-1.10
7.25
22.23
39.37
53.11
60.72
63.36
64.61
65.85
70.77
80.60
95.20
114.35
139.78
175.13
222.38
277.62
318.81
322.95
279.25
198.43
104.79
21.63
-37.98
-73.12
-91.48
-102.92
-110.89
-112.30
-101.27
-75.16
-38.00
0.52
29.23
40.30
33.40
16.73
2.22
-1.30
7.44
22.92
37.17
44.67
43.85
37.10
28.57
20.98
14.08
5.51
-6.87
-22.97
-40.20
-55.69
-66.79
-72.27
-72.74
-70.04
-66.26
-62.81
-60.12
-53.96
-45.15
-34.87
-24.01
-13.29
-3.31
5.49
12.98
19.12
24.33
28.60
32.21
35.32
37.74
39.19
39.68
39.64
39.25
38.33
36.99
35.10
32.20
27.67
21.30
13.71
6.29
-0.10
-4.45
-6.47
-6.73
-6.30
-6.73
-8.86
-12.31
-15.64
-18.42
-19.99
-20.43
-21.02
-23.51
-30.45
-44.49
-68.71
-99.40
-135.91
-175.76
-213.66
-242.36
-253.78
-242.54
-207.41
-151.82
-83.02
-11.32
55.38
113.47
162.96
207.08
243.94
267.05
271.42
256.82
224.96
180.74
134.38
89.50
49.77
16.70
-10.11
-32.79
-48.90
-58.17
-60.08
-54.70
-44.55
-34.40
-29.52
-31.49
-36.66
-38.21
-31.16
-13.68
11.98
40.59
65.70
83.51
94.93
103.27
109.86
111.48
102.84
79.71
41.40
-11.11
-72.50
-131.86
-175.42
-191.82
-176.56
-132.88
-71.61
-8.61
35.41
45.05
17.21
-39.86
-113.80
-194.68
-277.23
-359.89
-412.35
-411.37
-357.81
-271.63
-172.40
-73.66
13.40
80.16
122.83
144.48
148.58
140.59
127.53
115.73
107.86
103.32
101.00
100.28
101.67
102.49
100.00
94.12
86.98
80.65
76.38
76.10
81.11
92.92
109.24
125.20
135.08
133.77
117.99
86.56
46.58
7.86
-20.34
-34.38
-36.29
-31.31
-25.06
-21.52
-22.11
-25.97
-31.89
-38.95
-46.40
-53.02
-56.18
-52.28
-38.75
-16.13
11.02
32.97
40.51
29.42
2.92
-28.76
-52.96
-60.16
-47.90
-20.55
13.39
47.26
76.56
98.87
112.27
114.21
102.51
77.50
42.82
7.62
-19.16
-32.41
-32.43
-23.91
-13.28
-5.67
-3.32
-5.84
-11.00
-16.89
-21.87
-25.34
-27.50
-29.10
-31.15
-34.28
-38.89
-43.93
-47.87
-49.42
-47.94
-43.75
-38.08
-32.57
-28.90
-29.12
-34.25
-44.67
-59.35
-75.21
-87.38
-90.49
-80.91
-56.05
-22.76
9.97
34.44
47.05
49.01
44.68
38.70
33.78
30.15
26.21
21.35
16.14
11.98
9.97
10.19
11.50
12.35
11.31
7.65
2.27
-3.24
-7.32
-9.18
-8.92
-7.51
-6.14
-5.80
-7.00
-9.25
-11.57
-13.07
-13.32
-12.12
-10.18
-8.16
-6.60
-5.82
-5.64
-5.61
-5.30
-4.42
-2.76
-0.40
2.50
5.62
8.48
10.67
11.88
11.95
10.87
9.17
7.31
5.78
4.67
3.57
1.78
-1.35
-6.16
-12.60
-19.60
-26.08
-30.88
-33.61
-34.70
-35.00
-35.07
-34.98
-34.36
-31.81
-26.35
-16.82
-2.82
15.50
38.13
65.42
97.93
129.86
156.09
172.02
176.47
171.01
159.13
144.72
130.64
118.05
107.01
98.81
95.78
101.83
117.99
140.60
162.29
175.13
173.73
156.76
127.14
81.55
25.30
-30.74
-76.23
-106.59
-122.98
-128.90
-128.09
-123.22
-116.14
-106.72
-95.45
-83.75
-73.22
-64.82
-58.43
-53.48
-49.44
-46.08
-42.37
-38.14
-34.00
-31.41
-30.76
-32.02
-35.29
-40.91
-49.18
-59.32
-70.38
-81.47
-89.44
-94.46
-97.04
-98.00
-98.40
-99.29
-101.29
-105.09
-111.02
-118.09
-123.62
-122.98
-111.60
-87.51
-52.92
-13.85
21.95
48.29
63.00
67.82
67.19
65.14
63.39
61.32
57.49
51.44
44.46
39.06
37.07
38.95
43.32
47.74
49.85
48.80
45.44
41.87
40.81
43.56
50.50
61.10
74.42
89.22
103.53
114.25
116.55
107.32
85.64
54.39
19.62
-11.60
-33.97
-45.80
-49.08
-47.87
-45.91
-45.70
-47.49
-50.77
-54.98
-59.80
-64.92
-69.70
-73.37
-75.29
-75.53
-75.00
-75.45
-78.90
-86.65
-97.90
-109.35
-115.82
-112.05
-95.26
-66.95
-32.61
0.24
24.02
35.53
36.28
30.78
23.87
18.96
16.19
14.75
13.76
13.09
13.35
15.06
17.81
20.38
21.23
19.05
13.97
6.97
-0.54
-7.21
-11.99
-14.81
-16.34
-17.57
-19.37
-21.40
-23.03
-23.58
-22.64
-19.59
-14.53
-8.13
-1.38
4.74
10.45
16.26
22.70
30.23
40.17
53.31
69.93
90.18
109.64
126.40
139.51
148.57
153.46
155.78
156.98
158.31
160.66
164.78
172.20
184.17
201.08
213.64
215.82
205.35
184.39
156.97
126.52
96.01
67.96
43.90
25.01
13.34
8.97
9.99
12.97
14.87
13.45
8.16
-1.75
-15.63
-29.90
-40.82
-45.65
-43.87
-37.15
-28.50
-21.49
-22.17
-35.31
-57.60
-84.60
-111.81
-136.65
-158.74
-179.42
-200.72
-227.76
-263.90
-307.81
-354.84
-398.97
-434.80
-458.36
-467.66
-440.09
-369.55
-271.06
-171.34
-91.93
-39.94
-10.86
5.39
19.35
35.07
54.53
77.41
103.13
130.79
158.63
184.15
205.18
220.57
228.16
224.48
207.07
176.81
137.97
96.91
60.00
31.62
12.73
1.03
-8.32
-18.74
-29.29
-35.92
-35.00
-26.34
-14.07
-4.92
-4.97
-16.49
-35.95
-54.69
-63.24
-55.61
-31.36
4.85
45.24
81.02
104.64
111.94
103.42
83.89
61.84
47.90
51.47
76.90
119.00
160.49
180.80
169.61
131.92
82.91
38.70
8.59
-6.68
-12.76
-16.08
-18.99
-19.13
-13.02
0.27
17.89
33.21
41.13
38.94
27.51
11.02
-5.04
-17.11
-25.03
-28.97
-32.65
-39.06
-49.26
-61.88
-73.57
-80.69
-81.34
-76.17
-67.79
-59.87
-54.90
-53.77
-55.60
-58.26
-59.52
-58.30
-55.05
-51.34
-49.22
-49.78
-52.93
-57.51
-61.95
-64.77
-65.36
-64.05
-61.82
-60.13
-60.45
-64.13
-71.89
-82.70
-93.12
-97.74
-91.00
-70.00
-36.66
2.58
38.99
65.25
78.24
79.92
75.53
70.89
69.63
73.10
81.49
94.51
111.34
129.53
144.45
149.67
141.11
118.86
87.79
56.19
31.96
19.30
17.35
21.60
26.64
28.94
27.54
23.35
17.80
11.26
3.19
-7.43
-21.07
-37.22
-54.55
-71.23
-87.10
-102.54
-117.62
-130.92
-139.10
-137.89
-124.16
-98.00
-63.64
-28.16
1.36
20.42
28.35
27.85
23.05
17.80
14.82
15.55
20.63
30.65
46.08
66.46
89.63
111.38
125.79
128.01
116.04
92.21
62.62
34.83
14.57
3.73
0.28
0.23
0.00
-2.05
-5.75
-10.43
-16.14
-24.19
-36.66
-55.22
-79.74
-107.04
-132.00
-148.00
-149.66
-135.11
-107.32
-73.40
-41.78
-18.89
-6.39
-1.87
-0.55
1.66
6.34
12.42
17.72
20.69
21.45
21.60
22.85
26.18
31.45
37.60
43.03
46.59
47.92
47.38
45.89
44.45
43.90
44.78
46.92
49.55
51.66
52.38
51.39
48.99
46.09
43.92
43.82
46.54
52.48
62.03
75.28
91.24
107.03
117.92
117.17
101.96
73.66
38.09
3.62
-22.19
-35.71
-37.99
-33.30
-26.24
-19.28
-12.74
-5.81
1.92
9.68
15.71
18.44
17.29
13.08
7.47
1.81
-3.54
-9.42
-16.94
-27.10
-40.11
-55.16
-70.47
-83.70
-92.92
-97.10
-96.46
-91.69
-83.89
-74.04
-62.78
-50.20
-35.92
-19.66
-0.20
20.51
40.49
57.65
69.80
76.06
76.23
70.95
61.39
48.89
34.21
17.88
-0.22
-18.76
-37.83
-57.10
-75.40
-91.08
-102.72
-109.84
-112.81
-112.96
-112.00
-111.75
-113.54
-118.24
-126.08
-136.02
-145.30
-149.37
-143.38
-124.40
-93.53
-55.85
-18.82
10.62
28.88
36.58
37.47
35.87
34.55
33.92
32.97
30.73
27.44
24.17
22.03
21.28
21.25
20.80
18.84
15.35
11.32
8.28
7.53
9.57
13.74
18.43
21.61
21.59
17.67
10.28
0.71
-9.45
-18.68
-26.14
-31.57
-35.33
-37.99
-40.00
-41.62
-42.95
-44.20
-45.43
-47.07
-49.75
-54.14
-60.78
-69.71
-80.46
-92.13
-103.59
-113.53
-121.10
-126.08
-128.75
-129.62
-128.91
-126.18
-120.12
-111.13
-98.82
-83.25
-65.28
-46.49
-28.71
-13.18
-0.01
11.95
24.60
40.03
59.18
81.39
104.63
126.47
145.13
160.36
173.47
186.84
203.20
224.78
252.68
286.38
323.19
357.96
383.67
392.94
380.52
345.53
291.86
226.78
157.95
90.29
24.33
-42.73
-113.88
-188.75
-261.60
-322.67
-361.77
-372.76
-356.14
-318.86
-271.01
-221.77
-176.26
-134.85
-95.08
-54.20
-10.82
34.85
81.51
127.16
168.80
202.00
221.70
223.72
207.27
176.21
138.46
103.28
78.02
66.03
66.56
76.74
92.74
111.22
129.90
147.53
163.75
179.43
196.57
217.72
245.45
279.55
316.36
349.66
373.05
382.37
377.28
360.84
337.73
312.69
287.15
259.31
225.94
184.95
137.00
85.61
35.60
-14.96
-65.11
-112.76
-154.95
-188.64
-211.72
-223.67
-224.91
-218.62
-208.66
-198.00
-189.96
-187.94
-195.09
-213.95
-245.98
-290.78
-345.09
-402.13
-451.74
-483.92
-491.81
-473.64
-432.93
-376.32
-311.16
-242.63
-173.73
-105.73
-40.34
20.17
74.27
122.67
168.30
213.57
258.58
298.21
324.12
328.08
306.24
261.54
202.49
139.83
82.70
39.06
14.12
11.22
30.42
67.09
111.17
148.98
167.65
159.59
127.35
79.89
28.42
-19.06
-60.30
-98.16
-137.65
-176.96
-220.43
-260.44
-286.73
-289.79
-265.71
-218.49
-159.86
-105.98
-71.62
-65.93
-88.05
-131.32
-186.80
-247.32
-306.74
-358.57
-395.29
-409.40
-396.83
-358.02
-300.42
-229.57
-156.79
-92.93
-44.30
-11.72
7.93
18.89
24.73
29.02
33.73
38.40
42.33
45.51
48.77
53.53
61.67
75.82
98.48
131.29
173.88
222.29
271.00
313.65
344.66
360.88
362.54
352.50
334.81
313.15
290.77
270.24
252.33
235.49
215.92
188.78
150.43
100.50
42.68
-15.64
-65.46
-99.65
-115.36
-114.79
-103.95
-90.28
-80.07
-76.75
-80.20
-87.45
-94.52
-98.11
-96.84
-91.17
-82.51
-72.02
-60.24
-47.56
-34.86
-23.93
-16.60
-13.50
-12.94
-11.51
-5.85
5.28
19.96
33.97
42.93
44.61
39.79
31.67
24.04
19.34
17.89
18.26
18.53
17.55
15.81
14.00
12.98
12.80
12.29
9.82
4.33
-4.24
-14.85
-25.87
-35.97
-44.22
-50.12
-53.22
-52.43
-46.43
-34.65
-18.32
-0.73
13.70
21.24
20.60
13.43
3.89
-3.71
-7.22
-7.46
-7.14
-8.49
-11.47
-13.67
-12.58
-7.56
-0.98
3.06
1.51
-5.59
-15.02
-22.10
-23.32
-18.18
-8.76
1.73
10.29
14.93
14.42
7.99
-4.17
-19.61
-33.72
-41.08
-37.69
-23.60
-2.79
18.62
35.48
45.81
50.72
51.85
49.81
43.93
32.12
12.64
-14.55
-46.74
-78.64
-103.42
-114.52
-107.24
-80.08
-36.47
15.48
64.84
100.83
116.17
109.57
85.93
52.12
18.95
-4.18
-12.76
-8.32
2.77
12.01
11.71
-3.18
-33.97
-77.90
-129.43
-180.35
-220.74
-241.25
-236.03
-204.76
-152.92
-89.38
-23.49
36.54
85.05
119.43
139.84
149.09
152.05
153.47
156.49
160.27
159.66
148.47
124.18
90.27
55.94
32.33
26.02
36.50
54.74
66.29
57.93
23.47
-35.28
-110.26
-191.12
-269.36
-330.24
-355.70
-333.24
-265.18
-168.86
-70.09
5.92
51.98
69.80
69.56
65.75
71.37
91.30
125.86
165.05
194.82
204.02
190.72
163.56
133.71
106.79
81.51
53.48
19.58
-18.04
-52.55
-75.88
-84.01
-77.24
-60.15
-38.96
-19.26
-5.31
0.52
-3.13
-17.28
-45.07
-83.01
-119.87
-140.32
-133.35
-98.00
-43.02
17.97
72.81
117.96
154.26
183.25
206.00
221.04
225.79
219.25
203.44
183.16
163.25
146.84
129.07
106.97
77.43
38.79
-7.40
-57.06
-100.09
-127.52
-136.72
-132.24
-121.41
-111.28
-105.23
-102.48
-101.88
-99.26
-92.68
-82.89
-71.87
-60.90
-50.78
-41.47
-32.24
-20.71
-5.43
13.03
32.26
49.04
60.88
66.33
65.55
60.00
51.67
42.21
32.05
20.86
8.73
-3.12
-13.16
-20.37
-25.06
-28.64
-32.67
-38.07
-44.76
-52.14
-60.05
-69.56
-82.44
-99.82
-120.64
-141.64
-158.61
-168.22
-169.57
-164.14
-154.78
-144.07
-133.43
-122.83
-111.49
-98.44
-82.80
-64.27
-43.17
-20.42
2.97
26.53
50.70
76.43
104.13
132.60
158.55
177.78
187.07
186.10
177.67
166.30
156.03
148.49
142.71
135.91
125.25
109.24
88.32
64.63
41.20
20.82
5.24
-5.41
-12.62
-18.82
-26.51
-37.20
-50.81
-65.93
-80.42
-92.24
-99.68
-101.51
-96.91
-85.85
-69.40
-49.68
-29.41
-10.80
4.93
18.00
29.56
40.72
51.56
60.96
67.14
68.54
64.38
54.51
39.59
21.05
0.82
-19.29
-37.88
-53.96
-66.96
-76.29
-81.79
-83.10
-80.11
-73.21
-63.94
-54.56
-46.96
-42.15
-40.25
-41.31
-45.08
-50.54
-55.39
-56.16
-48.70
-29.00
5.33
53.67
108.71
157.33
186.58
191.83
178.26
155.49
131.52
110.15
91.57
74.12
56.95
41.41
30.25
25.76
27.98
35.10
43.82
50.83
53.72
52.08
47.87
44.22
43.68
47.12
54.14
63.73
74.73
85.31
92.66
93.16
83.21
60.87
27.46
-11.91
-49.86
-79.62
-97.73
-104.83
-104.29
-99.96
-94.40
-88.36
-81.56
-74.01
-66.68
-61.14
-58.51
-58.61
-60.06
-61.04
-60.09
-56.80
-52.02
-47.28
-44.11
-43.24
-44.45
-46.79
-49.02
-50.35
-50.52
-50.17
-50.48
-52.59
-57.46
-64.83
-73.89
-83.51
-93.11
-101.41
-107.47
-110.60
-110.16
-105.54
-96.29
-82.36
-63.40
-41.33
-18.12
4.23
24.08
40.47
53.15
62.43
68.79
72.69
74.13
73.26
70.24
65.52
60.00
54.79
50.85
48.67
47.95
47.52
46.32
43.55
39.25
34.45
30.75
29.40
31.04
35.19
40.33
44.69
46.53
44.32
36.90
23.84
6.16
-13.12
-29.28
-37.47
-34.38
-20.86
-1.60
16.76
28.58
31.55
27.20
19.36
11.84
6.47
2.94
0.01
-3.12
-6.09
-7.75
-7.18
-4.51
-0.94
2.01
2.97
1.68
-1.09
-3.93
-5.52
-5.20
-3.21
-0.51
1.72
2.58
1.90
0.21
-1.59
-2.67
-2.60
-1.51
0.04
1.39
2.01
1.82
1.08
0.24
-0.26
-0.22
0.30
1.05
1.72
2.06
2.03
1.73
1.32
0.97
0.78
0.78
0.94
1.22
1.53
1.83
2.05
2.15
2.13
2.04
1.97
2.03
2.28
2.73
3.29
3.79
4.10
4.16
4.03
3.86
3.86
4.18
4.78
5.47
5.95
5.92
5.29
4.24
3.17
2.57
2.74
3.62
4.70
5.24
4.62
2.65
-0.24
-3.07
-4.74
-4.54
-2.56
0.19
2.14
1.84
-1.28
-6.64
-12.66
-17.47
-19.89
-20.07
-19.65
-21.08
-26.36
-35.66
-46.92
-56.31
-59.15
-51.64
-32.28
-2.26
34.94
73.99
108.69
133.06
142.83
137.12
119.33
96.67
77.90
69.65
73.31
84.09
92.96
90.51
71.11
35.27
-10.70
-57.75
-97.62
-125.75
-142.41
-151.05
-156.38
-162.12
-169.53
-177.23
-181.93
-180.74
-172.08
-156.20
-134.32
-107.10
-73.70
-32.22
17.96
73.89
128.42
172.90
201.13
212.92
214.22
213.59
216.60
221.94
221.97
207.37
173.35
123.57
69.42
24.73
-0.22
-2.43
13.68
39.99
68.61
94.18
114.03
126.89
132.02
128.55
116.05
94.87
66.42
33.38
-0.76
-32.09
-57.03
-72.95
-78.83
-75.32
-64.84
-50.63
-36.04
-23.40
-13.97
-8.57
-8.46
-15.39
-30.26
-51.27
-73.15
-88.64
-92.22
-83.89
-70.62
-63.92
-73.50
-101.53
-140.87
-178.38
-202.04
-206.87
-197.24
-182.73
-172.03
-168.03
-167.24
-163.77
-154.64
-142.20
-132.64
-131.69
-139.54
-149.27
-150.04
-132.69
-95.12
-43.90
8.97
51.93
78.80
90.44
91.51
85.51
71.12
43.00
-3.38
-66.36
-135.00
-192.00
-221.31
-216.04
-182.72
-138.35
-103.01
-90.70
-104.21
-135.62
-170.88
-196.87
-206.17
-197.95
-175.19
-141.52
-98.67
-46.97
12.91
77.93
142.33
199.21
242.77
270.60
283.99
287.28
285.40
281.97
278.21
272.96
264.09
249.91
230.37
207.22
183.36
161.56
143.42
128.99
116.99
105.66
93.63
80.54
66.98
54.12
43.03
34.23
27.54
22.25
17.53
12.75
7.74
2.69
-1.99
-5.96
-9.07
-11.34
-12.99
-14.26
-15.33
-16.27
-17.09
-17.77
-18.26
-18.57
-18.68
-18.61
-18.38
-17.99
-17.44
-16.74
-15.90
-14.94
-13.90
-12.80
-11.54
-10.22
-8.88
-7.53
-6.20
-4.86
-3.50
-2.13
-0.73
0.73
2.23
3.79
5.39
7.06
8.77
10.57
12.42
14.34
16.38
18.44
20.53
22.65
24.83
27.14
29.69
32.61
36.09
40.41
45.54
51.40
57.76
64.15
69.92
74.35
76.37
75.03
69.71
59.84
45.26
26.23
3.47
-21.74
-47.47
-71.93
-94.03
-111.97
-124.50
-131.08
-131.74
-127.37
-119.09
-108.56
-97.79
-88.73
-82.83
-81.24
-84.39
-91.87
-102.77
-115.02
-126.28
-134.32
-137.20
-133.48
-122.60
-104.80
-79.72
-50.14
-18.65
12.42
41.03
65.59
85.17
99.41
108.65
113.77
115.55
115.25
114.01
112.54
111.12
109.85
108.65
107.61
107.21
107.53
109.00
111.60
114.66
116.89
117.03
113.28
104.49
90.78
72.90
52.44
30.97
9.82
-10.16
-28.44
-44.66
-58.27
-68.28
-73.86
-74.81
-71.83
-66.76
-62.01
-59.97
-61.45
-68.02
-80.02
-96.59
-115.25
-131.68
-140.31
-135.92
-116.27
-83.68
-44.93
-8.54
18.42
33.11
37.39
35.96
33.58
32.64
32.88
32.36
29.70
25.09
20.23
17.29
17.46
20.72
25.59
29.67
30.84
28.29
22.88
16.54
11.39
9.01
9.59
12.22
15.73
19.40
23.06
25.98
26.16
20.84
8.32
-9.93
-28.65
-40.63
-40.06
-25.80
-2.21
22.90
42.16
51.91
53.03
49.15
43.81
38.48
32.58
24.96
15.56
5.91
-1.72
-5.78
-6.12
-4.14
-2.21
-2.33
-5.43
-11.00
-17.46
-23.09
-26.81
-28.60
-29.48
-30.92
-34.26
-40.03
-47.86
-56.75
-65.66
-73.94
-81.54
-88.98
-96.82
-105.59
-115.23
-125.03
-133.97
-141.13
-146.02
-148.74
-150.00
-150.98
-152.96
-156.87
-163.08
-171.24
-180.69
-190.42
-199.22
-206.03
-209.26
-207.32
-198.47
-181.12
-154.34
-118.39
-75.05
-27.38
20.70
65.42
103.87
134.82
159.13
178.80
196.47
214.00
231.95
249.28
264.28
274.90
279.80
278.98
273.34
264.50
254.52
245.86
240.60
239.79
242.10
241.81
233.02
210.89
174.54
128.08
79.65
37.93
8.76
-6.89
-12.42
-12.67
-11.67
-11.04
-10.53
-9.47
-8.06
-7.57
-9.32
-13.70
-19.62
-25.27
-28.71
-29.05
-26.62
-22.78
-19.20
-17.12
-16.85
-17.61
-18.20
-17.23
-14.33
-9.76
-4.07
2.09
8.21
13.98
19.19
23.22
25.20
24.15
19.01
9.39
-4.16
-20.25
-37.15
-53.12
-66.84
-77.41
-83.94
-85.31
-80.06
-67.36
-47.29
-21.75
5.81
31.08
49.59
58.00
54.64
39.33
12.90
-22.41
-62.82
-102.76
-136.01
-157.86
-167.15
-167.13
-163.86
-163.00
-166.21
-170.11
-168.07
-153.18
-124.32
-85.47
-43.67
-5.41
25.88
50.19
69.19
84.43
95.96
102.69
104.16
100.88
94.57
87.69
82.21
79.09
78.26
78.81
79.33
78.97
77.49
75.23
72.89
71.31
70.67
71.20
72.77
74.86
76.45
76.15
71.71
61.25
43.62
19.15
-9.97
-40.26
-67.86
-89.89
-104.86
-112.88
-114.84
-111.71
-104.10
-92.62
-78.62
-63.88
-50.00
-37.32
-24.87
-11.59
1.97
12.69
16.27
9.30
-7.48
-28.51
-45.35
-50.14
-39.88
-18.00
7.81
30.08
45.03
54.50
63.39
76.39
94.90
115.73
132.66
138.46
129.95
108.65
80.09
51.08
26.70
8.56
-5.00
-16.59
-27.68
-37.36
-43.61
-44.64
-40.45
-32.98
-25.22
-20.04
-18.77
-20.86
-24.16
-26.35
-25.86
-22.51
-17.44
-12.43
-9.03
-7.88
-8.59
-9.93
-10.65
-10.20
-8.42
-5.90
-3.53
-2.06
-1.75
-2.38
-3.38
-4.19
-4.52
-4.37
-4.00
-3.80
-4.03
-4.74
-5.87
-7.22
-8.62
-9.98
-11.31
-12.70
-14.26
-16.09
-18.17
-20.50
-23.14
-26.05
-29.29
-32.91
-36.94
-41.48
-46.49
-51.71
-56.76
-61.32
-64.88
-66.89
-66.91
-64.68
-60.32
-54.23
-47.10
-39.77
-33.27
-28.53
-26.27
-26.96
-30.66
-37.17
-45.93
-56.17
-67.08
-77.82
-87.52
-95.46
-101.43
-104.99
-105.87
-103.86
-98.84
-90.78
-79.78
-66.10
-50.26
-33.06
-15.07
2.85
19.90
35.56
49.67
62.54
74.73
87.02
100.06
114.35
129.82
145.93
161.81
176.27
187.99
195.56
197.78
193.79
183.18
165.96
142.61
114.24
82.21
48.14
13.48
-20.57
-53.24
-84.05
-112.55
-138.05
-159.44
-175.37
-184.27
-185.02
-177.40
-162.56
-142.95
-121.48
-100.98
-83.22
-68.63
-55.99
-43.22
-28.12
-9.35
13.18
38.42
64.50
89.68
112.77
133.77
154.22
176.80
204.49
237.90
274.99
310.48
336.97
347.41
337.67
308.47
265.61
218.43
177.09
150.00
141.38
150.33
171.09
193.49
206.52
201.25
173.44
124.04
58.00
-18.24
-98.86
-179.33
-256.48
-327.85
-391.77
-447.10
-493.43
-530.72
-558.81
-578.25
-588.19
-586.86
-572.08
-542.35
-497.37
-438.38
-367.97
-289.97
-208.99
-129.82
-57.06
5.54
55.88
93.58
119.90
136.59
145.56
148.10
145.40
139.11
131.95
127.17
127.47
133.64
144.17
156.31
167.30
174.87
176.77
170.21
152.59
123.62
87.56
53.43
32.65
34.20
60.16
104.40
155.13
199.47
227.88
236.22
225.49
200.67
169.20
139.04
116.40
103.43
96.93
89.11
71.11
37.71
-9.39
-61.78
-107.50
-136.03
-142.85
-131.15
-109.81
-88.73
-73.93
-64.76
-55.55
-40.08
-16.48
9.96
28.75
29.55
8.14
-30.83
-75.23
-111.39
-130.14
-130.57
-119.49
-107.49
-103.80
-112.28
-130.20
-149.27
-159.56
-153.39
-129.13
-91.92
-51.26
-16.57
7.10
20.73
29.37
37.93
47.24
53.39
50.99
38.90
23.76
18.48
35.89
80.47
143.75
206.44
246.89
250.70
217.67
161.21
101.99
58.75
41.33
48.87
72.91
102.46
128.06
144.16
147.68
136.77
110.18
67.90
13.68
-43.88
-92.85
-122.63
-128.16
-112.50
-85.42
-59.00
-42.32
-37.63
-41.13
-46.54
-50.21
-52.17
-55.15
-61.51
-70.73
-78.53
-77.69
-62.01
-29.56
15.08
63.39
106.34
138.66
160.13
171.22
175.05
173.72
173.00
173.83
175.19
172.61
164.53
152.48
140.89
136.31
143.91
164.42
192.10
217.64
231.94
231.04
217.68
199.71
185.54
179.21
179.00
178.58
171.61
154.50
126.91
89.76
43.77
-10.51
-71.13
-132.93
-189.25
-231.97
-255.03
-256.98
-240.96
-213.73
-182.59
-153.63
-131.90
-120.84
-121.99
-135.07
-157.74
-186.08
-215.41
-241.13
-259.04
-266.26
-261.65
-245.44
-219.30
-185.86
-148.01
-108.58
-70.07
-34.48
-3.59
21.18
39.27
50.74
56.15
56.73
54.15
49.92
45.48
41.58
38.25
35.27
32.22
28.81
25.02
21.09
17.39
14.28
11.85
9.99
8.51
7.13
5.63
3.96
2.17
0.40
-1.19
-2.56
-3.70
-4.65
-5.45
-6.15
-6.78
-7.33
-7.77
-8.07
-8.24
-8.30
-8.24
-8.10
-7.87
-7.60
-7.26
-6.83
-6.32
-5.72
-5.01
-4.21
-3.27
-2.20
-1.01
0.30
1.71
3.27
4.88
6.47
8.00
9.48
11.02
12.60
14.27
16.10
18.08
20.34
23.07
26.43
30.74
36.27
42.93
50.47
58.38
65.71
71.55
74.67
73.86
68.42
57.87
41.95
20.73
-5.20
-35.16
-67.90
-101.74
-134.69
-164.03
-187.16
-202.01
-207.21
-202.40
-188.43
-166.83
-138.25
-105.90
-71.81
-37.55
-4.72
25.12
50.52
69.83
82.05
86.88
84.93
78.36
69.76
61.41
54.94
51.28
50.43
52.26
56.34
61.33
65.66
67.28
64.83
58.85
52.08
48.50
51.45
61.30
74.72
86.47
91.59
87.79
76.36
60.95
45.66
33.54
25.76
22.07
22.60
27.72
37.19
48.73
57.54
57.57
44.49
17.82
-17.92
-54.59
-84.06
-101.34
-106.30
-103.03
-96.92
-92.20
-90.51
-91.33
-92.86
-92.72
-88.66
-79.27
-64.80
-47.62
-31.69
-20.78
-16.76
-18.71
-23.95
-30.16
-36.92
-45.79
-58.84
-76.79
-97.89
-118.15
-132.55
-136.78
-128.43
-107.70
-77.50
-42.95
-10.50
14.05
27.20
28.89
21.94
10.45
-1.71
-11.87
-18.70
-21.85
-22.15
-21.54
-22.51
-26.39
-32.18
-36.84
-36.68
-29.28
-14.64
4.75
25.40
44.10
58.35
66.43
67.24
60.31
47.19
31.69
19.22
15.08
21.90
37.52
56.05
70.66
76.43
73.06
64.23
55.52
51.16
52.00
54.58
53.07
42.31
19.93
-12.19
-49.60
-86.82
-119.92
-145.80
-162.46
-167.26
-157.66
-131.84
-89.37
-32.99
30.82
93.14
144.47
178.05
193.10
194.13
189.26
186.99
191.54
200.88
207.86
203.64
179.67
135.93
77.96
13.97
-47.81
-102.15
-147.27
-183.49
-211.78
-233.59
-247.78
-252.36
-246.07
-227.92
-198.43
-159.10
-111.79
-58.88
-3.30
51.27
98.90
131.45
143.22
133.74
108.68
78.24
52.99
40.20
41.25
51.32
62.92
70.90
74.74
78.26
88.59
109.58
141.43
180.00
217.72
245.58
256.37
246.35
215.72
168.39
110.52
49.48
-7.56
-54.21
-85.17
-96.64
-87.85
-61.33
-25.28
8.88
30.56
33.62
18.16
-9.96
-42.02
-70.26
-90.26
-101.55
-106.46
-107.83
-107.83
-107.76
-107.90
-108.18
-108.29
-108.07
-107.28
-105.87
-103.78
-101.24
-98.67
-96.35
-94.43
-92.94
-91.95
-91.78
-93.14
-96.73
-103.60
-114.35
-128.52
-144.40
-159.50
-171.08
-177.02
-177.10
-171.22
-159.80
-143.50
-121.92
-94.14
-59.10
-16.28
33.68
89.02
146.88
202.78
249.72
280.60
289.77
275.59
241.66
196.78
151.85
116.53
95.64
88.05
88.52
90.42
89.13
83.67
77.46
74.43
77.83
87.85
101.14
111.43
111.83
97.89
69.81
31.99
-8.66
-45.01
-72.03
-87.83
-93.10
-90.19
-82.03
-71.23
-59.80
-48.59
-36.61
-22.08
-3.80
18.10
41.81
64.66
84.06
98.56
106.21
105.26
94.75
75.63
51.68
28.97
13.46
7.70
10.17
15.09
15.63
7.26
-10.49
-34.21
-58.88
-80.40
-97.04
-109.20
-118.29
-125.29
-130.45
-133.49
-134.08
-132.26
-128.34
-122.91
-116.40
-109.60
-102.19
-93.49
-82.64
-68.85
-51.90
-32.23
-11.16
9.49
27.67
41.98
51.90
57.96
61.33
63.44
65.59
68.85
73.88
80.83
88.79
94.83
94.32
82.58
57.61
22.33
-15.52
-46.24
-62.27
-61.93
-50.12
-35.82
-27.45
-28.80
-37.71
-47.77
-52.10
-46.39
-30.36
-6.72
20.71
48.93
75.91
99.74
118.46
131.01
137.15
138.84
140.04
144.96
155.27
168.53
177.92
176.75
160.90
130.72
90.66
47.03
5.29
-31.55
-62.93
-89.36
-110.80
-126.72
-136.52
-140.35
-139.67
-137.18
-136.14
-139.18
-147.58
-160.42
-175.64
-190.73
-203.37
-211.57
-214.18
-209.45
-196.13
-174.59
-147.45
-119.40
-95.25
-77.52
-64.66
-52.12
-34.31
-7.92
26.38
64.39
100.55
130.59
152.95
168.31
178.12
183.37
184.00
179.74
171.10
159.75
148.08
138.52
132.29
129.28
128.60
128.50
127.56
125.32
122.39
119.88
118.74
119.08
120.08
120.18
117.86
111.58
100.66
85.40
66.77
46.08
24.33
2.39
-19.16
-39.78
-58.94
-75.88
-89.77
-100.07
-106.56
-109.47
-109.04
-105.53
-98.90
-88.82
-74.80
-56.75
-35.55
-12.96
8.62
26.76
39.64
46.64
48.14
45.23
38.98
29.68
16.88
-0.25
-22.11
-47.95
-75.60
-101.81
-123.52
-138.83
-147.88
-152.66
-156.14
-160.90
-168.13
-177.42
-187.28
-195.72
-200.20
-197.87
-185.94
-162.85
-129.85
-91.82
-56.21
-29.98
-15.58
-9.11
-2.33
12.32
36.57
64.67
86.42
93.07
82.51
59.93
35.26
18.25
14.35
23.58
42.01
64.23
84.96
98.90
100.71
86.38
55.63
13.71
-29.10
-60.98
-73.10
-62.86
-34.10
5.72
49.15
90.93
127.71
156.37
172.54
171.14
148.76
105.90
47.59
-18.53
-85.64
-149.93
-210.09
-264.83
-310.54
-340.76
-348.15
-328.05
-281.48
-216.61
-147.26
-88.86
-53.86
-47.71
-66.88
-100.57
-134.53
-156.09
-158.36
-141.53
-110.96
-73.57
-34.53
4.30
43.05
82.14
120.84
157.00
188.27
213.19
231.86
245.45
255.53
263.16
268.92
273.51
278.09
284.90
297.25
317.77
346.35
378.55
405.18
415.48
401.15
359.36
294.14
214.90
132.73
57.11
-5.91
-53.82
-87.29
-106.03
-109.46
-97.82
-73.14
-39.88
-3.62
30.45
58.57
79.66
95.12
106.82
116.08
122.89
125.66
122.47
114.75
101.69
83.40
61.33
36.69
9.99
-19.11
-51.88
-89.09
-130.14
-173.00
-213.27
-244.85
-262.58
-263.65
-244.70
-206.40
-152.40
-88.43
-21.14
43.93
103.74
157.22
202.70
237.17
256.22
255.90
233.60
187.48
118.58
31.08
-68.24
-170.04
-262.45
-332.95
-371.13
-372.25
-339.14
-287.44
-228.43
-171.09
-121.70
-83.72
-58.75
-47.22
-49.04
-61.42
-80.69
-100.87
-116.56
-123.69
-120.73
-109.79
-96.81
-90.14
-97.48
-122.84
-162.98
-209.99
-253.53
-284.80
-299.93
-300.83
-292.90
-281.23
-267.89
-247.29
-213.85
-164.27
-99.51
-25.01
51.36
122.39
183.79
234.33
274.99
306.51
328.87
341.61
344.60
338.61
325.78
309.27
292.16
277.02
264.64
254.46
245.39
236.59
227.51
217.84
207.54
196.56
184.66
172.61
159.36
144.24
127.41
109.34
90.17
69.40
46.00
19.01
-11.77
-45.28
-79.19
-110.19
-134.82
-150.64
-157.14
-155.76
-149.38
-141.42
-135.48
-134.31
-137.42
-140.87
-138.56
-125.12
-99.36
-65.36
-31.12
-3.71
9.63
6.60
-9.06
-29.37
-45.33
-50.01
-40.40
-17.80
16.01
53.85
86.38
105.37
107.05
93.06
68.86
40.49
12.61
-11.79
-31.67
-45.77
-52.92
-52.69
-46.27
-36.42
-26.50
-19.24
-15.69
-15.53
-16.96
-17.67
-16.02
-11.74
-5.96
-0.49
3.11
4.19
2.81
0.02
-2.81
-4.59
-5.03
-4.68
-4.54
-5.59
-8.33
-12.85
-18.69
-25.22
-31.87
-38.42
-45.10
-52.36
-60.70
-70.42
-81.67
-94.24
-107.94
-122.50
-137.83
-153.96
-171.05
-189.36
-209.08
-230.34
-253.08
-277.34
-303.08
-330.18
-358.43
-387.16
-415.40
-441.63
-464.40
-480.84
-488.22
-483.01
-461.69
-421.56
-361.38
-281.77
-185.33
-76.45
39.33
155.54
265.20
362.26
442.23
502.46
542.17
562.27
565.02
553.59
532.47
504.97
473.77
440.91
407.84
375.43
344.19
314.42
286.13
259.32
233.86
209.80
187.24
166.19
146.63
128.45
111.56
95.86
81.28
67.70
55.13
43.65
33.25
23.94
15.62
8.19
1.53
-4.42
-9.77
-14.51
-18.59
-21.98
-24.71
-26.88
-28.63
-30.07
-31.23
-32.11
-32.61
-32.58
-32.00
-30.96
-29.66
-28.36
-27.24
-26.31
-25.38
-24.20
-22.48
-20.15
-17.38
-14.56
-12.13
-10.37
-9.28
-8.54
-7.61
-6.01
-3.53
-0.34
3.02
5.98
8.15
9.43
10.12
10.64
11.42
12.84
15.30
19.04
23.82
28.55
31.22
29.39
21.23
6.69
-12.16
-31.56
-47.55
-57.41
-60.47
-57.91
-51.96
-44.95
-38.71
-34.55
-33.13
-34.34
-37.04
-39.14
-38.27
-32.92
-23.48
-12.44
-3.54
-0.12
-3.74
-13.75
-27.80
-42.81
-55.86
-64.31
-65.93
-59.25
-44.38
-23.67
-1.47
17.22
28.55
31.38
27.29
19.28
9.89
0.12
-10.41
-22.11
-34.43
-45.57
-53.58
-57.67
-58.68
-58.76
-60.24
-64.45
-70.91
-77.33
-80.09
-75.32
-60.51
-35.85
-4.57
27.95
56.08
76.16
87.66
93.00
95.56
97.74
99.58
98.77
91.88
76.31
52.17
23.11
-4.45
-23.74
-30.54
-25.37
-13.37
-1.72
4.23
3.56
-0.37
-2.51
0.29
7.16
13.86
15.67
10.59
0.70
-9.01
-13.53
-10.85
-2.81
5.98
10.77
8.90
1.08
-9.82
-20.73
-29.85
-36.53
-40.26
-39.72
-33.27
-20.84
-5.25
8.09
13.53
8.13
-6.24
-24.48
-41.31
-53.66
-60.97
-63.56
-60.77
-50.94
-33.05
-8.41
19.22
45.29
66.63
82.40
92.75
97.00
93.04
79.06
54.86
23.86
-7.83
-34.30
-52.56
-63.35
-69.28
-71.88
-69.88
-60.54
-42.44
-18.00
6.12
21.21
21.40
6.84
-15.47
-34.87
-41.98
-33.36
-12.54
12.47
33.43
45.97
50.32
50.23
50.08
52.16
55.89
59.50
61.91
64.14
68.91
77.97
91.64
108.21
123.89
132.79
130.30
115.11
90.24
62.32
37.49
21.32
17.34
25.43
40.28
55.02
64.04
64.53
57.02
41.38
19.62
-4.47
-27.11
-47.56
-65.75
-81.39
-93.81
-102.86
-113.85
-132.35
-163.08
-198.73
-236.04
-271.52
-301.62
-323.44
-311.99
-262.39
-190.82
-120.23
-63.72
-24.11
2.72
22.30
39.33
56.65
71.71
82.61
90.63
98.75
107.33
117.24
127.70
137.32
144.33
144.06
133.53
113.23
86.70
58.15
31.37
9.20
-6.54
-15.70
-21.38
-26.83
-33.64
-41.57
-49.72
-56.39
-59.74
-58.51
-52.81
-45.32
-39.28
-37.05
-39.33
-45.76
-55.13
-65.33
-73.21
-74.77
-66.39
-46.40
-16.78
16.13
42.94
54.68
46.80
21.70
-11.86
-42.18
-59.32
-58.56
-41.46
-14.12
15.96
42.86
63.52
77.38
85.13
87.55
85.02
77.69
66.45
53.15
40.87
32.64
30.37
33.67
39.32
42.06
36.41
18.82
-10.12
-45.15
-77.93
-100.04
-105.83
-96.03
-75.91
-52.83
-32.78
-18.30
-8.48
-0.69
7.35
16.15
24.66
31.75
36.76
39.95
42.05
43.52
43.55
40.39
32.40
19.38
4.13
-8.37
-12.81
-6.50
8.97
28.24
44.50
52.70
51.56
43.82
34.16
26.77
23.56
23.97
26.03
27.84
28.54
28.19
27.54
27.10
27.24
27.79
28.47
29.40
30.86
32.22
31.30
24.74
9.10
-16.69
-50.13
-85.29
-114.74
-132.35
-135.61
-125.92
-106.25
-81.55
-54.81
-27.33
-0.01
25.53
46.85
61.39
68.01
67.44
61.71
53.33
44.21
34.52
23.28
9.35
-8.05
-28.74
-51.67
-75.12
-96.13
-110.89
-115.46
-107.38
-86.30
-55.77
-22.17
7.40
27.78
37.71
39.46
36.97
33.63
31.02
28.65
25.50
21.28
16.87
13.85
13.24
14.82
17.27
19.01
18.69
16.18
12.36
8.58
6.11
5.48
6.32
7.68
8.47
7.95
6.07
3.40
0.78
-1.05
-1.81
-1.71
-1.31
-1.22
-1.88
-3.31
-5.22
-7.18
-8.83
-10.05
-10.94
-11.81
-12.96
-14.62
-16.80
-19.40
-22.20
-24.91
-27.35
-29.30
-30.65
-31.27
-31.12
-30.29
-28.96
-27.44
-26.03
-25.00
-24.38
-24.04
-23.59
-22.52
-20.21
-16.22
-10.31
-2.54
6.70
16.80
26.98
36.48
44.53
50.52
54.00
54.77
53.03
49.25
44.35
39.43
35.68
34.05
34.97
38.21
42.98
48.14
52.58
55.54
56.80
56.74
55.95
55.03
54.27
53.63
52.95
51.87
50.35
48.79
47.98
48.81
51.96
57.62
65.05
72.60
77.38
76.00
65.53
44.36
12.97
-25.98
-68.11
-108.34
-140.58
-160.29
-165.71
-157.80
-139.45
-114.47
-86.81
-59.95
-36.38
-17.33
-2.95
7.84
16.80
25.42
34.49
43.70
51.80
57.44
59.38
56.56
48.41
34.94
16.56
-4.91
-26.23
-43.73
-54.48
-58.37
-58.34
-58.81
-63.32
-73.44
-87.87
-103.89
-119.12
-132.21
-143.50
-153.91
-163.73
-168.06
-164.47
-152.63
-134.74
-117.27
-102.99
-93.24
-88.36
-88.00
-89.89
-91.05
-88.35
-78.68
-60.65
-34.63
-3.19
29.64
59.71
86.18
109.17
127.39
137.00
132.93
112.59
78.98
41.14
11.77
2.76
22.48
68.28
124.86
170.95
190.42
180.16
156.94
135.00
126.75
138.03
167.02
207.20
252.33
293.14
325.80
348.49
349.81
325.40
277.85
215.41
148.85
87.64
37.58
4.62
-14.19
-23.83
-27.00
-26.21
-24.56
-24.96
-29.24
-35.97
-40.81
-39.92
-31.52
-15.55
4.89
24.52
38.33
43.54
40.17
30.57
17.05
1.85
-12.54
-24.58
-34.35
-43.50
-54.94
-71.49
-94.50
-123.68
-156.71
-190.39
-222.75
-254.23
-286.97
-322.43
-358.65
-389.03
-403.75
-393.08
-351.69
-281.17
-189.44
-87.42
14.73
110.22
195.64
269.42
330.17
375.89
404.70
415.98
410.81
391.33
359.83
318.18
268.39
213.47
156.97
102.65
53.03
8.53
-32.29
-71.36
-109.56
-145.87
-177.98
-204.35
-224.73
-240.61
-254.49
-269.55
-288.90
-315.25
-349.57
-390.23
-433.51
-472.89
-500.89
-511.28
-502.33
-477.37
-443.82
-409.20
-378.43
-354.05
-335.17
-318.91
-301.05
-278.13
-247.66
-208.62
-160.19
-96.21
-18.09
65.99
144.17
207.41
251.86
283.97
309.60
332.59
355.04
377.34
400.87
421.42
439.06
455.36
472.44
491.38
512.48
534.50
553.25
563.12
558.49
536.55
497.18
443.66
381.40
317.51
258.85
209.74
171.85
144.36
125.66
113.03
103.35
92.98
78.48
56.67
24.65
-19.18
-74.00
-135.15
-195.34
-245.87
-279.23
-291.16
-281.88
-256.16
-221.67
-186.61
-157.12
-136.46
-124.75
-119.95
-118.97
-118.77
-117.01
-112.23
-103.98
-92.53
-78.93
-64.74
-51.75
-41.45
-34.58
-30.90
-29.41
-28.91
-28.39
-27.40
-25.88
-24.05
-22.19
-20.72
-20.31
-21.78
-25.79
-32.44
-41.13
-50.82
-60.33
-68.55
-74.28
-76.13
-72.65
-62.96
-47.65
-29.30
-12.09
-0.76
1.00
-8.45
-28.10
-54.36
-81.83
-104.39
-116.59
-115.10
-99.66
-73.00
-39.63
-4.19
29.86
60.55
86.73
107.20
120.45
125.20
121.36
110.64
96.12
81.11
67.85
57.01
47.84
39.10
30.08
20.90
12.08
3.79
-4.55
-14.22
-26.31
-40.86
-56.38
-70.21
-79.40
-81.69
-75.99
-62.24
-41.05
-13.40
19.21
54.48
89.27
120.05
143.74
158.61
164.60
163.19
156.87
148.69
141.51
137.39
136.98
139.28
141.92
142.05
137.41
127.14
111.95
93.39
73.11
52.03
30.20
7.31
-16.64
-40.95
-64.50
-86.32
-106.24
-125.13
-144.43
-165.52
-189.15
-215.37
-243.76
-273.67
-303.98
-332.60
-356.07
-369.82
-369.54
-352.70
-319.76
-274.27
-221.66
-167.30
-114.76
-65.03
-17.12
30.63
78.89
126.51
170.75
208.20
235.98
252.32
256.53
248.17
226.67
191.50
143.43
85.69
24.28
-33.21
-79.80
-111.23
-126.98
-129.71
-123.55
-112.33
-98.70
-84.23
-70.12
-57.76
-48.57
-43.33
-41.54
-41.45
-40.87
-38.18
-32.99
-26.00
-18.31
-10.49
-2.20
7.54
19.57
33.81
49.00
63.18
74.52
82.13
86.37
88.60
90.61
93.93
99.36
106.82
115.49
124.25
132.13
138.72
144.27
149.55
155.51
162.89
171.85
181.78
191.32
198.64
201.88
199.80
192.17
179.80
164.22
147.35
130.91
116.06
103.06
91.11
78.30
61.88
38.84
6.70
-35.34
-85.86
-141.39
-197.35
-249.43
-294.48
-330.55
-356.62
-372.41
-378.41
-376.14
-368.13
-357.14
-344.81
-330.52
-311.15
-282.18
-239.78
-182.92
-114.58
-41.64
26.52
80.06
110.85
114.30
90.83
46.36
-8.40
-60.27
-97.02
-110.48
-98.29
-63.51
-12.45
47.87
111.53
173.94
230.92
277.88
310.14
324.01
318.42
295.75
261.29
221.49
182.05
146.60
116.48
91.54
71.03
54.43
41.56
32.31
26.30
22.44
19.11
14.50
7.27
-3.00
-15.64
-29.24
-42.25
-53.50
-62.57
-69.67
-75.24
-79.56
-82.52
-83.75
-82.78
-79.50
-74.24
-67.71
-60.86
-54.51
-49.26
-45.45
-43.14
-42.05
-41.64
-41.09
-39.61
-36.68
-32.24
-26.76
-20.96
-15.53
-10.94
-7.41
-5.13
-4.36
-5.41
-8.37
-12.84
-17.88
-22.22
-24.72
-24.77
-22.45
-18.33
-13.13
-7.46
-1.60
4.39
10.49
16.54
22.24
27.12
30.75
32.91
33.65
33.38
32.69
32.27
32.58
33.84
35.92
38.49
41.15
43.46
45.09
45.79
45.41
43.86
41.23
37.73
33.75
29.70
25.91
22.55
19.57
16.96
14.83
13.60
13.77
15.66
19.04
23.06
26.52
28.26
27.58
24.39
19.05
12.03
3.74
-5.52
-15.40
-25.38
-34.78
-42.94
-49.39
-53.97
-56.80
-58.11
-58.24
-57.49
-56.17
-54.50
-52.51
-50.07
-46.87
-42.58
-37.00
-30.07
-21.94
-12.80
-2.92
7.45
17.95
28.04
36.99
43.95
48.18
49.19
47.07
42.40
36.13
29.19
22.13
14.97
7.23
-1.65
-11.88
-22.99
-33.90
-43.19
-49.75
-53.15
-53.94
-53.54
-53.67
-55.78
-60.49
-67.30
-74.78
-81.11
-84.73
-84.88
-81.89
-77.09
-72.69
-71.39
-75.76
-87.31
-105.32
-126.30
-144.53
-154.03
-151.13
-136.45
-114.93
-93.79
-79.30
-74.09
-76.59
-82.51
-87.58
-89.52
-88.38
-85.20
-80.13
-71.39
-55.77
-30.51
4.91
47.90
93.63
137.10
175.15
207.10
233.80
256.09
273.56
284.80
288.64
285.54
277.96
269.49
263.20
260.51
261.08
263.74
267.45
271.63
275.82
279.10
280.16
278.02
272.99
266.93
262.43
261.30
263.19
265.24
262.98
251.72
228.22
191.63
143.79
88.76
31.94
-21.12
-65.94
-100.16
-124.10
-140.48
-153.34
-166.56
-182.32
-200.39
-218.40
-232.98
-241.18
-241.55
-234.59
-222.49
-208.49
-196.01
-187.87
-185.71
-189.57
-197.96
-208.30
-217.47
-222.64
-221.89
-214.58
-201.30
-183.57
-163.45
-143.07
-124.14
-107.68
-93.85
-82.01
-71.09
-60.05
-48.33
-36.07
-24.04
-13.28
-4.64
1.53
5.45
7.70
9.05
10.11
11.19
12.27
13.12
13.39
12.74
10.92
7.93
4.06
-0.09
-3.73
-6.02
-6.35
-4.59
-1.06
3.41
7.86
11.41
13.53
14.07
13.29
11.61
9.50
7.35
5.45
3.93
2.90
2.34
2.20
2.42
2.91
3.62
4.54
5.68
7.03
8.57
10.21
11.79
13.09
13.88
13.99
13.44
12.40
11.15
10.02
9.14
8.50
7.95
7.35
6.70
6.14
5.85
5.93
6.26
6.55
6.48
5.87
4.71
3.20
1.55
-0.11
-1.82
-3.70
-5.91
-8.52
-11.49
-14.61
-17.57
-19.93
-21.29
-21.37
-20.08
-17.60
-14.36
-10.87
-7.67
-5.14
-3.45
-2.57
-2.32
-2.40
-2.52
-2.47
-2.13
-1.59
-1.05
-0.79
-1.06
-1.97
-3.47
-5.32
-7.26
-9.00
-10.37
-11.38
-12.12
-12.77
-13.46
-14.25
-15.18
-16.17
-17.14
-17.93
-18.37
-18.25
-17.40
-15.76
-13.42
-10.61
-7.61
-4.74
-2.22
-0.09
1.65
3.07
4.21
5.13
5.82
6.31
6.65
6.88
6.99
6.88
6.38
5.31
3.66
1.66
-0.20
-1.28
-1.05
0.68
3.73
7.55
11.43
14.73
16.98
18.01
17.94
17.10
16.02
15.26
15.26
16.18
17.83
19.77
21.52
22.78
23.44
23.62
23.51
23.18
22.62
21.69
20.29
18.41
16.18
13.76
11.33
9.04
6.94
5.10
3.55
2.31
1.36
0.66
0.15
-0.24
-0.56
-0.84
-1.06
-1.16
-1.12
-1.02
-0.98
-1.16
-1.67
-2.52
-3.58
-4.58
-5.35
-5.81
-6.08
-6.40
-7.06
-8.20
-9.74
-11.34
-12.51
-12.74
-11.70
-9.31
-5.83
-1.69
2.61
6.65
10.10
12.82
14.82
16.17
17.06
17.68
18.24
18.84
19.46
20.04
20.49
20.76
20.89
20.96
21.02
21.12
21.24
21.28
21.17
20.79
20.04
18.81
17.09
14.93
12.48
9.93
7.46
5.23
3.37
1.90
0.81
0.05
-0.52
-1.09
-1.84
-2.95
-4.46
-6.30
-8.35
-10.44
-12.39
-14.15
-15.69
-17.05
-18.32
-19.56
-20.79
-22.04
-23.29
-24.58
-25.88
-27.20
-28.37
-29.15
-29.22
-28.32
-26.36
-23.47
-19.99
-16.34
-12.91
-9.89
-7.39
-5.32
-3.54
-1.89
-0.19
1.66
3.68
5.82
7.96
9.94
11.68
13.09
14.15
14.89
15.33
15.51
15.52
15.45
15.38
15.28
15.13
14.81
14.28
13.55
12.68
11.69
10.62
9.45
8.19
6.92
5.73
4.72
3.90
3.19
2.50
1.74
0.90
0.03
-0.82
-1.62
-2.39
-3.18
-4.05
-5.01
-6.07
-7.19
-8.29
-9.31
-10.13
-10.70
-11.11
-11.58
-12.48
-14.08
-16.37
-18.94
-20.98
-21.69
-20.59
-17.73
-13.89
-10.16
-7.59
-6.75
-7.52
-9.24
-11.07
-12.45
-13.34
-14.24
-15.93
-19.09
-23.94
-30.19
-37.13
-43.92
-49.73
-53.85
-55.77
-55.36
-52.97
-49.57
-46.59
-45.38
-46.72
-50.42
-55.30
-59.70
-62.18
-62.03
-59.41
-54.79
-48.34
-39.60
-27.77
-12.38
6.00
25.49
43.51
57.80
67.58
73.94
79.28
86.03
95.28
106.15
116.24
122.92
124.79
122.53
118.56
115.69
115.61
117.95
120.35
119.49
112.37
97.16
73.69
43.83
11.76
-16.01
-31.79
-29.15
-5.94
33.59
79.07
117.21
136.76
132.60
107.24
68.92
27.63
-8.73
-36.39
-55.25
-67.07
-73.62
-75.99
-74.91
-71.50
-67.41
-64.47
-63.76
-65.09
-66.88
-66.87
-63.27
-55.58
-44.93
-33.64
-24.28
-18.68
-17.37
-19.70
-24.35
-29.92
-35.40
-40.25
-44.19
-46.95
-47.97
-46.37
-41.11
-31.33
-16.71
2.28
24.29
47.15
68.27
85.30
96.73
102.24
102.80
100.11
96.05
92.03
88.74
86.21
84.14
82.16
79.98
77.49
74.68
71.60
68.38
65.08
61.59
57.62
52.69
46.30
38.21
28.57
17.98
7.25
-2.82
-11.68
-19.15
-25.31
-30.37
-34.52
-37.86
-40.40
-42.15
-43.11
-43.32
-42.81
-41.67
-40.04
-38.11
-36.12
-34.24
-32.47
-30.67
-28.59
-25.94
-22.57
-18.54
-14.07
-9.53
-5.37
-1.97
0.37
1.47
1.29
-0.08
-2.43
-5.44
-8.70
-11.86
-14.62
-16.84
-18.53
-19.80
-20.80
-21.63
-22.30
-22.68
-22.73
-22.43
-21.90
-21.35
-20.99
-20.92
-21.14
-21.53
-21.90
-22.16
-22.26
-22.27
-22.30
-22.42
-22.64
-22.90
-23.17
-23.41
-23.62
-23.71
-23.50
-22.63
-20.77
-17.74
-13.60
-8.74
-3.76
0.72
4.24
6.60
7.84
8.22
8.04
7.60
7.04
6.48
5.91
5.35
4.81
4.31
3.88
3.56
3.34
3.25
3.32
3.61
4.13
4.81
5.50
5.98
6.06
5.65
4.76
3.56
2.23
0.98
-0.06
-0.84
-1.28
-1.36
-1.07
-0.46
0.34
1.12
1.66
1.84
1.71
1.40
1.13
1.00
0.96
0.84
0.40
-0.51
-1.97
-3.88
-6.03
-8.13
-9.91
-11.23
-12.07
-12.62
-13.17
-14.00
-15.26
-16.81
-18.24
-19.01
-18.59
-16.64
-13.24
-8.78
-3.91
0.69
4.44
7.04
8.43
8.82
8.53
7.92
7.30
6.86
6.61
6.45
6.16
5.62
4.75
3.60
2.31
1.05
0.03
-0.59
-0.68
-0.23
0.62
1.58
2.18
1.99
0.76
-1.53
-4.54
-7.76
-10.64
-12.82
-14.23
-15.10
-15.79
-16.70
-18.02
-19.70
-21.52
-23.20
-24.52
-25.45
-26.11
-26.62
-27.09
-27.53
-27.96
-28.49
-29.27
-30.28
-31.09
-30.77
-28.04
-21.88
-12.02
0.76
14.79
28.13
39.31
47.62
53.19
56.58
58.28
58.59
57.73
56.08
54.24
52.91
52.49
52.83
53.21
52.59
50.13
45.55
39.20
31.99
24.91
18.66
13.53
9.38
5.86
2.66
-0.36
-3.13
-5.50
-7.33
-8.63
-9.50
-10.08
-10.45
-10.58
-10.45
-10.02
-9.34
-8.50
-7.65
-6.91
-6.37
-6.09
-6.03
-6.08
-6.12
-6.05
-5.84
-5.55
-5.29
-5.13
-5.03
-4.86
-4.47
-3.78
-2.92
-2.12
-1.61
-1.52
-1.79
-2.28
-2.80
-3.32
-3.87
-4.58
-5.55
-6.78
-8.21
-9.73
-11.27
-12.76
-14.16
-15.43
-16.54
-17.51
-18.44
-19.50
-20.85
-22.44
-23.99
-25.02
-24.97
-23.45
-20.41
-16.12
-11.19
-6.29
-2.01
1.27
3.40
4.47
4.66
4.26
3.58
2.92
2.52
2.49
2.80
3.30
3.80
4.17
4.35
4.39
4.40
4.46
4.63
4.91
5.26
5.70
6.16
6.58
6.91
7.06
6.94
6.59
6.02
5.26
4.42
3.51
2.59
1.73
1.00
0.48
0.17
0.06
0.03
0.04
0.05
0.10
0.24
0.45
0.63
0.62
0.27
-0.44
-1.39
-2.43
-3.40
-4.30
-5.20
-6.29
-7.73
-9.62
-11.94
-14.53
-17.17
-19.44
-20.84
-20.86
-19.07
-15.34
-9.92
-3.43
3.30
9.38
14.13
17.22
18.64
18.68
17.74
16.26
14.59
12.95
11.44
10.08
8.83
7.65
6.49
5.33
4.24
3.28
2.57
2.21
2.23
2.57
3.07
3.58
3.92
3.96
3.63
2.97
2.04
0.95
-0.15
-1.11
-1.79
-2.13
-2.12
-1.85
-1.42
-0.94
-0.55
-0.29
-0.22
-0.27
-0.37
-0.42
-0.33
-0.10
0.14
0.22
-0.07
-0.85
-2.14
-3.78
-5.53
-7.17
-8.56
-9.67
-10.63
-11.60
-12.79
-14.33
-16.28
-18.53
-20.79
-22.57
-23.27
-22.39
-19.67
-15.32
-9.92
-4.32
0.66
4.46
6.92
8.19
8.59
8.43
7.93
7.29
6.61
6.07
5.80
5.89
6.38
7.13
7.96
8.69
9.18
9.42
9.49
9.52
9.60
9.76
9.91
9.97
9.83
9.40
8.68
7.68
6.50
5.31
4.32
3.67
3.44
3.52
3.67
3.65
3.32
2.72
2.03
1.48
1.23
1.35
1.78
2.38
3.02
3.53
3.76
3.64
3.18
2.43
1.51
0.48
-0.65
-1.90
-3.31
-4.85
-6.41
-7.83
-9.02
-10.00
-10.95
-12.11
-13.66
-15.64
-17.92
-20.19
-22.05
-23.07
-22.95
-21.50
-18.77
-15.03
-10.76
-6.53
-2.89
-0.22
1.31
1.79
1.51
0.78
-0.01
-0.58
-0.68
-0.22
0.79
2.22
3.85
5.45
6.80
7.80
8.43
8.84
9.19
9.60
10.13
10.68
11.06
11.09
10.66
9.82
8.74
7.64
6.69
5.95
5.35
4.76
4.14
3.48
2.89
2.45
2.19
1.99
1.72
1.26
0.56
-0.32
-1.23
-2.12
-2.95
-3.76
-4.61
-5.47
-6.30
-7.05
-7.65
-8.19
-8.77
-9.47
-10.34
-11.33
-12.44
-13.70
-15.25
-17.20
-19.57
-22.10
-24.26
-25.42
-25.00
-22.83
-19.19
-14.66
-9.99
-5.78
-2.35
0.23
2.03
3.20
3.93
4.39
4.78
5.31
6.15
7.34
8.78
10.26
11.54
12.46
12.97
13.15
13.15
13.16
13.31
13.61
13.98
14.24
14.23
13.87
13.18
12.28
11.35
10.54
9.94
9.53
9.26
9.02
8.76
8.49
8.23
8.00
7.81
7.67
7.54
7.44
7.33
7.17
6.95
6.65
6.28
5.81
5.21
4.44
3.45
2.24
0.86
-0.57
-1.96
-3.26
-4.51
-5.80
-7.19
-8.64
-10.06
-11.39
-12.64
-13.91
-15.36
-17.19
-19.50
-22.29
-25.36
-28.34
-30.62
-31.61
-30.85
-28.17
-23.86
-18.58
-13.15
-8.27
-4.33
-1.39
0.73
2.29
3.54
4.69
5.86
7.15
8.56
9.97
11.21
12.11
12.63
12.85
13.00
13.25
13.67
14.20
14.72
15.18
15.62
16.16
16.86
17.69
18.46
18.90
18.86
18.28
17.30
16.19
15.11
14.15
13.32
12.53
11.76
11.02
10.40
9.98
9.76
9.66
9.51
9.17
8.53
7.54
6.26
4.78
3.20
1.63
0.13
-1.27
-2.57
-3.79
-4.97
-6.15
-7.42
-8.84
-10.45
-12.22
-14.08
-15.91
-17.64
-19.19
-20.59
-21.95
-23.41
-25.12
-27.20
-29.63
-32.16
-34.29
-35.38
-34.75
-32.08
-27.48
-21.52
-15.08
-9.01
-3.86
0.14
3.09
5.25
6.82
7.93
8.68
9.18
9.63
10.23
11.06
12.09
13.17
14.14
14.91
15.50
15.99
16.51
17.14
17.91
18.75
19.57
20.22
20.60
20.62
20.25
19.59
18.78
17.99
17.33
16.85
16.49
16.19
15.91
15.59
15.24
14.86
14.44
13.93
13.30
12.56
11.69
10.72
9.60
8.30
6.78
5.08
3.29
1.56
-0.01
-1.37
-2.56
-3.73
-5.01
-6.52
-8.23
-10.03
-11.77
-13.30
-14.64
-15.90
-17.31
-19.06
-21.27
-23.87
-26.56
-28.82
-30.04
-29.67
-27.40
-23.33
-17.95
-12.05
-6.47
-1.86
1.48
3.61
4.89
5.73
6.52
7.52
8.82
10.36
11.99
13.52
14.81
15.80
16.53
17.11
17.65
18.27
18.99
19.81
20.66
21.45
22.04
22.36
22.38
22.15
21.73
21.20
20.57
19.80
18.86
17.77
16.61
15.52
14.58
13.81
13.14
12.45
11.63
10.68
9.60
8.48
7.42
6.49
5.69
4.98
4.30
3.62
2.89
2.09
1.17
0.08
-1.23
-2.75
-4.44
-6.21
-7.96
-9.64
-11.24
-12.77
-14.21
-15.54
-16.72
-17.74
-18.68
-19.70
-20.99
-22.69
-24.87
-27.41
-30.06
-32.38
-33.77
-33.65
-31.56
-27.38
-21.42
-14.42
-7.34
-1.13
3.55
6.42
7.64
7.66
7.10
6.56
6.57
7.45
9.31
12.03
15.32
18.78
22.02
24.74
26.76
27.95
28.32
27.88
26.74
25.07
23.06
20.84
18.48
16.00
13.42
10.80
8.23
5.83
3.74
1.97
0.53
-0.64
-1.56
-2.26
-2.71
-2.95
-2.99
-2.91
-2.81
-2.84
-3.12
-3.67
-4.45
-5.32
-6.13
-6.78
-7.25
-7.64
-8.02
-8.45
-8.94
-9.44
-9.85
-10.14
-10.36
-10.63
-11.10
-11.93
-13.18
-14.80
-16.62
-18.40
-19.95
-21.16
-22.10
-23.00
-24.16
-25.81
-28.04
-30.66
-33.21
-35.09
-35.64
-34.40
-31.21
-26.35
-20.44
-14.22
-8.45
-3.64
-0.00
2.52
4.21
5.38
6.33
7.23
8.15
9.06
9.95
10.79
11.57
12.32
13.07
13.84
14.63
15.50
16.47
17.54
18.61
19.56
20.26
20.61
20.58
20.18
19.46
18.49
17.31
16.02
14.69
13.39
12.19
11.09
10.06
9.06
8.05
7.04
6.16
5.53
5.22
5.20
5.30
5.30
4.98
4.27
3.20
1.92
0.56
-0.84
-2.32
-3.92
-5.67
-7.55
-9.46
-11.25
-12.79
-14.03
-14.94
-15.63
-16.29
-17.20
-18.63
-20.75
-23.51
-26.63
-29.67
-32.09
-33.38
-33.17
-31.29
-27.79
-23.00
-17.46
-11.82
-6.71
-2.59
0.39
2.35
3.61
4.56
5.54
6.72
8.16
9.78
11.44
12.99
14.32
15.41
16.31
17.09
17.82
18.51
19.06
19.41
19.51
19.39
19.16
18.92
18.65
18.34
17.87
17.18
16.30
15.32
14.38
13.57
12.92
12.33
11.70
10.92
9.96
8.86
7.70
6.55
5.51
4.60
3.80
3.09
2.40
1.75
1.15
0.60
0.09
-0.48
-1.16
-2.01
-3.03
-4.21
-5.48
-6.82
-8.25
-9.74
-11.31
-12.90
-14.46
-15.93
-17.26
-18.45
-19.57
-20.73
-22.08
-23.80
-25.97
-28.46
-30.92
-32.82
-33.49
-32.47
-29.58
-25.05
-19.50
-13.69
-8.40
-4.14
-1.12
0.81
2.03
2.99
4.10
5.58
7.46
9.63
11.90
14.06
16.03
17.71
19.04
20.02
20.60
20.84
20.85
20.73
20.59
20.46
20.25
19.86
19.22
18.30
17.19
16.03
14.91
13.93
13.15
12.51
11.95
11.34
10.56
9.58
8.43
7.23
6.09
5.07
4.13
3.21
2.28
1.31
0.35
-0.58
-1.49
-2.43
-3.50
-4.77
-6.28
-7.99
-9.91
-11.98
-14.16
-16.34
-18.45
-20.42
-22.31
-24.24
-26.38
-28.87
-31.74
-34.82
-37.77
-40.10
-41.26
-40.86
-38.67
-34.72
-29.33
-23.00
-16.39
-10.12
-4.71
-0.46
2.60
4.69
6.19
7.54
9.11
11.09
13.44
16.00
18.48
20.65
22.35
23.56
24.34
24.80
25.07
25.25
25.44
25.69
25.98
26.20
26.16
25.69
24.75
23.38
21.76
20.12
18.64
17.45
16.51
15.75
15.08
14.47
13.93
13.47
13.08
12.68
12.19
11.48
10.51
9.24
7.69
5.90
3.91
1.74
-0.58
-3.01
-5.48
-7.93
-10.35
-12.78
-15.25
-17.73
-20.10
-22.23
-23.94
-25.22
-26.21
-27.24
-28.64
-30.68
-33.38
-36.49
-39.54
-41.90
-42.99
-42.32
-39.71
-35.31
-29.59
-23.20
-16.81
-10.97
-6.01
-2.05
1.00
3.40
5.44
7.44
9.62
12.09
14.76
17.44
19.85
21.79
23.20
24.16
24.81
25.30
25.71
26.00
26.13
26.04
25.75
25.33
24.86
24.34
23.68
22.74
21.33
19.44
17.16
14.75
12.51
10.67
9.31
8.35
7.62
6.91
6.08
5.03
3.72
2.14
0.34
-1.60
-3.56
-5.44
-7.21
-8.93
-10.77
-12.86
-15.19
-17.67
-20.07
-22.21
-23.98
-25.42
-26.68
-27.98
-29.53
-31.43
-33.61
-35.75
-37.33
-37.69
-36.30
-32.91
-27.71
-21.31
-14.55
-8.19
-2.80
1.41
4.50
6.76
8.53
10.10
11.67
13.30
14.95
16.51
17.90
19.04
19.95
20.68
21.27
21.76
22.11
22.28
22.24
22.03
21.66
21.18
20.61
19.93
19.14
18.25
17.28
16.30
15.35
14.44
13.56
12.66
11.67
10.56
9.28
7.82
6.21
4.52
2.84
1.27
-0.17
-1.54
-2.91
-4.41
-6.14
-8.14
-10.37
-12.77
-15.23
-17.60
-19.81
-21.82
-23.72
-25.70
-27.99
-30.74
-33.97
-37.45
-40.67
-42.90
-43.37
-41.49
-37.09
-30.48
-22.53
-14.34
-6.95
-1.04
3.19
6.00
7.89
9.36
10.78
12.30
13.96
15.74
17.63
19.57
21.44
23.13
24.48
25.44
26.02
26.38
26.72
27.11
27.51
27.75
27.62
26.97
25.82
24.32
22.69
21.11
19.65
18.25
16.87
15.49
14.15
12.94
11.93
11.11
10.35
9.49
8.42
7.08
5.51
3.81
2.06
0.27
-1.52
-3.33
-5.15
-6.98
-8.82
-10.74
-12.79
-15.03
-17.47
-20.02
-22.59
-25.03
-27.30
-29.41
-31.49
-33.71
-36.25
-39.13
-42.13
-44.68
-45.96
-45.17
-41.75
-35.75
-27.81
-19.00
-10.51
-3.27
2.21
5.91
8.16
9.49
10.46
11.52
13.00
14.92
17.12
19.26
20.99
22.11
22.61
22.64
22.42
22.17
22.02
22.06
22.29
22.75
23.32
23.88
24.20
24.05
23.29
21.90
20.01
17.91
15.89
14.14
12.74
11.59
10.50
9.29
7.88
6.32
4.79
3.47
2.46
1.69
1.02
0.25
-0.75
-2.03
-3.52
-5.09
-6.61
-8.00
-9.26
-10.42
-11.61
-12.92
-14.39
-15.95
-17.50
-18.89
-20.07
-21.14
-22.32
-23.91
-26.15
-29.11
-32.56
-35.99
-38.67
-39.79
-38.71
-35.17
-29.39
-22.04
-14.08
-6.50
-0.10
4.70
7.85
9.64
10.56
11.13
11.69
12.44
13.36
14.33
15.23
15.97
16.61
17.26
18.00
18.88
19.88
20.89
21.82
22.60
23.19
23.58
23.77
23.67
23.19
22.24
20.83
19.05
17.12
15.25
13.62
12.23
11.00
9.82
8.57
7.26
5.94
4.73
3.69
2.81
2.03
1.22
0.28
-0.85
-2.12
-3.44
-4.74
-6.01
-7.36
-8.89
-10.74
-12.89
-15.22
-17.53
-19.62
-21.41
-22.97
-24.48
-26.20
-28.37
-31.10
-34.31
-37.61
-40.29
-41.58
-40.72
-37.39
-31.73
-24.45
-16.54
-9.02
-2.66
2.21
5.61
7.88
9.42
10.67
11.96
13.47
15.24
17.12
18.87
20.25
21.12
21.46
21.42
21.22
21.02
20.91
20.89
20.93
20.99
21.10
21.30
21.53
21.71
21.71
21.38
20.67
19.62
18.37
17.05
15.76
14.56
13.42
12.34
11.28
10.22
9.15
8.04
6.82
5.44
3.87
2.09
0.13
-1.95
-4.07
-6.14
-8.09
-9.89
-11.57
-13.13
-14.65
-16.14
-17.62
-19.08
-20.55
-22.05
-23.60
-25.24
-26.96
-28.81
-30.83
-33.07
-35.41
-37.53
-38.83
-38.60
-36.30
-31.80
-25.52
-18.27
-11.01
-4.55
0.66
4.54
7.29
9.24
10.78
12.29
14.10
16.36
19.02
21.83
24.36
26.22
27.19
27.29
26.78
26.01
25.28
24.70
24.29
23.89
23.33
22.43
21.15
19.49
17.53
15.38
13.11
10.81
8.53
6.31
4.27
2.53
1.20
0.37
-0.03
-0.18
-0.32
-0.63
-1.22
-2.05
-3.03
-4.09
-5.18
-6.30
-7.39
-8.35
-9.04
-9.36
-9.35
-9.17
-9.12
-9.48
-10.40
-11.81
-13.51
-15.20
-16.63
-17.70
-18.48
-19.23
-20.30
-22.04
-24.58
-27.78
-31.11
-33.74
-34.79
-33.56
-29.86
-24.05
-16.94
-9.50
-2.53
3.52
8.62
12.96
16.82
20.34
23.62
26.63
29.40
31.98
34.48
37.00
39.60
42.27
44.97
47.58
49.98
52.03
53.58
54.52
54.77
54.23
52.81
50.41
46.95
42.48
37.18
31.36
25.34
19.31
13.34
7.37
1.35
-4.63
-10.39
-15.63
-20.17
-23.92
-26.96
-29.39
-31.28
-32.70
-33.74
-34.56
-35.35
-36.25
-37.25
-38.20
-38.87
-39.15
-39.09
-38.93
-39.00
-39.45
-40.22
-41.07
-41.71
-41.99
-41.98
-41.91
-42.07
-42.71
-43.94
-45.74
-47.89
-49.94
-51.27
-51.15
-48.99
-44.60
-38.28
-30.71
-22.80
-15.39
-8.99
-3.77
0.39
3.76
6.63
9.22
11.65
13.92
15.98
17.74
19.15
20.22
20.97
21.45
21.67
21.66
21.45
21.11
20.83
20.84
21.50
23.10
25.77
29.40
33.58
37.69
41.16
43.58
44.90
45.28
44.97
44.13
42.68
40.49
37.40
33.49
28.96
24.08
19.04
13.89
8.58
3.06
-2.60
-8.20
-13.39
-17.85
-21.39
-24.01
-25.88
-27.31
-28.58
-29.84
-31.09
-32.18
-32.95
-33.35
-33.45
-33.54
-33.94
-34.91
-36.47
-38.35
-40.05
-40.92
-40.30
-37.74
-33.13
-26.73
-19.16
-11.24
-3.82
2.50
7.45
11.12
13.84
16.01
17.89
19.58
21.03
22.12
22.80
23.13
23.25
23.31
23.42
23.60
23.79
23.91
23.88
23.68
23.35
22.95
22.48
21.89
21.11
20.07
18.77
17.34
15.89
14.55
13.34
12.23
11.13
10.04
8.99
8.07
7.36
6.88
6.56
6.24
5.82
5.20
4.33
3.19
1.78
0.13
-1.72
-3.65
-5.55
-7.35
-9.04
-10.71
-12.47
-14.37
-16.36
-18.30
-20.03
-21.49
-22.81
-24.25
-26.10
-28.55
-31.59
-34.99
-38.26
-40.81
-42.04
-41.44
-38.74
-34.04
-27.78
-20.71
-13.72
-7.62
-2.92
0.26
2.23
3.54
4.78
6.37
8.48
10.98
13.52
15.74
17.41
18.50
19.16
19.65
20.24
21.14
22.45
24.11
25.95
27.68
28.91
29.23
28.38
26.28
23.17
19.56
16.14
13.58
12.33
12.47
13.61
15.12
16.31
16.73
16.25
15.09
13.65
12.25
11.07
10.07
9.16
8.20
7.12
5.90
4.49
2.84
0.88
-1.43
-4.04
-6.82
-9.59
-12.15
-14.34
-16.17
-17.69
-19.10
-20.55
-22.22
-24.19
-26.51
-29.15
-31.95
-34.65
-36.74
-37.62
-36.75
-33.86
-29.16
-23.31
-17.28
-12.00
-8.05
-5.51
-4.05
-3.07
-2.03
-0.62
1.20
3.26
5.30
7.11
8.62
9.85
10.90
11.85
12.71
13.48
14.13
14.72
15.30
15.95
16.68
17.44
18.08
18.40
18.28
17.69
16.76
15.67
14.64
13.79
13.16
12.72
12.36
12.01
11.60
11.12
10.57
9.96
9.28
8.53
7.72
6.88
6.03
5.15
4.16
2.98
1.52
-0.26
-2.33
-4.53
-6.68
-8.59
-10.16
-11.42
-12.50
-13.54
-14.66
-15.90
-17.22
-18.59
-19.97
-21.41
-23.01
-24.81
-26.83
-28.98
-31.02
-32.62
-33.31
-32.61
-30.16
-25.88
-20.05
-13.31
-6.54
-0.60
3.93
6.88
8.45
9.17
9.55
10.00
10.68
11.52
12.40
13.19
13.90
14.56
15.23
15.90
16.51
17.03
17.48
17.94
18.48
19.12
19.74
20.15
20.15
19.63
18.65
17.35
15.96
14.64
13.50
12.59
11.92
11.43
11.07
10.77
10.51
10.24
9.94
9.61
9.23
8.76
8.17
7.43
6.55
5.56
4.49
3.32
2.01
0.56
-1.01
-2.60
-4.07
-5.31
-6.26
-6.99
-7.65
-8.42
-9.45
-10.76
-12.31
-13.95
-15.58
-17.14
-18.64
-20.12
-21.63
-23.23
-24.99
-26.96
-29.12
-31.28
-32.98
-33.62
-32.59
-29.61
-24.89
-19.11
-13.22
-8.00
-3.89
-0.85
1.52
3.68
5.92
8.29
10.57
12.49
13.83
14.53
14.70
14.53
14.28
14.08
13.98
13.91
13.76
13.49
13.11
12.69
12.33
12.02
11.71
11.34
10.84
10.25
9.65
9.12
8.75
8.56
8.45
8.32
8.07
7.63
7.01
6.28
5.55
4.96
4.55
4.32
4.21
4.20
4.26
4.35
4.47
4.54
4.49
4.26
3.81
3.14
2.28
1.26
0.13
-1.03
-2.15
-3.16
-4.07
-4.91
-5.78
-6.73
-7.73
-8.71
-9.58
-10.38
-11.23
-12.35
-13.93
-16.05
-18.57
-21.10
-23.11
-24.03
-23.44
-21.23
-17.59
-13.04
-8.19
-3.64
0.17
3.02
4.93
6.07
6.69
7.08
7.45
7.98
8.72
9.59
10.48
11.25
11.82
12.19
12.40
12.48
12.46
12.30
11.94
11.44
10.92
10.50
10.26
10.17
10.05
9.73
9.08
8.12
7.03
6.01
5.21
4.69
4.36
4.08
3.69
3.07
2.17
1.05
-0.16
-1.28
-2.08
-2.48
-2.51
-2.35
-2.27
-2.52
-3.27
-4.46
-5.80
-6.89
-7.30
-6.83
-5.51
-3.73
-1.99
-0.71
-0.02
0.23
0.37
0.69
1.27
2.03
2.80
3.50
4.11
4.69
5.21
5.69
6.23
7.12
8.81
11.70
15.89
21.06
26.46
31.15
34.43
35.95
35.81
34.44
32.37
30.09
27.88
25.85
23.93
21.96
19.79
17.30
14.45
11.32
8.04
4.74
1.54
-1.44
-4.12
-6.37
-8.16
-9.48
-10.47
-11.32
-12.23
-13.28
-14.43
-15.52
-16.36
-16.83
-16.94
-16.79
-16.53
-16.29
-16.12
-16.05
-16.07
-16.09
-16.07
-15.90
-15.59
-15.17
-14.82
-14.70
-14.97
-15.64
-16.58
-17.61
-18.56
-19.35
-20.00
-20.57
-21.16
-21.85
-22.66
-23.62
-24.71
-25.84
-26.90
-27.73
-28.30
-28.70
-29.14
-29.87
-31.01
-32.37
-33.51
-33.79
-32.61
-29.68
-25.13
-19.46
-13.43
-7.85
-3.32
-0.17
1.62
2.32
2.39
2.32
2.47
3.07
4.09
5.41
6.81
8.13
9.23
10.04
10.55
10.75
10.68
10.44
10.18
10.05
10.15
10.51
11.04
11.59
11.97
12.06
11.80
11.23
10.46
9.58
8.69
7.84
7.01
6.13
5.18
4.17
3.20
2.40
1.85
1.57
1.44
1.27
0.87
0.10
-1.07
-2.55
-4.17
-5.74
-7.12
-8.28
-9.26
-10.19
-11.20
-12.38
-13.74
-15.21
-16.67
-17.96
-18.97
-19.70
-20.24
-20.80
-21.64
-22.94
-24.71
-26.65
-28.22
-28.72
-27.57
-24.58
-19.98
-14.40
-8.68
-3.56
0.51
3.42
5.37
6.70
7.78
8.85
10.02
11.29
12.55
13.69
14.66
15.45
16.14
16.78
17.38
17.89
18.26
18.49
18.60
18.62
18.54
18.31
17.88
17.24
16.48
15.73
15.11
14.68
14.43
14.26
14.10
13.89
13.60
13.18
12.58
11.72
10.57
9.16
7.54
5.79
3.97
2.12
0.30
-1.39
-2.92
-4.26
-5.52
-6.85
-8.37
-10.09
-11.87
-13.51
-14.87
-15.99
-17.02
-18.24
-19.83
-21.84
-24.15
-26.56
-28.80
-30.53
-31.36
-30.90
-28.89
-25.34
-20.62
-15.37
-10.34
-6.14
-3.05
-1.03
0.25
1.18
2.11
3.31
4.84
6.63
8.50
10.24
11.69
12.84
13.76
14.65
15.60
16.62
17.62
18.54
19.36
20.15
20.98
21.77
22.33
22.36
21.70
20.35
18.53
16.59
14.83
13.45
12.50
11.91
11.56
11.26
10.84
10.11
8.93
7.29
5.28
3.05
0.74
-1.59
-3.92
-6.25
-8.54
-10.72
-12.70
-14.41
-15.89
-17.27
-18.69
-20.31
-22.24
-24.47
-26.88
-29.22
-31.06
-31.95
-31.47
-29.43
-25.93
-21.37
-16.33
-11.44
-7.18
-3.83
-1.36
0.47
1.97
3.44
5.06
6.93
8.98
11.09
13.03
14.64
15.79
16.48
16.83
17.07
17.43
18.06
19.00
20.14
21.27
22.19
22.74
22.79
22.32
21.36
19.99
18.39
16.76
15.29
14.10
13.20
12.49
11.79
10.98
10.02
8.98
8.00
7.17
6.53
5.99
5.34
4.32
2.74
0.52
-2.24
-5.34
-8.48
-11.44
-14.09
-16.43
-18.60
-20.77
-23.08
-25.58
-28.15
-30.54
-32.29
-32.90
-31.95
-29.25
-24.95
-19.53
-13.69
-8.18
-3.61
-0.30
1.76
2.79
3.21
3.47
3.96
4.97
6.64
8.99
11.92
15.19
18.47
21.37
23.49
24.56
24.52
23.55
22.01
20.36
18.98
18.08
17.68
17.65
17.79
17.90
17.84
17.52
16.87
15.86
14.51
12.88
11.10
9.32
7.72
6.34
5.14
4.01
2.84
1.55
0.17
-1.23
-2.57
-3.80
-4.93
-6.07
-7.37
-8.97
-10.97
-13.31
-15.78
-18.14
-20.13
-21.63
-22.78
-23.85
-25.23
-27.22
-29.89
-33.00
-36.01
-38.17
-38.74
-37.15
-33.31
-27.65
-21.06
-14.58
-9.08
-5.00
-2.31
-0.55
0.92
2.74
5.27
8.56
12.28
15.87
18.73
20.53
21.34
21.49
21.48
21.64
21.99
22.36
22.53
22.49
22.42
22.55
22.97
23.52
23.87
23.70
22.88
21.54
19.95
18.37
16.93
15.70
14.75
14.23
14.27
14.97
16.30
18.09
20.02
21.76
23.02
23.68
23.82
23.67
23.45
23.28
23.03
22.34
20.76
18.00
14.09
9.49
4.94
1.24
-1.13
-2.05
-1.79
-0.73
0.74
2.37
3.92
5.07
5.33
4.21
1.49
-2.52
-7.03
-10.94
-13.30
-13.58
-11.72
-8.07
-3.08
2.68
8.50
13.57
17.01
18.24
17.21
14.50
11.11
8.00
5.69
4.09
2.75
1.10
-1.15
-3.93
-6.95
-9.87
-12.47
-14.70
-16.64
-18.34
-19.83
-21.09
-22.16
-23.13
-24.18
-25.49
-27.09
-28.85
-30.52
-31.81
-32.52
-32.53
-31.69
-29.81
-26.59
-21.74
-15.25
-7.55
0.43
7.44
12.27
14.20
13.28
10.31
6.59
3.45
1.91
2.44
5.05
9.38
14.88
20.89
26.61
31.20
34.03
34.88
34.14
32.72
31.62
31.42
31.90
32.16
31.02
27.59
21.59
13.41
3.74
-6.72
-17.47
-28.08
-37.94
-46.12
-51.58
-53.53
-51.87
-47.36
-41.39
-35.50
-30.90
-28.05
-26.67
-25.98
-25.08
-23.32
-20.47
-16.81
-12.85
-9.11
-5.93
-3.44
-1.54
-0.03
1.28
2.54
3.78
5.00
6.13
7.11
7.85
8.31
8.48
8.35
7.91
7.14
5.99
4.47
2.70
0.83
-0.89
-2.25
-3.17
-3.72
-4.07
-4.43
-4.95
-5.63
-6.36
-6.95
-7.24
-7.14
-6.62
-5.62
-4.07
-1.83
1.25
5.16
9.69
14.44
18.94
22.85
26.12
28.94
31.61
34.26
36.76
38.73
39.76
39.63
38.42
36.44
34.06
31.52
28.83
25.85
22.46
18.79
15.17
12.19
10.53
10.78
13.35
18.32
25.44
34.19
43.90
53.77
62.97
70.65
76.00
78.33
77.18
72.44
64.34
53.49
40.71
26.94
12.95
-0.76
-14.01
-26.86
-39.41
-51.72
-63.77
-75.64
-87.71
-100.58
-114.89
-130.86
-148.01
-165.11
-180.55
-192.84
-201.14
-205.42
-206.34
-204.94
-202.31
-199.20
-195.72
-191.24
-184.38
-173.20
-155.78
-130.80
-98.17
-59.18
-16.46
26.58
66.39
100.02
125.56
142.40
151.05
152.84
149.41
142.40
133.23
123.00
112.61
102.65
93.49
85.17
77.50
70.13
62.71
55.05
47.05
38.83
30.60
22.68
15.55
9.74
5.73
3.83
3.97
5.73
8.43
11.33
13.87
15.73
16.94
17.75
18.60
19.93
22.00
24.86
28.26
31.79
35.09
38.02
40.85
44.11
48.26
53.34
58.87
63.91
67.50
69.10
68.76
67.13
65.00
62.97
61.13
59.08
56.00
51.00
43.32
32.50
18.54
1.86
-16.69
-36.02
-54.91
-72.29
-87.28
-99.33
-108.18
-113.83
-116.53
-116.73
-115.01
-111.97
-108.18
-103.99
-99.44
-94.34
-88.33
-81.14
-72.73
-63.50
-54.08
-45.16
-37.20
-30.32
-24.29
-18.85
-13.91
-9.64
-6.43
-4.57
-3.99
-4.18
-4.23
-3.20
-0.54
3.75
9.08
14.49
19.02
22.09
23.54
23.60
22.71
21.30
19.77
18.49
17.80
17.98
19.19
21.28
23.94
26.71
29.17
31.08
32.38
33.16
33.56
33.70
33.66
33.52
33.41
33.40
33.53
33.70
33.70
33.34
32.46
31.12
29.55
28.16
27.27
27.07
27.38
27.79
27.80
27.07
25.52
23.37
20.98
18.62
16.38
14.19
11.88
9.34
6.56
3.63
0.77
-1.79
-3.73
-4.83
-5.01
-4.53
-3.93
-3.99
-5.37
-8.33
-12.63
-17.55
-22.20
-25.74
-27.67
-27.79
-26.20
-23.15
-19.03
-14.39
-9.85
-6.05
-3.50
-2.39
-2.55
-3.48
-4.53
-5.14
-4.97
-3.95
-2.26
-0.15
2.13
4.36
6.36
7.97
9.09
9.68
9.78
9.49
8.97
8.34
7.77
7.38
7.34
7.75
8.62
9.82
11.05
11.93
12.19
11.72
10.65
9.26
7.82
6.56
5.59
4.93
4.45
4.04
3.51
2.67
1.31
-0.64
-3.12
-5.87
-8.55
-10.86
-12.64
-13.99
-15.23
-16.84
-19.19
-22.39
-26.14
-29.81
-32.65
-34.01
-33.59
-31.56
-28.41
-24.79
-21.24
-18.10
-15.48
-13.30
-11.39
-9.59
-7.70
-5.55
-2.99
0.07
3.60
7.45
11.34
14.94
17.98
20.36
22.24
23.91
25.74
28.01
30.76
33.72
36.35
38.01
38.24
36.93
34.39
31.24
28.17
25.63
23.69
22.08
20.35
18.17
15.42
12.23
8.82
5.37
1.92
-1.56
-5.10
-8.60
-11.79
-14.39
-16.12
-16.82
-16.45
-15.14
-13.05
-10.39
-7.39
-4.26
-1.16
1.80
4.63
7.37
10.11
12.89
15.65
18.33
20.84
23.15
25.19
26.89
28.15
28.77
28.66
27.81
26.33
24.44
22.39
20.28
18.00
15.29
11.72
6.91
0.59
-7.25
-16.46
-26.84
-38.24
-50.68
-64.17
-78.61
-93.54
-108.17
-121.62
-133.15
-142.48
-149.70
-155.20
-159.27
-161.98
-162.95
-161.62
-157.34
-149.33
-136.63
-118.22
-93.30
-61.91
-25.42
13.53
51.58
85.61
113.52
134.59
149.26
158.51
163.52
165.47
165.52
164.76
163.91
162.96
161.02
156.67
148.61
136.38
120.63
102.93
85.17
68.98
55.39
44.72
36.76
30.99
26.73
23.22
19.72
15.65
10.76
5.10
-0.91
-6.70
-11.69
-15.49
-17.97
-19.34
-19.98
-20.31
-20.65
-21.05
-21.35
-21.24
-20.45
-18.81
-16.42
-13.51
-10.37
-7.29
-4.40
-1.69
0.93
3.60
6.46
9.62
13.18
17.18
21.51
25.98
30.34
34.39
38.16
41.88
45.91
50.56
55.90
61.65
67.32
72.21
75.67
77.08
75.95
71.85
64.41
53.41
38.73
20.32
-1.97
-28.37
-59.01
-93.62
-131.12
-169.63
-206.61
-239.44
-265.97
-284.77
-295.14
-296.72
-289.27
-272.53
-246.48
-211.90
-170.62
-125.49
-79.91
-37.16
0.26
30.99
54.81
72.26
84.28
91.84
95.79
96.91
95.90
93.48
90.23
86.64
83.04
79.61
76.40
73.36
70.34
67.18
63.82
60.30
56.79
53.45
50.34
47.36
44.31
41.04
37.53
33.93
30.45
27.27
24.47
22.03
19.84
17.80
15.86
14.03
12.35
10.78
9.30
7.84
6.31
4.71
3.08
1.50
0.09
-1.09
-2.03
-2.75
-3.32
-3.78
-4.19
-4.61
-5.06
-5.59
-6.18
-6.83
-7.56
-8.42
-9.47
-10.70
-12.00
-13.16
-13.89
-13.94
-13.21
-11.78
-9.95
-8.06
-6.40
-5.11
-4.19
-3.50
-2.86
-2.13
-1.24
-0.25
0.73
1.55
2.12
2.38
2.34
2.12
1.86
1.67
1.62
1.71
1.90
2.14
2.40
2.66
2.88
3.01
2.99
2.82
2.55
2.34
2.35
2.67
3.30
4.08
4.73
4.99
4.71
3.87
2.65
1.30
0.09
-0.79
-1.26
-1.37
-1.31
-1.31
-1.64
-2.43
-3.67
-5.16
-6.61
-7.75
-8.51
-9.00
-9.50
-10.37
-11.78
-13.70
-15.85
-17.78
-19.03
-19.26
-18.33
-16.36
-13.72
-10.87
-8.28
-6.24
-4.81
-3.88
-3.16
-2.40
-1.37
0.06
1.88
3.95
6.05
7.92
9.32
10.14
10.44
10.43
10.36
10.39
10.56
10.74
10.80
10.64
10.29
9.80
9.21
8.56
7.84
7.08
6.38
5.87
5.64
5.73
6.07
6.51
6.90
7.11
7.07
6.76
6.18
5.39
4.49
3.63
2.95
2.50
2.21
1.88
1.29
0.28
-1.10
-2.66
-4.16
-5.39
-6.41
-7.42
-8.71
-10.51
-12.87
-15.65
-18.53
-21.09
-22.92
-23.70
-23.24
-21.54
-18.78
-15.33
-11.65
-8.17
-5.21
-2.94
-1.33
-0.24
0.58
1.40
2.41
3.68
5.14
6.58
7.78
8.53
8.77
8.61
8.22
7.84
7.62
7.60
7.72
7.89
8.02
8.06
8.01
7.81
7.43
6.81
5.94
4.96
4.07
3.45
3.16
3.11
3.12
3.04
2.83
2.59
2.43
2.37
2.31
2.08
1.56
0.70
-0.32
-1.31
-2.11
-2.63
-2.93
-3.16
-3.47
-3.96
-4.64
-5.50
-6.47
-7.51
-8.61
-9.74
-10.89
-11.98
-12.98
-13.91
-14.84
-15.91
-17.17
-18.48
-19.53
-19.92
-19.29
-17.56
-14.93
-11.86
-8.84
-6.29
-4.37
-3.06
-2.17
-1.47
-0.77
0.07
1.16
2.47
3.96
5.46
6.85
7.95
8.69
9.07
9.18
9.13
9.06
9.03
9.04
9.04
8.98
8.85
8.72
8.67
8.75
8.93
9.09
9.11
8.91
8.52
8.01
7.47
6.95
6.44
5.95
5.52
5.23
5.08
5.06
5.02
4.85
4.43
3.79
2.98
2.15
1.36
0.69
0.15
-0.30
-0.71
-1.15
-1.65
-2.24
-2.87
-3.49
-4.07
-4.58
-5.08
-5.60
-6.20
-6.86
-7.58
-8.35
-9.14
-9.91
-10.64
-11.32
-11.97
-12.71
-13.67
-14.95
-16.48
-18.01
-19.16
-19.52
-18.79
-16.93
-14.16
-10.87
-7.55
-4.60
-2.33
-0.83
-0.01
0.36
0.59
0.91
1.46
2.23
3.08
3.90
4.66
5.39
6.12
6.88
7.57
8.09
8.35
8.42
8.40
8.43
8.59
8.85
9.09
9.24
9.23
9.08
8.79
8.38
7.85
7.24
6.63
6.10
5.68
5.35
5.05
4.71
4.33
3.95
3.64
3.44
3.32
3.20
2.99
2.64
2.17
1.69
1.27
0.98
0.79
0.62
0.36
-0.05
-0.64
-1.36
-2.16
-3.03
-3.99
-5.03
-6.13
-7.18
-8.07
-8.74
-9.21
-9.59
-10.05
-10.73
-11.66
-12.87
-14.27
-15.80
-17.32
-18.54
-19.16
-18.82
-17.36
-14.89
-11.74
-8.41
-5.37
-2.92
-1.17
-0.06
0.56
0.88
1.07
1.30
1.66
2.20
2.84
3.50
4.04
4.41
4.62
4.75
4.87
5.05
5.30
5.63
6.02
6.40
6.73
6.94
6.95
6.77
6.45
6.09
5.82
5.69
5.73
5.89
6.12
6.36
6.57
6.67
6.56
6.16
5.44
4.53
3.64
2.99
2.68
2.64
2.64
2.45
1.94
1.15
0.21
-0.73
-1.59
-2.34
-3.01
-3.63
-4.19
-4.74
-5.32
-6.03
-6.87
-7.82
-8.76
-9.57
-10.22
-10.77
-11.36
-12.15
-13.22
-14.49
-15.72
-16.59
-16.74
-15.99
-14.27
-11.75
-8.71
-5.55
-2.67
-0.39
1.05
1.60
1.41
0.78
0.09
-0.29
-0.14
0.57
1.67
2.93
4.11
5.07
5.79
6.31
6.72
7.09
7.49
7.92
8.38
8.85
9.26
9.54
9.61
9.41
9.01
8.52
8.10
7.88
7.88
7.99
8.06
7.91
7.52
6.90
6.12
5.28
4.43
3.63
2.91
2.36
2.00
1.82
1.72
1.56
1.23
0.71
0.09
-0.52
-1.00
-1.36
-1.68
-2.10
-2.77
-3.75
-5.03
-6.52
-8.09
-9.63
-11.11
-12.51
-13.82
-15.10
-16.38
-17.78
-19.37
-21.14
-22.89
-24.23
-24.68
-23.85
-21.65
-18.34
-14.47
-10.71
-7.53
-5.15
-3.46
-2.23
-1.20
-0.21
0.83
1.95
3.15
4.43
5.74
6.98
8.05
8.88
9.47
9.90
10.26
10.66
11.16
11.80
12.53
13.27
13.86
14.15
14.06
13.60
12.90
12.15
11.48
10.96
10.52
10.03
9.36
8.47
7.42
6.35
5.39
4.66
4.18
3.89
3.70
3.50
3.19
2.72
2.11
1.40
0.65
-0.06
-0.72
-1.32
-1.88
-2.40
-2.92
-3.53
-4.33
-5.45
-6.93
-8.74
-10.74
-12.76
-14.68
-16.48
-18.26
-20.17
-22.26
-24.40
-26.25
-27.34
-27.25
-25.80
-23.12
-19.60
-15.73
-12.00
-8.70
-5.94
-3.70
-1.88
-0.36
0.97
2.23
3.50
4.82
6.18
7.53
8.77
9.81
10.61
11.19
11.63
12.05
12.55
13.21
13.99
14.78
15.45
15.87
16.00
15.84
15.47
14.95
14.38
13.82
13.36
13.03
12.84
12.72
12.56
12.25
11.72
10.98
10.12
9.28
8.54
7.92
7.35
6.72
5.91
4.88
3.66
2.34
1.01
-0.23
-1.33
-2.26
-3.03
-3.66
-4.27
-4.99
-5.94
-7.19
-8.71
-10.40
-12.13
-13.81
-15.46
-17.18
-19.10
-21.35
-23.97
-26.87
-29.76
-32.19
-33.59
-33.46
-31.58
-28.05
-23.36
-18.22
-13.34
-9.21
-6.02
-3.68
-1.95
-0.54
0.74
2.01
3.35
4.78
6.28
7.83
9.36
10.77
11.98
12.99
13.84
14.62
15.45
16.36
17.33
18.28
19.05
19.50
19.51
19.05
18.19
17.07
15.91
14.88
14.11
13.59
13.24
12.95
12.64
12.30
11.91
11.43
10.82
10.05
9.17
8.26
7.39
6.53
5.58
4.44
3.05
1.53
0.12
-1.00
-1.78
-2.37
-3.06
-4.15
-5.73
-7.70
-9.79
-11.70
-13.30
-14.66
-16.02
-17.72
-20.02
-22.97
-26.35
-29.66
-32.21
-33.35
-32.62
-29.94
-25.67
-20.47
-15.13
-10.29
-6.30
-3.21
-0.87
0.94
2.41
3.66
4.85
6.12
7.58
9.22
10.91
12.44
13.66
14.57
15.31
16.07
17.01
18.11
19.28
20.35
21.23
21.88
22.29
22.44
22.26
21.66
20.59
19.14
17.51
16.00
14.87
14.22
13.94
13.81
13.52
12.88
11.89
10.68
9.49
8.44
7.57
6.75
5.86
4.78
3.50
2.08
0.62
-0.80
-2.13
-3.35
-4.50
-5.65
-6.88
-8.27
-9.87
-11.64
-13.51
-15.33
-17.01
-18.54
-20.01
-21.59
-23.51
-25.91
-28.81
-32.00
-35.03
-37.29
-38.14
-37.11
-34.09
-29.36
-23.53
-17.40
-11.69
-6.91
-3.25
-0.59
1.35
2.92
4.44
6.14
8.11
10.31
12.64
14.91
16.88
18.38
19.34
19.86
20.15
20.46
21.01
21.81
22.77
23.63
24.21
24.45
24.34
23.94
23.29
22.42
21.32
20.07
18.80
17.64
16.70
15.98
15.36
14.69
13.93
13.10
12.38
11.85
11.49
11.20
10.74
9.96
8.82
7.43
5.98
4.63
3.40
2.23
0.97
-0.47
-2.09
-3.78
-5.44
-7.00
-8.46
-9.91
-11.40
-12.94
-14.48
-15.96
-17.34
-18.67
-20.14
-21.97
-24.35
-27.36
-30.87
-34.48
-37.55
-39.31
-39.14
-36.70
-32.17
-26.14
-19.50
-13.13
-7.67
-3.41
-0.33
1.80
3.33
4.64
6.07
7.87
10.09
12.57
15.00
17.03
18.42
19.18
19.50
19.67
19.91
20.31
20.79
21.21
21.44
21.45
21.26
20.95
20.53
19.95
19.15
18.11
16.91
15.71
14.72
14.06
13.72
13.52
13.22
12.64
11.71
10.47
9.07
7.64
6.34
5.22
4.30
3.56
2.92
2.28
1.59
0.83
0.02
-0.78
-1.50
-2.12
-2.65
-3.15
-3.68
-4.35
-5.26
-6.47
-8.03
-9.91
-12.02
-14.20
-16.32
-18.30
-20.20
-22.19
-24.43
-26.98
-29.65
-31.95
-33.20
-32.81
-30.46
-26.22
-20.66
-14.52
-8.61
-3.51
0.51
3.43
5.45
6.79
7.73
8.48
9.20
10.01
10.99
12.14
13.42
14.74
16.00
17.14
18.11
18.91
19.56
20.08
20.49
20.75
20.83
20.67
20.20
19.43
18.40
17.24
16.04
14.90
13.82
12.82
11.93
11.18
10.58
10.12
9.69
9.11
8.27
7.14
5.80
4.46
3.31
2.45
1.82
1.32
0.80
0.17
-0.59
-1.47
-2.47
-3.59
-4.80
-6.02
-7.14
-8.07
-8.79
-9.44
-10.24
-11.41
-13.09
-15.25
-17.71
-20.20
-22.46
-24.29
-25.64
-26.58
-27.37
-28.27
-29.46
-30.87
-32.18
-32.86
-32.34
-30.26
-26.63
-21.80
-16.42
-11.14
-6.51
-2.82
-0.08
1.90
3.50
5.03
6.72
8.61
10.54
12.30
13.72
14.78
15.53
16.16
16.77
17.41
18.02
18.56
19.01
19.41
19.80
20.20
20.50
20.54
20.18
19.39
18.27
17.04
15.93
15.08
14.47
13.93
13.28
12.41
11.36
10.27
9.29
8.51
7.85
7.20
6.43
5.53
4.55
3.60
2.73
1.94
1.15
0.28
-0.71
-1.82
-2.93
-3.93
-4.71
-5.19
-5.44
-5.61
-5.93
-6.65
-7.86
-9.52
-11.43
-13.35
-15.12
-16.71
-18.21
-19.79
-21.56
-23.61
-25.95
-28.51
-31.06
-33.23
-34.49
-34.31
-32.31
-28.47
-23.19
-17.24
-11.51
-6.71
-3.21
-0.97
0.41
1.39
2.43
3.77
5.46
7.38
9.35
11.19
12.75
13.99
14.92
15.59
16.10
16.49
16.82
17.07
17.22
17.20
17.01
16.62
16.05
15.29
14.35
13.25
12.09
10.98
10.08
9.47
9.11
8.89
8.62
8.11
7.32
6.32
5.25
4.27
3.47
2.84
2.32
1.85
1.38
0.89
0.42
-0.03
-0.53
-1.17
-2.05
-3.16
-4.42
-5.64
-6.67
-7.43
-8.02
-8.61
-9.39
-10.53
-11.99
-13.67
-15.38
-17.00
-18.41
-19.61
-20.69
-21.81
-23.16
-24.93
-27.17
-29.69
-32.09
-33.82
-34.32
-33.24
-30.51
-26.38
-21.31
-15.90
-10.72
-6.22
-2.62
0.03
1.93
3.37
4.70
6.20
7.96
9.94
11.94
13.79
15.36
16.59
17.55
18.28
18.87
19.33
19.70
19.98
20.17
20.30
20.33
20.24
19.96
19.45
18.67
17.63
16.37
14.99
13.62
12.47
11.68
11.29
11.18
11.11
10.86
10.30
9.49
8.57
7.74
7.10
6.65
6.28
5.87
5.30
4.54
3.60
2.51
1.33
0.10
-1.16
-2.46
-3.86
-5.36
-6.95
-8.56
-10.08
-11.45
-12.69
-13.88
-15.13
-16.52
-18.05
-19.74
-21.58
-23.61
-25.77
-27.88
-29.59
-30.38
-29.81
-27.62
-23.95
-19.28
-14.31
-9.71
-5.96
-3.19
-1.24
0.21
1.52
2.94
4.56
6.32
8.06
9.61
10.87
11.84
12.64
13.40
14.15
14.90
15.59
16.21
16.78
17.36
17.97
18.53
18.85
18.77
18.21
17.25
16.07
14.87
13.80
12.90
12.12
11.38
10.64
9.88
9.12
8.39
7.73
7.14
6.60
6.11
5.65
5.21
4.77
4.27
3.64
2.83
1.84
0.74
-0.36
-1.32
-2.07
-2.58
-2.94
-3.22
-3.53
-3.94
-4.48
-5.15
-5.94
-6.83
-7.80
-8.89
-10.13
-11.56
-13.17
-14.90
-16.62
-18.27
-19.79
-21.27
-22.87
-24.73
-26.85
-29.01
-30.73
-31.47
-30.77
-28.45
-24.71
-20.09
-15.27
-10.86
-7.27
-4.59
-2.66
-1.17
0.18
1.63
3.32
5.22
7.19
9.05
10.69
12.03
13.07
13.88
14.46
14.84
15.02
15.09
15.20
15.51
16.09
16.87
17.61
18.05
18.06
17.65
16.99
16.24
15.49
14.70
13.78
12.72
11.57
10.51
9.72
9.29
9.17
9.20
9.19
9.03
8.69
8.20
7.63
7.03
6.43
5.83
5.22
4.60
3.94
3.23
2.47
1.67
0.88
0.13
-0.55
-1.16
-1.74
-2.34
-3.00
-3.79
-4.77
-5.97
-7.39
-8.92
-10.45
-11.92
-13.29
-14.62
-16.03
-17.56
-19.26
-21.09
-23.02
-25.04
-27.15
-29.25
-31.14
-32.43
-32.66
-31.49
-28.81
-24.82
-20.07
-15.27
-11.09
-7.93
-5.89
-4.76
-4.11
-3.47
-2.47
-0.91
1.16
3.54
5.93
8.09
9.85
11.22
12.29
13.15
13.88
14.52
15.06
15.53
15.95
16.28
16.47
16.40
16.02
15.33
14.46
13.60
12.86
12.30
11.83
11.35
10.79
10.19
9.64
9.24
9.02
8.98
9.07
9.22
9.39
9.52
9.57
9.49
9.22
8.75
8.08
7.25
6.31
5.34
4.36
3.42
2.49
1.56
0.61
-0.37
-1.40
-2.49
-3.69
-5.05
-6.59
-8.27
-9.95
-11.50
-12.84
-14.00
-15.07
-16.23
-17.59
-19.21
-21.06
-23.04
-25.02
-26.74
-27.85
-27.95
-26.74
-24.16
-20.47
-16.20
-11.97
-8.29
-5.36
-3.12
-1.34
0.22
1.69
3.11
4.46
5.77
7.08
8.43
9.75
10.89
11.65
11.93
11.78
11.43
11.17
11.20
11.53
11.98
12.34
12.47
12.40
12.25
12.14
12.15
12.17
12.10
11.88
11.51
11.08
10.69
10.36
10.04
9.66
9.18
8.64
8.13
7.71
7.43
7.20
6.95
6.56
5.98
5.25
4.43
3.62
2.85
2.11
1.36
0.57
-0.28
-1.19
-2.12
-3.03
-3.82
-4.49
-5.08
-5.72
-6.59
-7.80
-9.38
-11.20
-13.05
-14.73
-16.14
-17.36
-18.49
-19.71
-21.09
-22.68
-24.45
-26.36
-28.24
-29.84
-30.78
-30.63
-29.10
-26.16
-22.08
-17.38
-12.67
-8.48
-5.11
-2.66
-1.01
0.02
0.65
1.09
1.54
2.18
3.14
4.51
6.26
8.26
10.29
12.14
13.65
14.77
15.58
16.15
16.58
16.85
16.91
16.70
16.19
15.41
14.44
13.41
12.40
11.49
10.74
10.19
9.87
9.74
9.71
9.66
9.51
9.22
8.84
8.44
8.07
7.70
7.21
6.48
5.43
4.07
2.49
0.84
-0.73
-2.09
-3.18
-3.96
-4.43
-4.64
-4.66
-4.59
-4.59
-4.71
-4.99
-5.40
-5.85
-6.29
-6.73
-7.25
-7.92
-8.81
-9.92
-11.22
-12.66
-14.26
-16.07
-18.21
-20.77
-23.69
-26.73
-29.46
-31.33
-31.87
-30.77
-28.07
-24.09
-19.37
-14.49
-9.95
-6.06
-2.93
-0.54
1.29
2.75
4.04
5.33
6.67
8.09
9.52
10.92
12.27
13.60
14.89
16.08
17.09
17.84
18.39
18.83
19.30
19.89
20.56
21.11
21.33
21.06
20.30
19.19
17.95
16.81
15.87
15.11
14.43
13.77
13.08
12.39
11.76
11.23
10.78
10.38
9.94
9.43
8.85
8.27
7.73
7.23
6.71
6.08
5.26
4.22
3.05
1.85
0.72
-0.33
-1.36
-2.51
-3.87
-5.49
-7.30
-9.20
-11.08
-12.86
-14.50
-16.00
-17.38
-18.72
-20.11
-21.65
-23.48
-25.69
-28.29
-31.13
-33.86
-35.94
-36.78
-35.92
-33.14
-28.64
-23.01
-17.03
-11.45
-6.81
-3.30
-0.82
0.87
2.10
3.18
4.32
5.66
7.24
8.97
10.69
12.23
13.44
14.29
14.87
15.32
15.80
16.41
17.15
17.99
18.81
19.55
20.12
20.44
20.46
20.16
19.58
18.81
17.94
17.05
16.19
15.37
14.55
13.72
12.87
12.00
11.11
10.18
9.17
8.09
6.99
5.96
5.06
4.33
3.70
3.10
2.44
1.68
0.84
-0.02
-0.89
-1.76
-2.69
-3.68
-4.69
-5.68
-6.61
-7.53
-8.52
-9.70
-11.17
-12.87
-14.67
-16.36
-17.79
-18.92
-19.86
-20.84
-22.13
-23.94
-26.36
-29.25
-32.20
-34.62
-35.83
-35.33
-32.95
-28.90
-23.76
-18.27
-13.13
-8.80
-5.45
-3.02
-1.28
0.07
1.35
2.85
4.72
6.92
9.27
11.55
13.53
15.13
16.40
17.41
18.23
18.86
19.29
19.56
19.77
20.03
20.41
20.81
21.00
20.77
20.01
18.86
17.55
16.37
15.45
14.78
14.21
13.59
12.80
11.83
10.72
9.51
8.23
6.95
5.75
4.68
3.77
2.95
2.10
1.13
-0.00
-1.24
-2.47
-3.61
-4.57
-5.36
-6.02
-6.60
-7.21
-7.98
-9.00
-10.33
-11.93
-13.64
-15.28
-16.71
-17.88
-18.87
-19.85
-21.03
-22.63
-24.78
-27.45
-30.37
-32.99
-34.64
-34.68
-32.82
-29.16
-24.22
-18.72
-13.32
-8.48
-4.40
-1.08
1.55
3.62
5.29
6.71
8.08
9.52
11.06
12.66
14.22
15.69
17.02
18.25
19.37
20.34
21.11
21.67
22.09
22.47
22.86
23.23
23.45
23.33
22.75
21.72
20.43
19.09
17.89
16.85
15.89
14.87
13.70
12.42
11.15
10.06
9.26
8.72
8.32
7.90
7.31
6.49
5.42
4.15
2.72
1.16
-0.49
-2.21
-3.98
-5.81
-7.66
-9.47
-11.18
-12.72
-14.06
-15.25
-16.44
-17.80
-19.55
-21.80
-24.59
-27.79
-31.11
-34.08
-36.13
-36.72
-35.46
-32.33
-27.62
-22.00
-16.26
-11.10
-6.96
-3.92
-1.77
-0.07
1.62
3.62
5.99
8.58
11.10
13.24
14.83
15.87
16.57
17.14
17.77
18.55
19.45
20.41
21.30
22.04
22.57
22.82
22.74
22.30
21.49
20.38
19.08
17.74
16.51
15.52
14.78
14.25
13.75
13.17
12.40
11.43
10.33
9.22
8.18
7.28
6.50
5.80
5.12
4.39
3.57
2.63
1.61
0.56
-0.48
-1.47
-2.41
-3.30
-4.18
-5.13
-6.27
-7.74
-9.61
-11.84
-14.26
-16.58
-18.60
-20.23
-21.59
-22.96
-24.61
-26.72
-29.25
-31.88
-34.13
-35.41
-35.16
-33.09
-29.27
-24.12
-18.38
-12.80
-8.02
-4.32
-1.66
0.25
1.79
3.31
5.05
7.08
9.38
11.80
14.16
16.30
18.10
19.50
20.51
21.21
21.66
21.97
22.20
22.40
22.53
22.49
22.17
21.48
20.41
19.05
17.55
16.05
14.68
13.49
12.52
11.73
11.09
10.52
9.94
9.31
8.61
7.88
7.18
6.58
6.10
5.68
5.24
4.66
3.89
2.89
1.73
0.47
-0.83
-2.17
-3.54
-4.94
-6.34
-7.65
-8.82
-9.81
-10.69
-11.55
-12.52
-13.63
-14.85
-16.09
-17.26
-18.30
-19.23
-20.15
-21.22
-22.65
-24.59
-27.07
-29.87
-32.54
-34.51
-35.21
-34.24
-31.52
-27.27
-21.99
-16.32
-10.84
-6.06
-2.26
0.54
2.54
4.09
5.59
7.28
9.26
11.43
13.58
15.45
16.92
17.92
18.56
18.99
19.39
19.86
20.44
21.07
21.67
22.12
22.33
22.21
21.72
20.81
19.55
18.08
16.62
15.43
14.64
14.30
14.24
14.25
14.08
13.61
12.85
11.93
11.01
10.21
9.53
8.88
8.18
7.38
6.46
5.47
4.44
3.35
2.18
0.87
-0.55
-2.02
-3.49
-4.92
-6.35
-7.89
-9.57
-11.40
-13.28
-15.09
-16.77
-18.32
-19.87
-21.59
-23.63
-26.01
-28.56
-30.90
-32.50
-32.82
-31.47
-28.43
-24.01
-18.88
-13.74
-9.22
-5.63
-3.01
-1.16
0.25
1.52
2.94
4.64
6.64
8.80
10.89
12.68
13.99
14.85
15.35
15.62
15.79
15.93
16.09
16.32
16.66
17.08
17.48
17.70
17.57
16.99
16.00
14.70
13.30
11.98
10.87
10.04
9.48
9.13
8.90
8.70
8.48
8.16
7.73
7.18
6.55
5.91
5.33
4.83
4.40
3.95
3.34
2.48
1.33
-0.05
-1.57
-3.11
-4.56
-5.88
-7.05
-8.10
-9.06
-10.02
-11.06
-12.22
-13.49
-14.77
-15.96
-16.93
-17.70
-18.38
-19.24
-20.57
-22.56
-25.17
-28.05
-30.63
-32.25
-32.34
-30.62
-27.17
-22.37
-16.87
-11.33
-6.36
-2.35
0.58
2.50
3.71
4.55
5.37
6.40
7.66
9.05
10.34
11.36
12.02
12.36
12.49
12.57
12.70
12.95
13.35
13.88
14.49
15.10
15.54
15.65
15.31
14.49
13.30
11.95
10.64
9.56
8.76
8.23
7.82
7.40
6.84
6.09
5.20
4.27
3.41
2.65
1.99
1.39
0.84
0.32
-0.12
-0.52
-0.97
-1.57
-2.44
-3.56
-4.83
-6.02
-6.97
-7.55
-7.79
-7.84
-7.94
-8.32
-9.12
-10.32
-11.73
-13.12
-14.26
-15.08
-15.65
-16.19
-16.91
-18.02
-19.62
-21.68
-24.04
-26.34
-28.08
-28.71
-27.74
-24.99
-20.68
-15.42
-10.02
-5.20
-1.37
1.44
3.42
4.91
6.17
7.34
8.43
9.43
10.32
11.13
11.90
12.64
13.35
14.00
14.57
15.06
15.52
15.99
16.52
17.08
17.60
17.97
18.07
17.82
17.24
16.42
15.49
14.60
13.83
13.22
12.71
12.17
11.48
10.60
9.53
8.38
7.26
6.25
5.40
4.67
3.99
3.26
2.44
1.53
0.59
-0.28
-1.02
-1.62
-2.18
-2.82
-3.71
-4.94
-6.52
-8.36
-10.27
-12.07
-13.63
-14.94
-16.05
-17.10
-18.30
-19.82
-21.78
-24.19
-26.87
-29.43
-31.35
-32.03
-31.05
-28.31
-24.09
-19.03
-13.89
-9.36
-5.84
-3.42
-1.92
-0.99
-0.27
0.55
1.65
3.11
4.84
6.72
8.54
10.13
11.36
12.19
12.68
12.94
13.15
13.43
13.88
14.45
15.10
15.68
16.06
16.17
15.95
15.42
14.63
13.61
12.41
11.11
9.82
8.63
7.68
6.99
6.55
6.28
6.03
5.71
5.26
4.70
4.10
3.47
2.80
2.04
1.14
0.10
-0.99
-2.05
-3.02
-3.90
-4.76
-5.67
-6.70
-7.88
-9.19
-10.59
-12.04
-13.48
-14.87
-16.18
-17.45
-18.75
-20.18
-21.86
-23.82
-25.97
-28.06
-29.70
-30.42
-29.79
-27.61
-23.97
-19.26
-14.14
-9.30
-5.31
-2.48
-0.79
0.02
0.35
0.62
1.13
2.05
3.33
4.83
6.36
7.76
8.92
9.82
10.48
10.96
11.36
11.77
12.26
12.89
13.61
14.32
14.86
15.08
14.90
14.31
13.43
12.42
11.47
10.71
10.20
9.85
9.50
8.98
8.17
7.13
6.01
5.00
4.29
3.88
3.71
3.58
3.31
2.77
1.91
0.77
-0.59
-2.08
-3.62
-5.12
-6.52
-7.74
-8.78
-9.66
-10.48
-11.32
-12.24
-13.23
-14.28
-15.34
-16.42
-17.61
-19.02
-20.75
-22.82
-25.05
-27.04
-28.25
-28.16
-26.41
-22.98
-18.24
-12.85
-7.53
-2.88
0.76
3.35
5.03
6.09
6.84
7.55
8.42
9.57
10.99
12.56
14.07
15.35
16.31
16.97
17.46
17.94
18.48
19.12
19.78
20.37
20.83
21.13
21.24
21.16
20.87
20.36
19.69
18.94
18.21
17.55
16.96
16.34
15.63
14.77
13.76
12.64
11.47
10.29
9.16
8.10
7.09
6.05
4.84
3.35
1.57
-0.37
-2.28
-3.96
-5.36
-6.62
-7.95
-9.51
-11.29
-13.16
-14.95
-16.58
-18.07
-19.55
-21.18
-23.09
-25.37
-27.99
-30.86
-33.70
-36.04
-37.32
-37.01
-34.84
-30.89
-25.66
-19.85
-14.23
-9.35
-5.50
-2.67
-0.67
0.81
2.12
3.49
5.09
6.95
9.02
11.15
13.16
14.89
16.24
17.19
17.80
18.21
18.58
19.04
19.66
20.42
21.21
21.86
22.20
22.15
21.71
20.95
20.01
18.96
17.88
16.78
15.70
14.66
13.73
12.92
12.22
11.57
10.89
10.13
9.33
8.57
7.90
7.35
6.86
6.30
5.55
4.53
3.21
1.69
0.10
-1.40
-2.65
-3.60
-4.33
-4.96
-5.70
-6.68
-7.97
-9.53
-11.27
-13.07
-14.84
-16.53
-18.14
-19.71
-21.31
-23.07
-25.14
-27.59
-30.36
-33.19
-35.57
-36.88
-36.58
-34.36
-30.34
-25.05
-19.24
-13.72
-9.07
-5.56
-3.13
-1.49
-0.29
0.84
2.14
3.75
5.66
7.75
9.86
11.80
13.42
14.65
15.54
16.17
16.68
17.23
17.89
18.66
19.45
20.13
20.58
20.69
20.42
19.85
19.09
18.23
17.36
16.51
15.66
14.79
13.94
13.13
12.41
11.81
11.32
10.92
10.55
10.14
9.62
8.92
7.95
6.71
5.23
3.64
2.08
0.71
-0.43
-1.37
-2.23
-3.18
-4.36
-5.85
-7.59
-9.44
-11.20
-12.71
-13.91
-14.95
-16.10
-17.69
-19.90
-22.71
-25.76
-28.46
-30.08
-30.05
-28.06
-24.25
-19.10
-13.34
-7.71
-2.77
1.16
4.00
5.90
7.14
8.04
8.92
9.99
11.32
12.78
14.18
15.31
16.10
16.60
16.93
17.19
17.40
17.52
17.50
17.33
17.04
16.67
16.23
15.64
14.86
13.92
12.93
12.01
11.27
10.75
10.40
10.16
9.93
9.67
9.30
8.72
7.91
6.90
5.82
4.85
4.11
3.60
3.14
2.49
1.43
-0.10
-1.90
-3.64
-5.02
-5.88
-6.30
-6.59
-7.10
-8.08
-9.54
-11.30
-13.00
-14.38
-15.24
-15.62
-15.73
-15.87
-16.34
-17.38
-19.08
-21.32
-23.71
-25.57
-26.04
-24.43
-20.46
-14.58
-7.93
-2.00
1.87
3.05
1.85
-0.62
-2.91
-3.67
-2.07
2.16
8.82
17.34
27.04
37.15
46.92
55.73
63.12
68.92
73.18
76.08
77.87
78.68
78.55
77.34
74.87
71.01
65.77
59.36
52.27
45.00
38.05
31.72
26.13
21.28
17.18
13.87
11.47
10.02
9.29
8.88
8.24
6.93
4.80
2.01
-1.06
-3.97
-6.49
-8.53
-10.11
-11.21
-11.64
-11.19
-9.73
-7.41
-4.74
-2.49
-1.51
-2.44
-5.58
-10.82
-17.67
-25.41
-33.23
-40.28
-45.81
-49.35
-50.92
-51.13
-51.11
-52.08
-54.90
-59.61
-65.37
-70.80
-74.56
-75.94
-75.01
-72.46
-69.10
-65.40
-61.36
-56.75
-51.42
-45.55
-39.65
-34.24
-29.55
-25.38
-21.32
-17.02
-12.50
-8.03
-3.90
0.00
4.25
9.45
15.69
22.04
26.75
27.98
24.73
17.51
8.12
-1.23
-8.99
-14.89
-19.70
-24.41
-29.37
-34.04
-37.39
-38.74
-38.36
-37.41
-37.41
-39.46
-43.69
-49.42
-55.63
-61.50
-66.67
-71.11
-74.81
-77.51
-78.60
-77.36
-73.21
-66.00
-55.99
-43.80
-30.24
-16.16
-2.28
10.81
22.70
33.13
41.92
48.96
54.19
57.60
59.28
59.46
58.35
56.16
53.01
49.06
44.54
39.88
35.72
32.69
31.25
31.39
32.59
33.99
34.80
34.45
32.88
30.44
27.66
25.04
22.90
21.35
20.41
20.01
20.02
20.25
20.40
20.14
19.29
17.86
16.13
14.61
13.79
14.04
15.41
17.68
20.35
22.92
24.90
26.03
26.29
25.84
24.98
24.06
23.41
23.17
23.42
23.99
24.61
24.95
24.70
23.74
22.12
20.02
17.70
15.38
13.13
10.93
8.69
6.30
3.72
0.93
-1.98
-4.89
-7.67
-10.18
-12.36
-14.19
-15.76
-17.16
-18.54
-20.00
-21.52
-23.05
-24.47
-25.70
-26.71
-27.61
-28.60
-29.96
-31.88
-34.30
-36.85
-38.84
-39.53
-38.37
-35.21
-30.39
-24.61
-18.68
-13.31
-8.91
-5.64
-3.45
-2.20
-1.69
-1.64
-1.71
-1.57
-0.95
0.24
1.90
3.74
5.43
6.67
7.32
7.41
7.09
6.63
6.29
6.28
6.70
7.52
8.59
9.71
10.60
11.06
10.95
10.30
9.31
8.24
7.31
6.59
6.02
5.42
4.63
3.66
2.64
1.80
1.31
1.11
0.99
0.63
-0.15
-1.35
-2.77
-4.17
-5.39
-6.49
-7.66
-9.13
-10.90
-12.79
-14.45
-15.62
-16.33
-16.88
-17.73
-19.25
-21.55
-24.37
-27.25
-29.55
-30.71
-30.32
-28.16
-24.32
-19.17
-13.36
-7.63
-2.70
0.99
3.32
4.45
4.77
4.70
4.64
4.86
5.44
6.36
7.49
8.73
9.98
11.23
12.46
13.65
14.73
15.68
16.48
17.18
17.76
18.18
18.31
18.01
17.28
16.27
15.27
14.53
14.13
13.95
13.74
13.26
12.41
11.27
10.02
8.86
7.87
7.02
6.18
5.20
3.99
2.54
0.96
-0.63
-2.13
-3.52
-4.77
-5.92
-6.93
-7.80
-8.61
-9.53
-10.80
-12.60
-14.87
-17.31
-19.51
-21.22
-22.51
-23.75
-25.34
-27.39
-29.47
-30.77
-30.40
-27.92
-23.49
-17.87
-12.06
-6.87
-2.71
0.39
2.58
4.06
4.95
5.35
5.43
5.45
5.71
6.41
7.56
8.98
10.38
11.54
12.42
13.11
13.74
14.41
15.11
15.79
16.39
16.88
17.25
17.47
17.49
17.24
16.69
15.88
14.95
14.08
13.36
12.77
12.17
11.41
10.39
9.19
8.02
7.06
6.36
5.83
5.24
4.35
3.11
1.63
0.15
-1.15
-2.21
-3.15
-4.21
-5.53
-7.15
-8.90
-10.52
-11.81
-12.73
-13.45
-14.22
-15.37
-17.14
-19.57
-22.51
-25.61
-28.36
-30.15
-30.42
-28.82
-25.33
-20.35
-14.58
-8.84
-3.80
0.19
3.05
4.93
6.04
6.60
6.82
6.89
7.06
7.53
8.38
9.63
11.16
12.85
14.58
16.22
17.65
18.74
19.47
19.92
20.26
20.59
20.85
20.80
20.16
18.82
16.94
14.93
13.27
12.25
11.86
11.84
11.86
11.68
11.23
10.61
9.96
9.37
8.87
8.40
7.86
7.18
6.28
5.18
3.93
2.60
1.22
-0.19
-1.70
-3.34
-5.10
-6.95
-8.80
-10.55
-12.10
-13.39
-14.45
-15.37
-16.32
-17.48
-18.98
-20.89
-23.08
-25.25
-26.94
-27.64
-26.91
-24.59
-20.78
-15.92
-10.62
-5.58
-1.32
1.87
4.00
5.31
6.15
6.92
7.89
9.18
10.72
12.34
13.85
15.10
16.07
16.80
17.37
17.90
18.44
18.97
19.47
19.86
20.06
20.03
19.72
19.13
18.29
17.28
16.17
15.09
14.10
13.22
12.44
11.70
10.92
10.04
9.05
7.99
6.94
5.98
5.19
4.58
4.11
3.70
3.23
2.62
1.85
0.95
-0.03
-1.05
-2.08
-3.15
-4.32
-5.71
-7.33
-9.16
-11.04
-12.84
-14.46
-15.91
-17.33
-18.91
-20.83
-23.13
-25.68
-28.12
-29.98
-30.75
-30.03
-27.66
-23.81
-18.94
-13.70
-8.73
-4.52
-1.31
0.92
2.39
3.40
4.29
5.27
6.49
7.95
9.55
11.17
12.70
14.04
15.15
16.00
16.58
16.86
16.84
16.62
16.29
15.98
15.77
15.64
15.50
15.20
14.64
13.77
12.64
11.38
10.17
9.15
8.41
7.92
7.61
7.34
7.00
6.51
5.85
5.03
4.10
3.11
2.12
1.23
0.49
-0.04
-0.42
-0.72
-1.02
-1.43
-1.97
-2.65
-3.45
-4.38
-5.45
-6.64
-7.91
-9.16
-10.31
-11.34
-12.34
-13.44
-14.80
-16.55
-18.69
-21.17
-23.80
-26.26
-28.13
-28.91
-28.18
-25.73
-21.72
-16.64
-11.19
-6.09
-1.87
1.23
3.27
4.52
5.30
5.86
6.38
6.94
7.55
8.20
8.88
9.61
10.41
11.27
12.11
12.82
13.31
13.55
13.62
13.66
13.79
14.01
14.20
14.15
13.72
12.89
11.81
10.71
9.79
9.16
8.72
8.35
7.93
7.42
6.89
6.41
6.01
5.63
5.19
4.58
3.75
2.70
1.43
-0.03
-1.65
-3.34
-4.96
-6.37
-7.48
-8.29
-8.92
-9.57
-10.43
-11.62
-13.06
-14.60
-16.05
-17.29
-18.31
-19.19
-20.08
-21.15
-22.50
-24.20
-26.15
-28.07
-29.52
-29.97
-28.98
-26.34
-22.25
-17.18
-11.81
-6.74
-2.39
1.09
3.70
5.56
6.82
7.70
8.47
9.40
10.70
12.44
14.50
16.61
18.49
19.89
20.72
21.04
21.01
20.80
20.54
20.30
20.05
19.74
19.33
18.80
18.21
17.54
16.77
15.83
14.67
13.29
11.79
10.33
9.03
7.98
7.20
6.66
6.37
6.29
6.35
6.43
6.36
5.98
5.29
4.40
3.44
2.53
1.70
0.91
0.06
-0.92
-2.10
-3.47
-5.05
-6.82
-8.72
-10.65
-12.50
-14.15
-15.59
-16.89
-18.15
-19.52
-21.16
-23.17
-25.60
-28.27
-30.77
-32.51
-32.91
-31.55
-28.42
-23.86
-18.51
-13.14
-8.36
-4.54
-1.74
0.23
1.70
3.00
4.39
5.97
7.67
9.29
10.62
11.55
12.08
12.33
12.47
12.65
12.99
13.50
14.15
14.88
15.60
16.22
16.63
16.73
16.39
15.63
14.56
13.40
12.36
11.56
10.97
10.43
9.80
8.99
8.02
6.95
5.81
4.56
3.14
1.58
-0.01
-1.47
-2.71
-3.71
-4.60
-5.52
-6.54
-7.64
-8.76
-9.83
-10.85
-11.91
-13.07
-14.36
-15.79
-17.36
-19.13
-21.22
-23.71
-26.54
-29.44
-31.89
-33.29
-33.15
-31.23
-27.67
-22.95
-17.70
-12.54
-7.95
-4.18
-1.29
0.77
2.17
3.16
4.02
4.98
6.16
7.58
9.06
10.44
11.59
12.47
13.15
13.72
14.22
14.68
15.11
15.53
16.00
16.51
17.00
17.31
17.29
16.87
16.09
15.12
14.17
13.38
12.74
12.17
11.51
10.67
9.67
8.60
7.55
6.59
5.72
4.84
3.87
2.72
1.36
-0.19
-1.88
-3.62
-5.32
-6.91
-8.40
-9.81
-11.24
-12.78
-14.47
-16.27
-18.05
-19.73
-21.30
-22.91
-24.80
-27.17
-30.09
-33.31
-36.32
-38.43
-38.98
-37.56
-34.11
-28.99
-22.85
-16.43
-10.42
-5.31
-1.35
1.46
3.31
4.51
5.42
6.34
7.46
8.84
10.41
12.05
13.65
15.16
16.58
17.92
19.19
20.36
21.40
22.34
23.16
23.87
24.41
24.65
24.44
23.70
22.47
20.93
19.32
17.89
16.79
16.01
15.46
14.95
14.31
13.42
12.26
10.90
9.50
8.16
6.98
5.92
4.91
3.82
2.57
1.13
-0.49
-2.20
-3.93
-5.62
-7.25
-8.83
-10.41
-12.03
-13.71
-15.42
-17.10
-18.68
-20.13
-21.46
-22.79
-24.24
-26.01
-28.27
-31.12
-34.42
-37.74
-40.36
-41.42
-40.19
-36.37
-30.25
-22.67
-14.85
-7.95
-2.74
0.53
2.18
2.81
3.16
3.76
4.89
6.54
8.50
10.55
12.49
14.28
15.95
17.59
19.23
20.83
22.35
23.70
24.85
25.78
26.51
26.96
27.08
26.75
25.97
24.82
23.48
22.15
20.94
19.88
18.85
17.73
16.47
15.15
13.93
12.96
12.27
11.73
11.13
10.21
8.85
7.07
5.02
2.89
0.78
-1.28
-3.36
-5.53
-7.78
-10.06
-12.25
-14.30
-16.21
-18.12
-20.19
-22.57
-25.35
-28.53
-32.03
-35.65
-39.05
-41.72
-43.07
-42.51
-39.70
-34.68
-27.93
-20.27
-12.66
-5.93
-0.60
3.25
5.82
7.52
8.79
9.98
11.28
12.76
14.40
16.12
17.84
19.46
20.89
22.08
23.05
23.83
24.52
25.18
25.84
26.45
26.92
27.11
26.89
26.12
24.77
22.92
20.76
18.58
16.67
15.21
14.20
13.50
12.88
12.19
11.33
10.34
9.31
8.28
7.21
6.01
4.54
2.74
0.63
-1.68
-4.02
-6.26
-8.36
-10.42
-12.60
-15.02
-17.70
-20.53
-23.30
-25.82
-28.02
-29.97
-31.89
-34.09
-36.85
-40.35
-44.45
-48.71
-52.31
-54.33
-53.92
-50.59
-44.49
-36.31
-27.17
-18.23
-10.40
-4.15
0.51
3.87
6.34
8.31
10.08
11.86
13.83
16.04
18.49
21.03
23.43
25.47
26.99
27.99
28.56
28.90
29.20
29.57
30.04
30.51
30.81
30.75
30.16
29.07
27.58
25.95
24.38
23.04
21.95
20.99
20.03
18.92
17.64
16.20
14.69
13.20
11.75
10.36
8.96
7.45
5.75
3.78
1.54
-0.87
-3.26
-5.47
-7.38
-9.01
-10.50
-12.09
-13.95
-16.18
-18.70
-21.28
-23.74
-25.97
-28.02
-30.08
-32.37
-35.16
-38.60
-42.71
-47.25
-51.65
-55.02
-56.35
-54.84
-50.16
-42.70
-33.42
-23.62
-14.52
-6.96
-1.29
2.64
5.29
7.23
9.04
11.12
13.68
16.61
19.59
22.24
24.26
25.62
26.46
27.10
27.81
28.75
29.92
31.17
32.32
33.18
33.61
33.54
32.89
31.68
29.95
27.86
25.66
23.62
21.97
20.81
20.03
19.39
18.62
17.55
16.19
14.70
13.27
12.00
10.84
9.62
8.12
6.23
3.98
1.55
-0.81
-2.93
-4.78
-6.47
-8.24
-10.31
-12.77
-15.53
-18.34
-20.94
-23.13
-24.94
-26.66
-28.70
-31.44
-35.04
-39.30
-43.60
-47.05
-48.67
-47.68
-43.77
-37.20
-28.76
-19.61
-10.90
-3.52
2.13
6.12
8.92
11.12
13.24
15.57
18.11
20.66
22.99
24.94
26.49
27.78
28.89
29.85
30.60
31.07
31.23
31.21
31.16
31.21
31.31
31.24
30.71
29.55
27.82
25.74
23.67
21.86
20.42
19.30
18.39
17.58
16.81
16.10
15.44
14.82
14.15
13.35
12.33
11.08
9.65
8.08
6.46
4.81
3.18
1.55
-0.10
-1.77
-3.42
-5.01
-6.51
-7.95
-9.42
-11.02
-12.84
-14.93
-17.23
-19.67
-22.11
-24.46
-26.63
-28.62
-30.47
-32.36
-34.52
-37.23
-40.61
-44.44
-48.17
-50.87
-51.59
-49.62
-44.78
-37.51
-28.71
-19.55
-11.08
-4.03
1.31
5.05
7.64
9.63
11.55
13.78
16.44
19.43
22.50
25.33
27.72
29.59
30.94
31.84
32.39
32.71
33.01
33.48
34.25
35.27
36.26
36.79
36.47
35.17
33.10
30.73
28.58
26.96
25.89
25.09
24.20
22.98
21.40
19.62
17.85
16.28
14.94
13.76
12.59
11.31
9.87
8.29
6.66
5.02
3.34
1.57
-0.40
-2.62
-5.09
-7.69
-10.24
-12.56
-14.54
-16.21
-17.73
-19.33
-21.18
-23.38
-25.85
-28.41
-30.89
-33.15
-35.16
-37.02
-38.88
-40.90
-43.21
-45.83
-48.67
-51.39
-53.43
-54.05
-52.58
-48.64
-42.33
-34.26
-25.41
-16.85
-9.46
-3.71
0.38
3.13
5.05
6.63
8.26
10.08
12.07
14.07
15.94
17.63
19.15
20.58
21.92
23.11
24.10
24.85
25.44
26.00
26.57
27.09
27.35
27.14
26.35
25.07
23.55
22.09
20.91
20.06
19.47
18.98
18.49
17.91
17.27
16.60
15.97
15.38
14.84
14.30
13.72
13.04
12.23
11.24
10.02
8.59
7.00
5.36
3.82
2.49
1.39
0.48
-0.36
-1.29
-2.44
-3.90
-5.64
-7.58
-9.59
-11.49
-13.18
-14.59
-15.78
-16.95
-18.35
-20.31
-23.06
-26.66
-30.93
-35.40
-39.33
-41.90
-42.39
-40.44
-36.16
-30.12
-23.20
-16.31
-10.19
-5.26
-1.59
0.95
2.65
3.79
4.60
5.33
6.15
7.16
8.38
9.76
11.17
12.47
13.49
14.17
14.54
14.65
14.61
14.54
14.49
14.44
14.29
13.95
13.33
12.42
11.28
10.00
8.66
7.31
5.97
4.65
3.39
2.27
1.36
0.68
0.18
-0.22
-0.61
-1.00
-1.42
-1.85
-2.33
-2.93
-3.67
-4.54
-5.51
-6.52
-7.56
-8.59
-9.62
-10.61
-11.51
-12.29
-12.99
-13.72
-14.66
-15.92
-17.48
-19.17
-20.74
-21.98
-22.88
-23.61
-24.44
-25.64
-27.39
-29.61
-32.08
-34.41
-36.09
-36.62
-35.59
-32.81
-28.40
-22.84
-16.81
-11.08
-6.25
-2.60
-0.11
1.49
2.51
3.25
3.90
4.60
5.40
6.37
7.58
9.02
10.67
12.40
14.00
15.32
16.24
16.78
17.09
17.36
17.70
18.12
18.48
18.61
18.36
17.72
16.77
15.62
14.34
12.98
11.57
10.17
8.88
7.82
7.03
6.47
6.08
5.79
5.55
5.32
5.05
4.64
4.02
3.12
2.01
0.81
-0.37
-1.50
-2.65
-3.92
-5.39
-7.03
-8.76
-10.42
-11.97
-13.40
-14.73
-16.00
-17.20
-18.34
-19.46
-20.69
-22.22
-24.14
-26.36
-28.49
-29.94
-30.14
-28.74
-25.69
-21.33
-16.19
-10.90
-5.99
-1.86
1.30
3.45
4.69
5.27
5.48
5.63
5.97
6.67
7.73
9.06
10.47
11.77
12.85
13.69
14.37
15.01
15.71
16.50
17.30
18.01
18.48
18.58
18.23
17.41
16.18
14.69
13.15
11.72
10.56
9.69
9.05
8.54
8.07
7.55
6.94
6.24
5.42
4.50
3.50
2.46
1.36
0.19
-1.08
-2.52
-4.19
-6.12
-8.25
-10.54
-12.83
-14.97
-16.85
-18.46
-19.86
-21.22
-22.76
-24.69
-27.19
-30.30
-33.88
-37.52
-40.58
-42.32
-42.13
-39.72
-35.28
-29.45
-23.15
-17.23
-12.30
-8.58
-5.92
-3.95
-2.21
-0.33
1.89
4.50
7.38
10.32
13.05
15.33
17.01
18.08
18.71
19.13
19.57
20.21
21.10
22.15
23.23
24.17
24.81
25.02
24.75
24.00
22.87
21.51
20.11
18.85
17.86
17.18
16.79
16.57
16.40
16.10
15.58
14.81
13.80
12.61
11.28
9.77
8.07
6.15
4.09
2.00
0.01
-1.86
-3.62
-5.36
-7.17
-9.07
-11.10
-13.27
-15.59
-18.03
-20.51
-22.90
-25.07
-26.98
-28.70
-30.44
-32.47
-35.08
-38.37
-42.22
-46.16
-49.49
-51.38
-51.10
-48.29
-43.08
-36.11
-28.28
-20.56
-13.69
-8.08
-3.82
-0.74
1.50
3.33
5.14
7.23
9.71
12.49
15.33
17.96
20.20
22.03
23.57
24.94
26.25
27.48
28.57
29.50
30.25
30.84
31.22
31.32
31.00
30.20
28.94
27.36
25.70
24.18
22.97
22.15
21.65
21.31
20.94
20.37
19.52
18.48
17.40
16.41
15.62
14.99
14.37
13.63
12.67
11.47
10.09
8.58
6.97
5.24
3.39
1.43
-0.59
-2.57
-4.46
-6.25
-7.98
-9.73
-11.53
-13.38
-15.22
-17.00
-18.71
-20.41
-22.17
-24.11
-26.30
-28.78
-31.61
-34.84
-38.46
-42.33
-46.02
-48.79
-49.77
-48.18
-43.70
-36.64
-27.95
-18.88
-10.59
-3.87
1.07
4.49
6.90
8.87
10.80
12.91
15.22
17.66
20.12
22.50
24.74
26.77
28.52
29.94
30.99
31.68
32.13
32.46
32.76
33.03
33.15
32.94
32.25
31.02
29.38
27.57
25.88
24.54
23.60
22.89
22.15
21.12
19.70
17.96
16.13
14.46
13.13
12.18
11.51
10.96
10.38
9.67
8.79
7.73
6.55
5.32
4.12
2.97
1.85
0.68
-0.65
-2.19
-3.92
-5.74
-7.52
-9.18
-10.73
-12.26
-13.89
-15.72
-17.78
-20.04
-22.39
-24.67
-26.73
-28.47
-29.88
-31.13
-32.56
-34.52
-37.25
-40.62
-44.01
-46.41
-46.71
-44.10
-38.45
-30.38
-21.15
-12.17
-4.63
0.85
4.29
6.21
7.32
8.29
9.61
11.48
13.89
16.65
19.50
22.20
24.59
26.54
28.04
29.11
29.84
30.35
30.76
31.18
31.60
31.92
31.98
31.60
30.71
29.33
27.58
25.67
23.76
22.02
20.52
19.28
18.26
17.35
16.48
15.60
14.69
13.87
13.21
12.77
12.56
12.48
12.38
12.12
11.56
10.58
9.15
7.28
5.06
2.68
0.33
-1.83
-3.70
-5.34
-6.89
-8.50
-10.32
-12.38
-14.64
-17.01
-19.38
-21.62
-23.67
-25.46
-27.00
-28.39
-29.83
-31.61
-34.03
-37.24
-41.08
-44.99
-48.09
-49.46
-48.37
-44.64
-38.64
-31.25
-23.55
-16.56
-10.95
-7.00
-4.57
-3.30
-2.72
-2.39
-1.95
-1.17
0.06
1.71
3.73
5.98
8.33
10.66
12.86
14.85
16.58
18.04
19.29
20.34
21.20
21.80
22.00
21.64
20.65
19.08
17.12
15.04
13.08
11.36
9.88
8.53
7.29
6.18
5.28
4.69
4.43
4.42
4.55
4.66
4.64
4.41
3.88
3.00
1.71
0.04
-1.86
-3.81
-5.60
-7.14
-8.48
-9.78
-11.19
-12.75
-14.36
-15.82
-16.95
-17.68
-18.11
-18.49
-19.15
-20.33
-22.17
-24.55
-27.03
-28.99
-29.64
-28.39
-25.01
-19.74
-13.25
-6.39
0.05
5.54
9.87
13.09
15.42
17.10
18.39
19.46
20.49
21.60
22.88
24.37
26.00
27.63
29.04
30.05
30.55
30.62
30.44
30.26
30.28
30.49
30.75
30.80
30.41
29.42
27.83
25.76
23.40
20.95
18.58
16.40
14.47
12.81
11.36
10.05
8.77
7.44
6.02
4.54
3.03
1.51
0.00
-1.51
-3.03
-4.56
-6.07
-7.58
-9.13
-10.81
-12.69
-14.80
-17.02
-19.19
-21.14
-22.78
-24.15
-25.35
-26.55
-27.87
-29.42
-31.34
-33.72
-36.53
-39.47
-41.97
-43.27
-42.70
-39.94
-35.25
-29.39
-23.29
-17.78
-13.28
-9.79
-7.03
-4.69
-2.58
-0.66
1.07
2.58
3.97
5.37
6.84
8.41
9.98
11.45
12.77
13.94
15.03
16.07
17.05
17.86
18.40
18.65
18.67
18.57
18.41
18.15
17.64
16.76
15.45
13.89
12.28
10.88
9.77
8.87
8.03
7.07
5.94
4.69
3.43
2.24
1.12
0.03
-1.14
-2.42
-3.81
-5.23
-6.64
-8.02
-9.47
-11.11
-12.99
-15.06
-17.12
-18.95
-20.44
-21.68
-22.99
-24.75
-27.18
-30.16
-33.21
-35.55
-36.40
-35.24
-32.00
-27.06
-21.12
-14.94
-9.17
-4.24
-0.33
2.54
4.54
5.92
7.04
8.22
9.70
11.54
13.57
15.51
17.05
18.03
18.51
18.70
18.82
19.02
19.30
19.56
19.72
19.75
19.74
19.74
19.73
19.58
19.11
18.22
16.97
15.55
14.19
13.01
12.01
11.05
10.02
8.85
7.63
6.46
5.41
4.51
3.69
2.87
2.00
1.06
0.09
-0.88
-1.82
-2.75
-3.69
-4.69
-5.79
-7.01
-8.35
-9.81
-11.39
-13.07
-14.84
-16.64
-18.39
-19.99
-21.41
-22.69
-24.02
-25.67
-27.84
-30.55
-33.49
-36.09
-37.69
-37.71
-35.87
-32.22
-27.15
-21.26
-15.25
-9.79
-5.35
-2.15
-0.07
1.28
2.41
3.75
5.48
7.54
9.69
11.69
13.38
14.77
15.90
16.82
17.50
17.91
18.06
18.08
18.14
18.40
18.90
19.48
19.89
19.89
19.37
18.42
17.27
16.18
15.28
14.60
13.97
13.23
12.30
11.16
9.95
8.83
7.96
7.38
7.04
6.81
6.56
6.18
5.66
5.05
4.43
3.86
3.34
2.80
2.10
1.12
-0.21
-1.82
-3.58
-5.28
-6.75
-7.92
-8.82
-9.60
-10.45
-11.52
-12.90
-14.50
-16.21
-17.82
-19.21
-20.38
-21.47
-22.74
-24.44
-26.75
-29.59
-32.68
-35.49
-37.33
-37.57
-35.76
-31.84
-26.19
-19.54
-12.79
-6.80
-2.16
0.94
2.69
3.52
3.97
4.50
5.40
6.72
8.35
10.08
11.70
13.11
14.27
15.21
15.97
16.59
17.07
17.44
17.74
18.04
18.39
18.80
19.23
19.52
19.50
19.06
18.18
16.99
15.69
14.50
13.54
12.81
12.21
11.62
10.92
10.07
9.10
8.04
6.91
5.75
4.63
3.63
2.83
2.26
1.88
1.56
1.19
0.64
-0.13
-1.15
-2.34
-3.61
-4.85
-5.99
-6.99
-7.92
-8.92
-10.13
-11.66
-13.48
-15.45
-17.32
-18.87
-19.99
-20.73
-21.31
-22.04
-23.26
-25.15
-27.61
-30.22
-32.33
-33.22
-32.36
-29.59
-25.17
-19.68
-13.85
-8.38
-3.80
-0.41
1.74
2.84
3.29
3.54
4.04
5.04
6.58
8.49
10.49
12.32
13.82
14.94
15.75
16.34
16.82
17.29
17.78
18.31
18.86
19.37
19.73
19.85
19.64
19.07
18.20
17.16
16.13
15.23
14.47
13.80
13.08
12.23
11.24
10.20
9.24
8.45
7.87
7.43
7.02
6.50
5.78
4.81
3.60
2.23
0.78
-0.66
-2.01
-3.29
-4.52
-5.81
-7.27
-8.93
-10.73
-12.54
-14.19
-15.63
-16.97
-18.46
-20.39
-22.88
-25.81
-28.80
-31.28
-32.64
-32.39
-30.35
-26.61
-21.60
-15.97
-10.46
-5.69
-2.08
0.29
1.64
2.37
2.92
3.61
4.60
5.92
7.43
8.98
10.42
11.66
12.72
13.64
14.51
15.34
16.12
16.77
17.22
17.45
17.52
17.50
17.44
17.29
16.92
16.20
15.09
13.66
12.14
10.78
9.79
9.21
8.95
8.80
8.57
8.17
7.62
7.01
6.43
5.89
5.33
4.62
3.70
2.52
1.15
-0.29
-1.69
-2.96
-4.04
-4.91
-5.59
-6.20
-6.92
-7.94
-9.40
-11.28
-13.40
-15.49
-17.31
-18.76
-19.93
-21.10
-22.56
-24.48
-26.89
-29.50
-31.89
-33.50
-33.85
-32.61
-29.73
-25.51
-20.46
-15.20
-10.28
-6.11
-2.84
-0.45
1.22
2.42
3.40
4.41
5.64
7.16
8.91
10.71
12.33
13.61
14.52
15.18
15.79
16.52
17.41
18.33
19.16
19.73
20.02
20.06
19.91
19.58
19.01
18.17
17.10
15.96
14.96
14.24
13.81
13.52
13.14
12.50
11.61
10.62
9.70
9.00
8.48
8.01
7.40
6.56
5.49
4.26
2.99
1.75
0.54
-0.64
-1.79
-2.89
-3.95
-5.00
-6.14
-7.45
-8.99
-10.71
-12.52
-14.30
-15.94
-17.42
-18.75
-20.03
-21.38
-22.97
-24.97
-27.41
-30.16
-32.76
-34.57
-34.94
-33.43
-30.01
-25.11
-19.48
-13.91
-9.05
-5.25
-2.53
-0.71
0.49
1.39
2.24
3.24
4.50
5.99
7.57
9.06
10.32
11.29
11.99
12.53
13.00
13.45
13.90
14.34
14.77
15.18
15.51
15.68
15.58
15.11
14.27
13.16
11.95
10.84
9.97
9.37
8.97
8.66
8.31
7.85
7.28
6.69
6.17
5.79
5.55
5.36
5.05
4.48
3.61
2.57
1.60
0.86
0.39
0.02
-0.51
-1.44
-2.82
-4.54
-6.34
-7.96
-9.31
-10.41
-11.41
-12.49
-13.77
-15.33
-17.23
-19.49
-22.02
-24.61
-26.82
-28.10
-27.92
-25.96
-22.28
-17.33
-11.83
-6.56
-2.13
1.21
3.51
5.09
6.33
7.50
8.76
10.07
11.32
12.41
13.30
14.06
14.79
15.55
16.37
17.20
17.98
18.68
19.29
19.84
20.28
20.53
20.43
19.82
18.70
17.18
15.49
13.91
12.62
11.66
10.92
10.21
9.42
8.53
7.61
6.78
6.12
5.64
5.28
4.90
4.41
3.72
2.77
1.58
0.20
-1.28
-2.75
-4.13
-5.39
-6.57
-7.78
-9.14
-10.70
-12.47
-14.32
-16.13
-17.79
-19.23
-20.52
-21.78
-23.22
-25.01
-27.22
-29.77
-32.32
-34.38
-35.37
-34.86
-32.65
-28.93
-24.15
-18.94
-13.90
-9.47
-5.90
-3.19
-1.17
0.47
2.08
3.92
6.09
8.47
10.80
12.79
14.30
15.40
16.25
17.06
17.87
18.60
19.10
19.31
19.26
19.13
19.10
19.25
19.51
19.73
19.72
19.41
18.79
18.00
17.14
16.33
15.63
15.05
14.57
14.14
13.72
13.27
12.75
12.13
11.41
10.61
9.75
8.86
7.94
6.96
5.94
4.85
3.70
2.49
1.22
-0.08
-1.37
-2.63
-3.84
-4.97
-6.05
-7.10
-8.19
-9.38
-10.74
-12.27
-13.92
-15.59
-17.23
-18.91
-20.79
-23.12
-26.02
-29.35
-32.60
-35.07
-36.03
-35.03
-32.05
-27.51
-22.10
-16.52
-11.40
-7.10
-3.75
-1.26
0.62
2.25
3.98
6.01
8.33
10.69
12.76
14.29
15.22
15.69
15.94
16.18
16.50
16.83
17.06
17.12
17.03
16.82
16.57
16.25
15.80
15.16
14.32
13.37
12.47
11.77
11.37
11.27
11.36
11.44
11.36
10.99
10.29
9.32
8.20
7.12
6.20
5.50
4.98
4.48
3.89
3.10
2.12
1.04
-0.03
-1.05
-2.01
-2.95
-3.91
-4.88
-5.85
-6.79
-7.74
-8.78
-10.03
-11.52
-13.17
-14.78
-16.14
-17.13
-17.85
-18.55
-19.53
-21.05
-23.15
-25.60
-27.97
-29.72
-30.31
-29.41
-26.89
-22.96
-18.04
-12.75
-7.69
-3.36
-0.05
2.18
3.53
4.33
4.96
5.72
6.78
8.17
9.74
11.36
12.93
14.35
15.60
16.64
17.40
17.87
18.11
18.21
18.30
18.51
18.82
19.14
19.28
19.07
18.42
17.36
16.09
14.86
13.89
13.27
12.95
12.74
12.46
12.01
11.41
10.75
10.11
9.51
8.93
8.30
7.58
6.75
5.86
4.95
4.05
3.16
2.26
1.35
0.40
-0.58
-1.61
-2.70
-3.86
-5.10
-6.41
-7.75
-9.04
-10.21
-11.26
-12.25
-13.38
-14.84
-16.81
-19.30
-22.09
-24.74
-26.71
-27.51
-26.84
-24.70
-21.38
-17.40
-13.30
-9.58
-6.53
-4.20
-2.49
-1.16
0.08
1.49
3.19
5.17
7.28
9.29
10.98
12.22
13.02
13.49
13.78
13.98
14.10
14.14
14.06
13.89
13.68
13.48
13.28
13.04
12.64
12.07
11.35
10.62
10.04
9.68
9.55
9.55
9.51
9.33
8.95
8.40
7.78
7.17
6.61
6.12
5.67
5.18
4.60
3.92
3.13
2.27
1.40
0.56
-0.24
-1.02
-1.80
-2.56
-3.26
-3.86
-4.38
-4.88
-5.49
-6.27
-7.30
-8.53
-9.90
-11.29
-12.63
-13.86
-14.99
-16.08
-17.21
-18.47
-19.92
-21.60
-23.48
-25.40
-27.06
-28.06
-27.95
-26.42
-23.43
-19.27
-14.52
-9.87
-5.90
-2.93
-0.97
0.23
1.04
1.82
2.76
3.96
5.33
6.75
8.07
9.19
10.06
10.72
11.18
11.51
11.72
11.91
12.14
12.51
13.04
13.67
14.21
14.47
14.29
13.66
12.68
11.58
10.59
9.86
9.37
9.01
8.62
8.08
7.39
6.65
5.99
5.52
5.24
5.06
4.86
4.47
3.80
2.83
1.62
0.28
-1.00
-2.07
-2.82
-3.26
-3.50
-3.71
-4.03
-4.51
-5.08
-5.63
-6.07
-6.40
-6.68
-7.02
-7.55
-8.32
-9.38
-10.69
-12.16
-13.67
-15.09
-16.28
-17.24
-18.07
-18.96
-20.13
-21.67
-23.46
-25.12
-26.12
-25.95
-24.33
-21.30
-17.23
-12.71
-8.35
-4.64
-1.89
-0.12
0.81
1.22
1.46
1.88
2.74
4.08
5.80
7.63
9.27
10.49
11.24
11.63
11.87
12.12
12.49
12.98
13.51
13.93
14.18
14.21
14.03
13.66
13.15
12.57
11.99
11.50
11.18
11.00
10.94
10.91
10.82
10.61
10.28
9.85
9.40
9.01
8.70
8.44
8.12
7.61
6.80
5.67
4.32
2.93
1.64
0.55
-0.31
-1.04
-1.67
-2.29
-2.94
-3.63
-4.41
-5.35
-6.48
-7.80
-9.25
-10.70
-12.01
-13.07
-13.84
-14.40
-14.93
-15.65
-16.75
-18.36
-20.45
-22.84
-25.19
-27.00
-27.75
-27.04
-24.75
-21.15
-16.79
-12.38
-8.57
-5.74
-3.99
-3.10
-2.71
-2.38
-1.81
-0.80
0.63
2.33
4.06
5.58
6.77
7.60
8.15
8.52
8.77
8.95
9.13
9.39
9.85
10.56
11.46
12.39
13.13
13.47
13.32
12.68
11.70
10.54
9.41
8.46
7.75
7.25
6.89
6.59
6.29
6.00
5.77
5.63
5.62
5.66
5.67
5.53
5.19
4.66
4.03
3.44
2.99
2.69
2.46
2.15
1.63
0.81
-0.26
-1.49
-2.74
-3.91
-4.94
-5.87
-6.75
-7.61
-8.55
-9.56
-10.64
-11.72
-12.72
-13.53
-14.19
-14.83
-15.68
-17.00
-18.94
-21.50
-24.43
-27.30
-29.51
-30.49
-29.86
-27.50
-23.66
-18.88
-13.88
-9.32
-5.67
-3.13
-1.63
-0.89
-0.52
-0.17
0.46
1.50
2.91
4.51
6.08
7.47
8.64
9.65
10.59
11.51
12.40
13.20
13.84
14.32
14.71
15.06
15.38
15.59
15.55
15.15
14.42
13.49
12.61
11.99
11.71
11.67
11.66
11.46
10.95
10.20
9.33
8.52
7.85
7.31
6.88
6.52
6.16
5.74
5.23
4.55
3.70
2.73
1.75
0.82
-0.02
-0.81
-1.65
-2.61
-3.70
-4.85
-5.93
-6.87
-7.67
-8.39
-9.15
-10.03
-11.03
-12.10
-13.15
-14.12
-15.01
-15.89
-16.92
-18.25
-19.99
-22.11
-24.43
-26.59
-28.13
-28.59
-27.65
-25.26
-21.62
-17.18
-12.53
-8.23
-4.73
-2.27
-0.82
-0.08
0.39
1.08
2.32
4.17
6.43
8.73
10.71
12.16
13.11
13.71
14.19
14.73
15.34
15.97
16.55
17.02
17.38
17.70
17.95
18.07
17.94
17.46
16.67
15.72
14.87
14.32
14.17
14.31
14.51
14.55
14.32
13.85
13.27
12.69
12.13
11.56
10.89
10.08
9.19
8.26
7.34
6.44
5.51
4.48
3.32
2.06
0.76
-0.51
-1.75
-2.97
-4.18
-5.39
-6.58
-7.74
-8.88
-10.06
-11.31
-12.69
-14.16
