1563393987.00
64.000000
-0.00
-0.00
-0.00
-0.00
-0.00
-0.00
-0.00
-0.00
-0.00
-0.00
0.00
0.01
0.01
-0.00
-0.03
-0.05
-0.05
0.00
0.13
0.36
0.66
1.01
1.37
1.72
2.06
2.40
2.79
3.24
3.80
4.42
5.07
5.69
6.25
6.77
7.30
7.93
8.71
9.73
10.92
12.16
13.35
14.42
15.44
16.54
17.96
19.84
22.40
25.44
28.70
31.88
34.82
37.60
40.54
44.09
48.58
54.39
61.18
68.42
75.54
82.20
88.47
94.87
102.13
110.79
121.42
133.52
146.31
158.88
170.70
181.83
192.94
205.43
218.07
233.13
251.20
272.34
295.24
316.95
333.12
339.20
331.95
310.61
277.67
236.96
192.75
148.08
104.39
61.91
20.61
-19.05
-56.12
-89.20
-117.70
-141.55
-161.44
-177.98
-191.28
-200.96
-206.28
-206.83
-202.73
-195.21
-186.08
-177.33
-170.45
-166.00
-163.55
-161.59
-158.74
-154.20
-148.37
-142.60
-138.72
-138.19
-141.42
-147.57
-154.85
-161.42
-166.24
-169.68
-173.38
-179.50
-189.57
-203.56
-219.66
-235.15
-247.53
-255.85
-261.24
-266.54
-275.32
-290.91
-315.51
-350.03
-393.50
-442.66
-491.69
-532.69
-557.24
-558.63
-534.36
-487.29
-424.82
-356.42
-290.19
-229.94
-174.72
-120.49
-63.91
-5.57
49.38
93.68
122.10
134.70
136.83
136.07
138.10
144.01
151.43
158.40
166.76
182.40
211.59
255.38
306.03
347.71
362.71
339.40
278.39
193.39
106.33
39.47
7.89
15.32
54.86
112.86
173.66
223.33
250.94
249.35
216.00
153.85
72.05
-15.50
-93.58
-150.16
-179.85
-184.63
-171.50
-148.81
-123.23
-98.35
-75.08
-52.67
-29.72
-4.54
24.44
57.95
95.18
133.35
168.33
196.05
213.88
221.09
218.46
207.19
188.51
163.99
136.22
109.18
87.26
73.43
67.74
66.96
66.04
60.48
48.36
31.07
12.41
-3.02
-11.55
-11.34
-2.37
13.94
35.53
60.10
85.13
107.54
123.51
128.95
120.64
98.06
64.65
27.41
-5.53
-28.63
-41.60
-49.56
-59.98
-78.21
-103.98
-131.01
-150.06
-153.59
-139.46
-111.85
-78.97
-49.15
-27.42
-14.09
-5.77
2.17
13.35
29.22
49.32
72.30
97.08
123.22
150.60
178.52
204.96
226.75
240.43
243.63
236.00
219.33
196.87
172.11
147.53
124.14
101.62
79.11
55.97
32.39
9.44
-11.40
-28.79
-42.12
-51.67
-58.38
-63.41
-67.69
-71.62
-75.10
-77.70
-79.04
-78.95
-77.62
-75.45
-72.92
-70.38
-67.98
-65.69
-63.37
-60.88
-58.15
-55.21
-52.14
-49.05
-46.04
-43.14
-40.38
-37.73
-35.19
-32.74
-30.38
-28.12
-25.96
-23.90
-21.95
-20.10
-18.34
-16.70
-15.16
-13.73
-12.39
-11.13
-9.99
-8.95
-8.02
-7.18
-6.45
-5.79
-5.21
-4.70
-4.26
-3.87
-3.53
-3.23
-2.97
-2.73
-2.52
-2.33
-2.16
-2.01
-1.88
-1.76
-1.66
-1.56
-1.47
-1.38
-1.31
-1.23
-1.17
-1.11
-1.06
-1.01
-0.96
-0.92
-0.88
-0.84
-0.81
-0.77
-0.74
-0.71
-0.67
-0.63
-0.58
-0.53
-0.47
-0.40
-0.32
-0.24
-0.15
-0.05
0.06
0.16
0.28
0.38
0.49
0.61
0.72
0.84
0.97
1.10
1.25
1.40
1.57
1.75
1.95
2.17
2.42
2.70
3.01
3.35
3.74
4.15
4.62
5.14
5.70
6.33
7.02
7.78
8.61
9.50
10.46
11.49
12.61
13.81
15.10
16.48
17.95
19.53
21.18
22.91
24.73
26.65
28.68
30.84
33.12
35.54
38.10
40.68
43.24
45.68
47.85
49.52
50.47
50.46
49.29
46.78
42.74
37.15
30.14
21.90
12.74
3.05
-6.74
-16.22
-24.44
-31.44
-37.04
-41.13
-43.72
-44.93
-44.92
-43.92
-42.49
-40.60
-38.49
-36.30
-34.11
-31.99
-30.00
-28.10
-26.32
-24.62
-22.94
-21.34
-19.87
-18.54
-17.37
-16.38
-15.51
-14.74
-13.97
-13.18
-12.43
-11.78
-11.31
-11.06
-11.04
-11.22
-11.51
-11.84
-12.16
-12.54
-13.10
-13.96
-15.22
-16.87
-18.82
-20.91
-22.88
-24.71
-26.49
-28.54
-31.17
-34.60
-38.87
-43.68
-48.61
-53.08
-56.96
-60.47
-64.22
-68.94
-75.14
-82.84
-91.49
-100.18
-107.83
-113.95
-118.70
-122.77
-126.87
-131.31
-135.48
-137.92
-137.17
-131.12
-118.86
-100.88
-78.75
-54.55
-30.31
-7.97
11.05
25.26
35.11
43.02
53.13
69.71
94.92
127.09
161.13
190.18
208.85
215.62
212.70
204.56
195.31
187.08
179.84
172.49
164.45
156.21
148.99
143.40
138.90
133.77
126.06
114.64
98.68
78.90
56.78
34.03
11.76
-9.75
-30.86
-52.27
-73.66
-94.57
-113.96
-130.69
-143.78
-152.84
-158.18
-160.62
-160.88
-159.37
-156.21
-151.02
-143.18
-132.32
-118.08
-100.69
-80.77
-59.20
-36.83
-14.61
6.73
26.56
43.68
57.97
69.34
77.78
83.43
86.58
87.54
86.78
84.69
82.15
79.27
76.24
73.26
70.42
67.82
65.41
63.09
60.81
58.57
56.46
54.61
53.13
51.99
51.11
50.23
49.02
47.16
44.40
40.67
36.12
31.28
25.86
19.78
12.80
4.73
-4.48
-14.42
-24.22
-32.75
-38.91
-42.07
-42.16
-39.83
-36.12
-32.09
-28.24
-24.36
-19.69
-13.29
-4.79
5.52
16.52
26.76
34.89
40.33
43.39
45.14
47.08
50.81
57.74
68.10
80.35
90.74
93.82
84.44
59.79
21.20
-26.16
-74.21
-114.10
-138.84
-145.22
-134.50
-111.57
-83.05
-54.92
-31.29
-13.61
-1.57
5.63
8.54
7.46
3.48
-1.38
-3.93
-1.50
7.13
20.55
35.07
46.47
51.91
50.86
44.51
35.13
24.63
14.32
4.50
-5.66
-17.39
-31.72
-48.96
-68.71
-88.08
-106.90
-124.53
-139.09
-147.26
-144.98
-129.23
-100.11
-61.61
-20.69
15.01
40.45
54.46
59.22
58.45
55.58
52.61
50.39
49.34
49.60
51.51
54.82
58.65
61.54
62.46
61.16
58.48
56.03
55.58
58.79
66.12
76.05
84.60
86.35
76.44
52.97
18.52
-20.49
-56.09
-82.15
-96.65
-101.87
-102.21
-101.58
-101.59
-101.64
-100.71
-98.38
-96.32
-96.12
-98.94
-104.55
-111.39
-117.33
-120.02
-117.59
-109.23
-94.31
-73.71
-49.98
-26.50
-6.24
9.45
21.28
31.28
41.57
52.35
62.08
68.34
69.46
65.56
58.47
50.47
43.07
36.53
30.26
23.79
17.40
12.15
9.78
11.51
17.47
26.64
36.88
46.13
53.12
57.78
61.07
64.45
68.96
74.68
80.54
84.96
86.56
84.75
79.97
73.47
66.38
59.43
52.07
43.01
30.83
14.53
-6.34
-31.67
-60.57
-90.80
-118.56
-138.14
-145.27
-138.00
-118.37
-92.14
-66.78
-48.40
-39.55
-38.98
-42.95
-48.04
-52.47
-56.42
-60.91
-66.43
-72.29
-77.03
-79.39
-79.10
-76.99
-74.20
-71.67
-69.38
-66.42
-61.47
-53.04
-40.40
-23.80
-4.39
16.19
36.26
54.52
70.26
83.37
94.16
103.03
110.29
115.89
119.53
120.72
119.05
114.50
107.65
99.86
92.85
88.37
87.59
90.71
96.79
104.13
110.92
115.83
118.65
119.96
120.98
122.98
127.18
134.58
145.58
159.05
171.89
179.30
175.97
158.78
128.69
91.01
53.68
24.14
6.21
-0.62
0.17
4.00
8.03
11.66
15.75
21.20
27.98
34.11
37.66
38.06
35.90
33.11
31.92
33.66
38.33
44.62
48.23
44.53
34.30
18.61
-0.09
-18.92
-35.40
-47.89
-55.97
-63.50
-74.64
-92.06
-116.35
-145.55
-176.58
-206.07
-231.37
-251.41
-271.04
-296.06
-330.76
-376.82
-433.06
-497.47
-567.67
-640.70
-686.95
-684.40
-624.06
-514.50
-376.24
-231.88
-100.23
7.07
86.30
140.41
173.11
190.35
198.51
202.32
203.59
200.36
188.62
168.20
141.68
111.52
82.34
60.15
49.87
57.14
79.58
111.20
146.11
180.17
209.34
231.08
244.35
249.16
246.54
237.78
225.16
211.24
197.64
184.03
166.90
142.99
111.05
73.27
34.75
2.83
-15.96
-17.69
-6.11
10.22
22.54
25.48
18.82
6.08
-7.65
-18.52
-25.38
-29.33
-31.87
-33.39
-33.37
-31.18
-27.03
-21.90
-17.17
-14.14
-13.40
-14.50
-16.03
-16.54
-15.11
-11.85
-7.62
-3.66
-0.97
-0.03
-0.52
-1.46
-1.83
-0.94
1.18
4.02
6.80
8.87
9.91
10.08
9.85
9.78
10.24
11.24
12.56
13.86
14.88
15.49
15.78
15.94
15.84
15.80
15.88
16.06
16.25
16.36
16.36
16.24
16.00
15.63
15.18
14.60
13.87
12.94
11.80
10.43
8.83
6.95
4.78
2.35
-0.38
-3.41
-6.79
-10.52
-14.62
-19.15
-24.18
-29.78
-35.97
-42.78
-50.17
-58.11
-66.59
-75.64
-85.39
-96.07
-107.90
-121.01
-135.43
-151.03
-167.60
-184.96
-202.88
-221.19
-239.63
-257.60
-274.12
-287.79
-296.82
-299.20
-293.58
-278.69
-254.08
-220.38
-179.03
-132.15
-82.33
-32.22
15.66
58.80
94.68
120.83
135.18
136.71
125.95
105.11
78.14
49.77
24.27
4.54
-8.34
-14.76
-15.35
-9.97
2.69
25.10
59.67
107.08
165.10
228.31
288.22
336.84
370.37
388.07
392.38
387.58
378.36
368.31
359.16
350.17
337.87
316.65
279.87
222.85
146.22
58.08
-26.71
-90.64
-120.68
-114.06
-80.19
-37.06
-3.32
9.39
0.24
-23.78
-50.70
-70.52
-79.05
-78.03
-71.88
-63.95
-54.69
-43.03
-28.71
-13.63
-1.75
2.85
-1.49
-12.90
-26.70
-37.15
-40.23
-35.04
-23.78
-10.77
-0.32
5.06
5.39
2.82
0.25
-0.08
2.43
6.86
11.36
14.23
14.79
13.63
12.18
11.70
12.83
15.25
18.07
20.39
21.83
22.79
24.14
26.59
30.19
34.31
37.86
39.73
39.50
37.52
34.63
31.32
27.60
22.00
12.70
-1.70
-21.75
-47.21
-77.31
-110.92
-145.75
-178.53
-204.60
-218.90
-217.97
-201.91
-175.00
-144.28
-117.34
-98.84
-90.19
-89.56
-93.68
-99.37
-104.30
-106.75
-105.01
-96.52
-78.49
-49.65
-11.45
31.10
70.30
97.94
108.20
101.18
82.81
62.23
47.56
42.69
46.21
53.26
58.93
60.61
58.92
56.27
54.65
54.28
53.85
51.64
46.89
40.24
33.22
27.79
24.99
24.61
25.34
25.57
24.10
20.68
16.05
11.43
8.07
6.53
6.54
7.21
7.51
6.78
4.97
2.56
0.27
-1.24
-1.73
-1.41
-0.80
-0.41
-0.53
-1.20
-2.14
-3.04
-3.60
-3.72
-3.50
-3.11
-2.77
-2.58
-2.56
-2.64
-2.74
-2.81
-2.80
-2.74
-2.66
-2.56
-2.49
-2.42
-2.36
-2.31
-2.25
-2.17
-2.09
-2.00
-1.94
-1.93
-1.99
-2.12
-2.27
-2.42
-2.48
-2.47
-2.39
-2.31
-2.26
-2.32
-2.46
-2.65
-2.80
-2.86
-2.81
-2.69
-2.59
-2.62
-2.86
-3.27
-3.77
-4.18
-4.35
-4.23
-3.94
-3.71
-3.84
-4.52
-5.69
-7.10
-8.31
-8.95
-8.88
-8.37
-7.93
-8.21
-9.56
-11.92
-14.73
-17.16
-18.50
-18.47
-17.56
-16.66
-16.87
-18.84
-22.47
-26.86
-30.71
-33.05
-33.47
-32.48
-31.10
-30.47
-31.36
-34.33
-39.61
-46.95
-54.97
-60.82
-60.61
-50.87
-30.52
-2.04
28.95
55.87
73.84
81.61
81.36
77.14
72.38
68.61
65.55
62.23
58.38
54.79
52.77
52.92
54.90
57.20
58.20
56.89
52.84
46.84
40.16
34.13
29.40
26.05
23.67
21.88
20.44
19.65
20.14
22.40
26.60
32.01
37.42
41.33
42.44
39.99
33.86
24.74
13.12
0.86
-10.94
-21.50
-30.40
-37.49
-42.72
-46.27
-48.19
-48.63
-47.75
-45.92
-43.49
-40.77
-38.03
-35.48
-33.23
-31.29
-29.61
-27.94
-26.22
-24.42
-22.53
-20.68
-19.04
-17.75
-16.89
-16.35
-15.80
-15.02
-13.82
-12.23
-10.54
-9.20
-8.61
-8.90
-9.84
-10.79
-11.14
-10.47
-8.83
-6.76
-5.14
-4.73
-5.86
-8.12
-10.51
-11.98
-11.89
-10.33
-8.13
-6.53
-6.39
-7.87
-10.10
-11.49
-10.38
-5.43
4.19
18.83
38.04
59.96
80.92
95.71
99.85
91.39
72.39
48.49
26.68
12.34
7.14
8.98
13.95
18.82
22.41
25.61
29.93
35.92
42.72
48.49
51.59
51.39
48.53
44.33
40.21
36.70
33.36
28.87
21.68
10.68
-3.78
-20.43
-36.80
-50.10
-58.20
-60.50
-58.23
-54.08
-51.47
-52.34
-56.98
-63.54
-68.79
-69.67
-64.78
-55.54
-45.47
-38.77
-38.32
-44.26
-53.87
-63.13
-68.82
-69.38
-64.85
-56.00
-43.52
-28.81
-14.71
-5.58
-5.67
-16.19
-32.85
-46.64
-47.85
-31.83
-2.80
27.03
43.06
35.97
6.96
-32.59
-66.72
-82.64
-76.28
-52.90
-22.94
3.54
21.46
31.61
37.71
42.84
47.18
48.31
43.38
32.09
17.53
4.89
-1.03
1.26
9.17
17.58
21.44
18.09
8.74
-2.32
-9.65
-8.78
2.54
23.44
50.07
76.53
96.33
104.65
100.11
85.31
65.89
48.03
35.74
29.38
26.25
22.52
15.75
6.09
-4.52
-14.10
-22.11
-29.76
-38.92
-50.52
-63.60
-75.87
-84.56
-88.02
-86.44
-81.42
-75.24
-69.97
-66.88
-66.01
-66.08
-64.13
-56.47
-39.83
-13.19
20.89
56.35
85.38
101.40
100.16
83.44
56.86
26.94
-1.57
-26.83
-49.04
-68.86
-86.04
-99.72
-108.72
-113.04
-113.81
-112.84
-111.75
-111.05
-110.48
-107.71
-100.59
-87.57
-68.53
-44.68
-18.05
9.13
35.17
57.97
77.26
93.17
105.92
115.52
121.72
124.28
123.23
119.01
112.44
104.81
97.07
89.88
83.45
77.62
72.12
66.59
61.02
55.36
49.97
45.04
40.63
36.67
33.04
29.63
26.37
23.33
20.51
18.10
16.09
14.38
12.76
11.11
9.41
7.82
6.97
6.76
7.28
8.39
9.75
10.94
11.61
11.77
11.75
12.16
13.47
15.94
19.36
23.06
26.24
28.29
29.23
29.71
30.82
33.54
38.33
44.85
52.03
58.51
63.51
66.37
67.20
66.65
65.32
63.60
61.96
60.53
58.78
54.49
45.30
28.03
0.86
-34.85
-75.01
-112.60
-140.71
-155.04
-155.25
-144.34
-126.94
-106.92
-85.80
-65.05
-45.06
-26.79
-11.81
-1.71
3.32
4.09
2.25
-0.39
-2.72
-4.45
-6.20
-8.83
-12.90
-18.29
-24.29
-29.73
-33.67
-35.68
-35.84
-34.94
-33.71
-32.64
-31.82
-31.00
-29.63
-27.27
-23.81
-19.41
-14.79
-10.46
-6.80
-4.05
-2.27
-1.21
-0.70
-0.56
-0.65
-1.06
-1.56
-1.68
-1.31
-0.24
1.72
4.58
8.23
13.94
20.76
28.15
36.17
44.31
52.48
60.66
68.53
75.74
81.89
86.43
89.22
90.94
91.01
89.55
86.86
82.94
77.84
71.78
64.91
57.86
51.90
46.41
41.57
37.74
34.33
30.62
25.68
18.32
7.63
0.09
-4.79
-7.48
-7.74
-6.20
-3.37
0.13
3.87
3.45
2.42
2.52
5.61
12.59
21.42
29.31
33.20
30.64
20.26
2.72
-22.69
-56.91
-93.08
-130.10
-169.18
-213.22
-265.24
-326.15
-391.94
-454.80
-502.61
-523.06
-509.45
-461.87
-387.87
-300.73
-216.23
-148.88
-110.20
-105.11
-132.14
-184.62
-250.30
-314.22
-362.80
-387.26
-384.91
-358.40
-311.39
-248.77
-176.44
-99.43
-21.41
54.98
128.78
201.14
275.05
356.25
447.09
544.98
644.23
738.08
819.30
880.95
916.94
922.93
900.54
852.09
780.27
689.06
583.83
469.45
349.35
225.48
83.58
-66.14
-197.43
-285.51
-322.35
-316.63
-286.16
-248.70
-216.84
-195.72
-180.10
-163.48
-142.37
-117.67
-93.71
-77.41
-74.48
-85.63
-107.48
-130.61
-146.58
-150.48
-141.48
-118.06
-85.59
-50.10
-15.54
16.05
46.23
75.44
101.76
121.84
133.53
134.75
126.92
113.70
97.74
81.67
66.35
51.38
35.96
20.12
3.36
-12.80
-26.01
-36.64
-45.73
-55.64
-69.57
-91.85
-119.49
-153.15
-192.98
-225.21
-241.03
-237.88
-220.54
-196.45
-171.28
-147.46
-126.31
-107.36
-89.57
-74.14
-61.88
-53.28
-47.64
-43.64
-39.83
-35.97
-31.83
-27.13
-23.39
-21.37
-21.68
-23.77
-26.37
-28.00
-28.05
-26.02
-21.69
-18.92
-17.17
-16.62
-17.38
-19.21
-21.40
-23.43
-24.75
-24.95
-24.23
-22.29
-19.35
-15.09
-8.73
1.05
15.40
34.95
59.15
85.92
112.02
132.78
143.77
142.46
129.10
106.66
79.15
49.68
19.56
-10.14
-37.07
-59.61
-77.96
-94.30
-111.99
-133.50
-158.15
-181.47
-197.41
-201.59
-193.83
-178.10
-159.66
-142.50
-128.24
-118.10
-109.10
-99.35
-88.72
-78.29
-68.76
-58.17
-43.46
-22.53
5.04
38.61
76.21
116.13
157.62
201.51
247.77
296.55
346.15
392.79
431.69
457.70
466.87
456.86
415.61
340.81
239.79
126.35
15.26
-82.54
-161.66
-220.84
-261.18
-286.73
-298.59
-296.94
-282.96
-259.20
-228.85
-194.98
-159.80
-124.59
-90.53
-57.45
-25.74
2.92
26.01
41.03
46.23
41.14
26.47
3.80
-23.55
-52.35
-80.37
-106.49
-130.31
-151.60
-170.12
-185.64
-197.92
-206.32
-210.76
-212.07
-211.98
-212.69
-216.35
-224.40
-237.30
-254.30
-273.54
-292.80
-310.15
-324.41
-335.11
-342.24
-345.66
-345.08
-339.82
-329.09
-312.38
-289.60
-261.06
-227.28
-189.23
-148.91
-109.55
-75.17
-49.24
-32.91
-24.08
-18.04
-9.56
4.74
24.98
48.39
71.17
90.45
105.50
117.45
128.10
138.64
149.32
159.80
169.84
179.76
190.22
201.83
214.94
229.24
243.97
258.18
270.97
281.79
290.39
296.94
301.77
305.42
308.50
311.65
315.52
320.83
328.52
339.46
353.98
371.29
389.24
404.72
414.81
417.91
414.32
405.93
395.03
383.08
369.97
354.53
335.08
310.39
280.15
244.91
205.86
164.50
122.35
80.77
41.07
4.57
-27.15
-51.99
-67.72
-73.13
-69.02
-58.81
-47.71
-40.37
-39.25
-43.90
-51.53
-58.80
-63.31
-64.14
-61.02
-53.63
-40.24
-19.42
8.60
41.44
75.75
109.40
142.74
177.94
216.56
258.93
300.83
334.71
352.96
351.94
334.26
307.67
281.35
261.75
253.88
257.54
269.14
283.10
293.63
296.11
287.48
266.84
236.21
205.84
188.29
194.18
227.41
282.92
348.68
410.56
457.57
457.28
393.86
269.97
106.92
-65.27
-221.53
-348.89
-444.89
-512.57
-556.91
-579.05
-580.79
-566.16
-541.47
-513.46
-486.66
-462.57
-440.33
-418.90
-395.10
-367.48
-337.24
-307.95
-283.00
-265.90
-257.35
-255.77
-258.78
-262.47
-264.31
-264.02
-263.25
-263.57
-263.96
-259.56
-243.32
-209.44
-155.39
-84.24
-5.25
68.11
121.46
143.93
131.43
87.17
19.71
-61.00
-141.16
-205.89
-241.64
-242.58
-212.87
-163.70
-107.68
-54.39
-9.35
25.65
49.94
64.62
69.52
63.90
47.80
22.61
-9.78
-47.79
-90.19
-136.69
-187.28
-239.57
-288.29
-326.34
-347.51
-349.04
-332.97
-304.71
-270.59
-235.14
-200.34
-166.87
-136.04
-110.84
-94.60
-88.02
-86.58
-81.40
-63.08
-26.65
25.46
84.47
139.25
181.47
208.63
224.11
234.22
244.64
257.96
272.81
284.48
286.20
271.12
235.00
179.10
111.37
44.63
-7.32
-34.58
-34.03
-9.24
31.97
80.88
129.57
170.86
197.59
202.61
180.23
128.47
50.88
-43.30
-140.67
-226.32
-287.25
-315.12
-308.45
-272.80
-219.02
-159.37
-103.49
-55.27
-12.83
28.47
71.88
116.13
155.55
183.00
193.66
187.29
167.67
140.23
109.70
79.59
53.04
33.92
26.33
32.36
49.71
71.50
89.34
97.93
98.11
95.92
98.11
107.21
119.74
128.90
129.30
120.41
106.09
90.98
76.39
59.21
34.48
-0.89
-45.49
-94.02
-140.21
-179.19
-208.18
-225.32
-228.57
-216.20
-188.67
-150.08
-107.31
-67.46
-34.54
-7.92
16.68
44.10
76.83
113.74
150.76
182.78
205.49
216.24
214.20
200.15
176.47
146.70
114.99
85.13
59.62
39.29
23.64
11.30
0.42
-11.14
-25.49
-44.09
-67.04
-92.52
-117.11
-136.94
-149.22
-153.35
-150.74
-143.68
-133.75
-121.08
-104.57
-83.09
-56.46
-25.90
6.02
35.75
59.47
73.98
77.79
72.10
60.72
48.88
41.17
39.70
43.83
51.41
60.47
70.16
80.25
89.59
95.20
92.85
78.76
51.32
11.38
-38.32
-94.16
-151.58
-204.47
-244.89
-264.45
-256.93
-220.91
-160.78
-85.24
-4.50
72.06
136.59
182.70
206.03
205.58
185.10
152.80
119.01
92.38
76.95
71.70
72.76
76.69
82.51
91.57
105.36
123.09
140.64
151.62
149.72
130.86
94.16
41.35
-24.12
-97.49
-172.58
-241.83
-296.98
-330.91
-339.82
-324.79
-291.31
-247.01
-198.90
-151.60
-107.37
-67.59
-34.19
-9.79
3.64
6.16
0.32
-9.95
-21.19
-31.63
-41.13
-49.98
-58.02
-64.07
-66.56
-64.46
-57.98
-48.74
-39.24
-32.13
-29.30
-31.44
-37.82
-46.67
-55.86
-63.69
-69.45
-73.50
-76.94
-81.09
-87.17
-96.10
-108.41
-123.91
-141.31
-158.03
-170.54
-175.33
-170.15
-154.88
-131.52
-103.28
-73.29
-43.62
-15.07
12.42
39.01
64.57
88.69
111.21
132.67
154.25
177.38
202.78
229.79
256.08
278.23
292.83
297.82
293.32
281.62
266.18
250.26
235.89
223.30
211.46
198.68
183.32
163.79
138.36
105.23
63.29
13.46
-40.50
-92.22
-134.42
-161.36
-170.83
-164.52
-146.71
-122.19
-94.61
-66.18
-38.55
-13.81
5.35
16.39
18.12
11.38
-1.32
-16.82
-32.15
-44.81
-52.77
-54.09
-47.38
-32.36
-10.58
14.62
39.04
58.89
71.66
75.95
70.87
55.92
31.64
0.85
-30.85
-56.01
-67.71
-62.33
-40.70
-7.23
32.40
73.49
112.87
147.58
173.32
184.18
174.55
142.00
89.21
23.49
-46.04
-111.75
-169.49
-218.21
-258.21
-289.11
-309.21
-316.47
-310.18
-292.05
-266.09
-237.28
-209.82
-185.96
-165.66
-147.22
-128.20
-106.54
-81.24
-52.67
-22.18
8.59
38.55
67.56
96.43
126.42
158.79
194.52
234.28
278.23
325.16
371.70
412.01
438.77
445.36
428.39
389.41
334.33
271.38
208.32
150.17
98.74
53.52
13.38
-21.99
-51.62
-73.81
-87.01
-90.67
-85.44
-72.65
-53.89
-30.60
-4.40
22.34
45.84
61.58
65.70
56.95
37.97
15.01
-3.97
-12.01
-5.41
14.98
44.13
74.29
96.97
105.38
96.31
70.91
34.10
-7.25
-46.81
-80.51
-106.98
-126.69
-140.53
-148.72
-150.65
-145.57
-133.49
-115.81
-95.30
-75.40
-59.23
-48.43
-42.77
-40.29
-38.36
-34.89
-29.24
-22.24
-15.44
-9.96
-5.65
-1.20
4.91
13.39
23.52
33.30
40.25
42.48
39.24
31.08
19.38
5.74
-8.60
-22.90
-36.97
-50.82
-64.39
-77.40
-89.31
-99.38
-106.73
-110.42
-109.67
-104.14
-94.11
-80.48
-64.47
-47.19
-29.26
-10.80
8.17
27.20
45.19
60.49
71.42
76.87
76.83
72.26
64.65
55.36
45.38
35.36
26.06
18.68
14.70
15.43
21.34
31.68
44.79
58.71
71.99
83.97
94.58
103.82
111.37
116.53
118.71
117.86
114.59
109.77
103.99
97.27
89.30
79.93
69.56
59.10
49.33
40.37
31.46
21.45
9.59
-3.94
-17.88
-30.48
-40.32
-46.95
-51.05
-53.98
-57.10
-61.02
-65.27
-68.53
-69.25
-66.49
-60.40
-52.31
-43.89
-36.46
-30.31
-24.95
-19.71
-14.50
-9.99
-7.09
-6.23
-6.91
-7.85
-7.84
-6.51
-4.69
-3.88
-5.38
-9.35
-14.79
-20.01
-23.54
-24.81
-24.13
-22.44
-20.61
-19.14
-18.12
-17.37
-16.58
-15.30
-12.99
-9.16
-3.72
2.92
9.88
16.28
21.67
25.97
29.18
30.77
29.76
25.19
17.21
7.71
-0.06
-2.82
1.14
11.08
24.27
37.43
48.34
56.47
62.60
67.73
72.26
75.72
77.30
76.48
73.29
68.21
61.81
54.43
46.30
37.68
28.97
20.74
13.45
7.27
1.90
-3.49
-10.11
-18.90
-29.99
-42.31
-53.82
-62.60
-68.24
-72.60
-79.33
-92.03
-111.87
-136.37
-160.08
-176.99
-183.32
-179.02
-167.44
-153.34
-140.67
-131.16
-124.34
-118.44
-111.61
-102.73
-91.51
-78.11
-62.76
-45.47
-26.12
-4.55
19.12
44.31
69.78
93.79
114.44
130.10
139.70
142.68
138.56
126.74
106.58
77.91
41.81
1.04
-40.18
-77.09
-105.76
-124.17
-132.44
-132.13
-124.96
-111.77
-92.44
-66.79
-35.81
-2.39
29.15
54.52
71.21
79.41
81.70
81.71
82.47
85.37
90.19
95.82
101.09
105.14
107.33
107.09
103.89
97.58
88.66
78.05
66.76
55.52
44.87
35.78
29.67
27.87
30.38
35.10
38.12
35.59
26.02
11.34
-4.06
-15.85
-22.02
-23.35
-21.94
-19.16
-14.78
-7.76
2.09
13.29
23.59
31.73
38.66
46.93
58.69
73.72
89.11
100.57
104.38
98.86
84.75
64.75
43.04
24.83
15.38
18.32
33.88
58.14
84.01
104.08
113.63
112.39
103.81
92.61
82.07
72.84
63.56
52.69
39.90
26.13
12.64
-0.22
-13.25
-27.75
-44.21
-61.29
-75.99
-84.90
-86.08
-80.12
-70.10
-60.05
-53.21
-50.93
-52.70
-57.04
-62.38
-67.60
-71.79
-74.08
-73.74
-71.02
-67.73
-67.20
-72.85
-86.07
-104.87
-124.21
-138.24
-143.17
-139.02
-129.18
-118.10
-108.62
-100.62
-91.89
-80.32
-65.76
-50.39
-37.31
-28.34
-22.67
-17.20
-8.33
5.81
23.97
42.14
55.51
60.95
58.71
52.30
46.63
45.69
50.71
59.97
70.03
77.51
80.48
78.91
74.07
67.59
60.76
54.29
48.39
42.98
37.79
32.63
27.62
23.28
20.40
19.71
21.41
25.19
30.75
38.08
47.53
59.02
70.98
79.87
80.67
68.69
41.70
1.38
-47.02
-96.36
-139.93
-173.15
-193.97
-202.08
-197.90
-182.13
-155.88
-121.66
-83.60
-47.12
-17.81
-0.17
3.62
-6.09
-26.48
-53.13
-81.15
-106.14
-124.86
-135.48
-137.32
-130.41
-115.11
-92.14
-62.64
-28.37
8.41
45.28
79.99
110.61
135.44
152.95
161.99
162.52
155.72
143.98
130.31
117.41
107.01
99.66
95.15
93.25
94.40
98.77
105.87
114.11
121.24
125.23
125.14
121.50
116.00
111.25
108.68
108.07
107.99
106.86
104.13
100.64
98.24
98.66
103.29
110.99
118.08
119.55
111.12
91.19
61.44
26.23
-14.51
-57.47
-98.17
-132.27
-157.15
-172.32
-178.57
-177.18
-169.51
-157.34
-141.77
-124.28
-106.20
-88.43
-71.21
-54.05
-36.37
-18.01
0.32
18.19
34.78
49.27
61.54
71.36
78.99
84.86
89.46
92.62
94.58
95.57
95.94
96.14
96.72
98.29
101.24
105.70
110.90
116.32
121.60
126.53
130.90
134.24
135.53
132.79
127.13
118.01
105.05
88.53
69.41
49.11
28.96
9.78
-8.48
-26.49
-45.74
-67.12
-90.46
-114.63
-138.11
-159.58
-178.64
-195.96
-212.99
-232.09
-255.59
-285.42
-322.51
-365.67
-410.58
-449.96
-475.17
-479.10
-459.34
-418.99
-365.52
-307.69
-252.27
-202.38
-157.94
-117.78
-81.48
-50.21
-25.63
-8.45
2.50
9.78
15.90
22.06
27.65
30.82
29.56
23.02
12.07
-0.75
-11.94
-18.02
-16.50
-6.90
8.59
25.17
36.38
35.76
18.69
-16.30
-67.05
-127.99
-191.12
-247.51
-288.94
-309.54
-307.00
-282.90
-241.82
-189.60
-131.73
-72.71
-16.47
32.57
68.99
87.27
83.82
59.06
18.31
-29.30
-73.40
-105.30
-119.90
-116.29
-96.88
-65.58
-26.14
18.69
66.98
116.49
163.66
203.34
229.88
239.14
230.49
207.61
177.40
147.73
124.86
111.79
108.28
111.79
118.97
126.70
132.59
134.98
132.91
126.24
115.73
102.99
90.11
79.22
71.94
68.92
69.61
72.41
75.00
75.00
70.86
62.36
50.90
39.06
29.56
24.36
23.93
27.22
32.33
37.34
41.04
43.14
44.18
44.87
45.75
46.93
48.12
48.90
48.95
48.25
47.02
45.53
43.83
41.69
38.62
34.10
27.98
20.69
13.18
6.58
1.84
-0.78
-1.69
-1.77
-1.97
-2.91
-4.69
-7.01
-9.44
-11.69
-13.74
-15.67
-17.48
-18.96
-19.80
-19.80
-19.20
-18.77
-19.55
-22.34
-27.14
-32.88
-37.73
-39.76
-37.80
-31.93
-23.43
-14.22
-6.18
-0.44
2.82
4.14
4.51
4.78
5.49
6.76
8.48
10.37
12.25
14.01
15.57
16.66
16.87
15.74
12.96
8.69
3.56
-1.45
-5.39
-7.72
-8.51
-8.20
-7.52
-7.09
-7.30
-8.27
-9.88
-11.93
-14.18
-16.43
-18.53
-20.41
-22.00
-23.27
-24.21
-24.92
-25.60
-26.63
-28.47
-31.57
-36.10
-41.76
-47.72
-52.74
-55.52
-55.18
-51.57
-45.31
-37.64
-29.86
-22.95
-17.31
-12.87
-9.33
-6.37
-3.82
-1.56
0.59
2.90
5.69
9.23
13.49
18.23
22.89
26.80
29.35
30.25
29.69
28.37
27.37
27.79
30.41
35.34
42.07
49.52
56.44
61.79
64.93
65.66
64.20
60.97
56.50
51.24
45.64
40.12
35.17
31.28
28.89
28.22
29.07
30.85
32.55
33.11
31.62
27.65
21.39
13.76
6.21
0.32
-2.71
-2.49
0.28
4.02
6.84
7.21
4.59
-0.38
-6.14
-10.87
-13.19
-12.60
-9.57
-5.28
-1.06
2.04
3.46
3.14
1.40
-1.36
-4.61
-7.88
-10.74
-12.85
-13.99
-14.11
-13.19
-11.35
-8.81
-6.00
-3.55
-2.12
-2.25
-4.09
-7.33
-11.28
-15.22
-18.51
-20.82
-22.08
-22.44
-22.29
-22.35
-23.69
-27.43
-34.30
-44.20
-55.98
-67.69
-77.19
-82.80
-83.75
-80.11
-72.53
-61.77
-48.59
-33.83
-18.75
-5.01
5.56
11.57
12.63
9.69
4.64
-0.30
-3.35
-3.78
-1.80
1.81
6.24
10.81
14.83
17.40
17.50
14.57
9.06
2.67
-2.13
-3.19
0.49
8.24
18.04
27.43
34.19
36.72
34.03
25.68
11.81
-6.31
-26.10
-43.78
-55.15
-56.88
-47.74
-29.14
-5.08
18.84
37.07
45.51
42.71
29.96
10.74
-10.54
-29.61
-43.31
-50.13
-50.17
-44.94
-36.87
-28.57
-22.11
-18.40
-17.04
-16.58
-15.20
-11.31
-4.10
6.20
18.45
30.81
41.26
47.99
49.95
47.16
40.79
32.83
25.47
20.52
18.85
20.33
23.93
28.21
31.78
33.77
34.02
33.13
32.17
32.19
33.81
36.92
40.77
44.26
46.37
46.61
45.13
42.68
40.23
38.60
38.17
38.67
39.39
39.49
38.40
36.21
33.68
31.99
32.19
34.62
38.61
42.57
44.56
43.05
37.56
28.99
19.51
11.97
8.87
11.19
17.47
23.94
25.34
16.84
-3.96
-35.52
-72.28
-106.15
-129.25
-136.75
-128.84
-110.74
-90.73
-76.90
-73.96
-81.24
-93.03
-101.03
-97.96
-80.94
-53.01
-22.17
1.83
11.33
3.97
-16.38
-40.97
-59.55
-64.05
-51.39
-24.41
9.32
40.11
59.34
62.07
48.35
23.10
-5.55
-28.57
-38.78
-33.00
-12.94
15.50
44.14
65.11
73.00
65.91
45.54
16.25
-16.16
-45.56
-66.45
-74.98
-69.80
-52.76
-28.73
-4.42
13.70
21.53
18.59
7.79
-6.00
-17.99
-24.96
-25.92
-21.74
-14.28
-5.52
2.99
10.31
16.04
20.16
22.94
24.76
26.03
27.01
27.72
27.91
27.18
25.09
21.45
16.52
11.06
6.29
3.50
3.51
6.25
10.63
14.78
16.88
15.93
12.36
8.07
5.68
7.40
13.76
23.04
31.63
35.31
30.97
17.91
-1.65
-23.16
-41.05
-50.30
-47.72
-32.89
-8.52
19.89
45.35
61.49
64.72
55.78
39.60
23.45
14.08
15.04
25.60
41.33
56.30
65.67
67.40
62.59
54.68
48.02
46.25
50.95
60.95
72.81
81.96
84.16
76.88
59.75
34.27
3.06
-30.83
-64.28
-93.92
-116.16
-127.58
-125.94
-111.35
-86.85
-57.87
-30.54
-9.69
2.69
7.58
7.86
6.86
6.79
8.18
10.19
11.68
11.93
11.07
9.68
8.33
7.19
6.03
4.52
2.65
0.85
-0.21
-0.06
1.27
3.00
3.94
3.01
-0.17
-4.79
-8.96
-10.36
-7.14
1.32
14.06
29.10
44.42
58.92
72.89
87.55
103.85
121.38
137.73
148.88
150.26
138.19
110.86
68.84
15.27
-44.16
-101.81
-149.09
-178.70
-186.88
-175.02
-149.45
-119.11
-92.30
-73.69
-63.40
-58.24
-54.32
-49.38
-43.68
-39.16
-37.62
-39.42
-43.24
-47.06
-49.18
-48.88
-46.11
-40.84
-32.30
-18.96
1.06
28.71
62.95
100.14
134.38
158.70
167.08
156.16
126.48
82.54
31.81
-17.18
-56.60
-80.83
-87.38
-77.02
-53.60
-23.28
6.84
30.23
42.57
42.75
32.62
15.87
-3.50
-22.56
-39.81
-54.89
-67.90
-78.77
-87.16
-92.75
-95.59
-96.17
-95.30
-93.57
-90.97
-86.87
-80.23
-70.18
-56.58
-40.25
-22.89
-6.70
6.33
15.03
19.43
20.71
20.72
21.31
23.85
28.93
36.44
45.88
56.75
68.65
81.36
94.57
107.81
120.56
132.46
143.65
154.94
167.65
183.22
202.64
225.98
252.07
278.70
302.88
321.56
332.14
333.00
323.81
305.73
281.17
253.38
225.79
201.30
181.94
168.81
162.18
161.69
166.31
174.17
182.52
187.95
187.14
177.99
160.03
135.49
107.73
80.27
55.50
33.99
14.58
-4.64
-24.97
-46.44
-66.98
-83.94
-95.25
-100.59
-101.86
-102.64
-107.45
-120.49
-145.10
-180.54
-222.94
-264.29
-293.33
-298.58
-272.65
-216.11
-138.83
-59.34
6.66
46.58
56.85
42.58
13.55
-21.09
-56.33
-91.66
-132.56
-175.45
-218.30
-257.08
-287.84
-308.92
-322.01
-331.05
-340.45
-359.65
-383.60
-412.30
-444.34
-477.01
-506.13
-526.50
-533.27
-523.59
-505.97
-475.54
-437.87
-398.03
-358.93
-320.74
-281.69
-239.53
-142.46
-54.46
31.19
109.72
175.26
222.51
248.51
253.81
242.46
220.57
186.56
154.27
127.06
106.69
93.79
88.08
88.11
91.24
94.11
87.65
76.95
62.48
46.13
30.11
15.89
3.19
-10.29
-28.32
-58.73
-99.37
-148.46
-199.65
-243.43
-270.28
-274.76
-258.15
-228.20
-197.88
-175.02
-164.53
-165.34
-172.07
-178.31
-179.49
-173.86
-161.51
-143.51
-118.63
-85.55
-43.21
8.31
67.62
132.48
201.03
272.07
344.26
414.79
478.59
528.90
559.35
566.39
550.91
517.95
474.71
428.04
382.41
339.76
299.90
261.65
223.49
183.58
139.49
88.02
26.27
-46.76
-128.34
-211.41
-285.78
-341.30
-371.54
-376.45
-362.36
-339.29
-316.95
-301.34
-293.63
-291.43
-291.35
-291.15
-290.36
-289.59
-289.20
-288.60
-286.51
-281.82
-274.39
-265.22
-256.19
-249.04
-244.57
-242.28
-240.57
-237.41
-231.18
-221.23
-208.04
-192.87
-177.19
-162.05
-147.81
-134.30
-121.04
-107.69
-94.26
-81.18
-68.96
-57.96
-48.18
-39.18
-30.31
-20.98
-10.84
0.09
11.44
22.77
33.73
44.24
54.45
64.59
74.76
84.78
94.13
102.10
108.05
111.65
113.05
112.75
111.46
109.80
108.14
106.60
105.20
104.09
103.75
105.00
108.82
116.03
126.95
141.36
158.59
177.73
197.73
217.66
236.57
253.73
269.01
283.55
299.79
320.69
347.75
379.03
408.40
426.90
425.74
399.99
350.62
284.65
212.95
147.19
97.15
69.44
67.08
89.52
132.38
187.19
242.17
284.42
303.34
293.99
258.38
204.18
141.24
77.45
16.10
-43.74
-104.09
-164.35
-219.17
-259.38
-275.73
-263.16
-223.02
-162.48
-91.49
-19.59
45.87
100.34
141.60
169.80
187.67
200.43
214.43
234.75
262.71
295.01
325.15
346.62
356.07
354.69
347.13
339.03
334.59
335.44
341.06
349.70
358.94
365.84
367.10
359.49
340.71
310.60
271.78
229.17
188.57
154.45
128.35
108.53
90.94
71.15
46.33
16.22
-16.89
-49.34
-77.80
-100.69
-118.91
-135.62
-155.26
-182.24
-218.95
-264.27
-312.96
-356.27
-384.65
-391.53
-376.51
-346.70
-315.16
-296.78
-303.13
-338.34
-397.50
-468.43
-535.66
-585.35
-609.06
-605.37
-578.98
-538.01
-491.15
-445.41
-405.45
-373.99
-352.73
-342.44
-342.69
-351.09
-363.18
-373.52
-377.22
-371.59
-356.60
-334.24
-307.40
-278.31
-247.90
-215.93
-181.76
-145.36
-107.81
-71.23
-38.17
-10.63
10.68
26.46
38.45
48.65
58.64
69.23
80.50
92.23
104.39
117.40
132.02
149.00
168.81
191.35
216.11
242.32
269.38
297.07
325.63
355.79
388.62
425.00
464.85
506.52
546.44
579.79
601.82
609.39
601.93
581.58
552.18
517.86
482.05
446.95
413.79
383.16
355.34
330.15
306.97
284.67
261.80
236.87
208.62
176.30
139.98
100.98
61.83
25.80
-4.08
-26.07
-40.27
-48.47
-53.16
-56.42
-59.33
-61.91
-63.57
-63.54
-61.10
-55.68
-47.07
-35.68
-22.83
-10.65
-1.39
3.51
4.24
2.83
2.44
6.28
16.46
33.56
56.61
83.61
112.13
139.68
163.95
183.17
196.25
203.05
204.17
200.73
193.95
184.84
174.05
161.93
148.91
135.56
122.54
110.38
99.27
89.07
79.51
70.37
61.48
52.74
43.96
34.68
24.23
12.02
-2.12
-17.71
-33.75
-49.42
-63.91
-76.90
-88.67
-100.07
-112.10
-125.31
-139.49
-153.64
-167.19
-179.36
-189.73
-198.62
-207.20
-216.90
-228.68
-242.47
-257.31
-273.02
-288.83
-304.02
-318.44
-332.83
-348.87
-368.69
-394.41
-427.09
-467.10
-510.52
-549.40
-574.08
-577.00
-555.72
-514.01
-460.30
-394.90
-324.59
-258.46
-204.62
-167.03
-145.76
-138.83
-143.40
-155.77
-171.35
-188.36
-203.39
-213.29
-216.11
-211.69
-201.15
-185.91
-166.88
-144.16
-118.37
-90.58
-62.04
-34.25
-9.03
11.86
27.31
37.23
42.49
43.67
41.91
38.56
34.74
31.05
27.64
24.51
21.60
18.97
16.35
13.73
11.28
9.30
7.99
7.44
7.62
8.42
9.68
11.01
12.05
12.67
12.91
12.96
13.08
13.46
14.15
14.94
15.44
15.22
14.09
12.23
10.18
8.63
8.14
8.85
10.49
12.51
14.52
16.68
19.89
25.57
35.12
49.38
68.07
89.95
113.28
136.41
158.52
179.65
200.50
221.83
244.05
267.18
291.06
315.48
339.94
362.94
381.47
391.31
388.28
370.59
340.66
305.33
273.77
253.63
247.89
254.01
266.46
280.38
294.11
308.44
323.60
336.22
339.41
326.58
296.31
255.19
215.90
191.23
187.82
203.36
228.88
254.06
272.36
282.34
285.60
283.31
274.15
255.00
223.42
180.21
129.85
79.16
34.37
-1.12
-27.55
-47.97
-66.29
-85.33
-105.68
-125.79
-143.10
-155.58
-162.71
-165.65
-166.64
-167.63
-169.59
-172.25
-174.77
-176.52
-177.65
-179.20
-182.67
-189.73
-201.51
-218.38
-239.62
-263.19
-285.96
-304.27
-314.91
-315.95
-307.33
-290.59
-268.20
-242.74
-216.25
-190.09
-165.21
-142.48
-122.67
-106.43
-93.76
-84.04
-76.14
-68.75
-60.88
-52.08
-42.58
-33.05
-24.44
-17.54
-12.83
-10.32
-9.53
-9.72
-10.10
-10.09
-9.40
-8.15
-6.69
-5.40
-4.63
-4.46
-4.78
-5.36
-5.91
-6.12
-5.69
-4.40
-2.02
1.51
6.02
10.99
15.63
19.10
20.89
21.00
20.05
18.98
18.57
18.94
19.56
19.53
18.27
15.97
13.77
13.30
15.96
22.22
31.54
42.59
54.00
64.86
75.07
85.09
95.54
106.86
119.14
132.16
145.63
159.15
172.16
183.81
192.95
198.43
199.43
195.85
188.46
178.66
168.10
158.16
149.57
142.34
135.89
129.38
122.18
114.12
105.62
97.54
90.84
86.19
83.83
83.52
84.54
85.80
85.86
83.18
76.54
65.59
51.20
35.43
20.76
9.02
0.48
-6.20
-13.28
-22.74
-35.33
-50.47
-66.85
-83.48
-100.29
-117.97
-137.10
-157.23
-176.04
-189.57
-193.29
-183.81
-160.43
-125.96
-86.16
-48.18
-18.35
-0.44
4.98
-0.32
-13.73
-33.25
-58.12
-88.23
-123.12
-161.49
-201.44
-241.11
-278.96
-313.35
-341.78
-360.88
-367.48
-360.39
-341.70
-316.42
-290.80
-269.83
-255.48
-246.71
-240.91
-235.81
-230.34
-224.30
-217.53
-209.34
-198.67
-184.83
-168.10
-149.76
-131.87
-115.79
-101.41
-87.30
-71.73
-53.78
-34.07
-14.69
1.32
10.40
10.80
3.42
-8.49
-20.80
-29.93
-33.80
-32.00
-25.51
-17.57
-11.13
-8.02
-8.72
-12.96
-20.32
-30.42
-42.97
-57.90
-77.19
-101.84
-130.72
-160.11
-184.74
-199.44
-200.82
-188.44
-153.41
-97.20
-30.37
31.60
76.34
99.49
103.63
94.21
76.46
54.29
27.87
-1.19
-29.64
-53.47
-69.58
-76.93
-76.56
-70.56
-60.86
-49.88
-39.25
-29.16
-18.80
-7.44
4.78
16.94
27.97
37.28
44.02
48.37
51.43
54.66
59.20
65.48
73.29
82.34
92.62
103.87
116.02
128.98
142.42
155.63
167.71
178.05
186.68
194.39
202.07
210.36
219.27
228.06
235.52
240.59
243.04
243.78
244.64
247.87
255.44
268.58
287.45
310.82
336.01
359.01
375.18
380.53
373.29
355.03
330.47
305.86
286.31
273.57
265.49
257.47
245.25
227.35
205.95
185.64
170.85
163.44
161.61
160.70
155.26
141.31
117.55
85.12
46.60
4.76
-37.69
-77.76
-111.70
-135.14
-144.29
-137.70
-117.65
-90.12
-63.14
-44.11
-37.34
-42.89
-57.40
-75.93
-94.13
-109.56
-121.80
-131.77
-140.78
-149.89
-159.75
-170.72
-183.01
-196.52
-210.53
-223.55
-233.47
-238.32
-236.95
-229.54
-217.40
-202.32
-185.66
-168.10
-149.78
-130.80
-111.85
-94.53
-81.19
-74.42
-75.98
-85.89
-101.86
-119.66
-134.20
-141.31
-139.09
-128.36
-112.10
-93.95
-76.90
-62.57
-51.38
-43.20
-37.97
-35.73
-36.20
-38.35
-40.23
-39.55
-34.60
-25.10
-12.63
-0.29
8.46
11.12
7.09
-2.05
-13.20
-22.98
-28.90
-30.11
-27.37
-22.46
-17.40
-13.72
-11.99
-11.95
-12.60
-12.66
-11.16
-7.62
-2.24
4.25
10.86
16.75
21.45
25.11
28.46
32.46
38.06
45.59
54.72
64.44
73.54
81.07
86.66
90.53
93.17
94.97
96.02
96.21
95.42
93.72
91.39
88.79
86.10
83.20
79.62
74.49
66.88
56.29
42.84
27.69
12.85
0.54
-7.41
-10.33
-8.92
-4.91
-0.45
2.67
3.54
2.24
-0.46
-3.54
-6.21
-8.18
-9.67
-11.17
-13.18
-15.97
-19.38
-22.98
-26.28
-28.86
-30.55
-31.26
-30.97
-29.56
-26.88
-22.90
-17.83
-12.24
-6.92
-2.71
-0.12
0.74
0.34
-0.58
-1.22
-1.10
-0.15
1.43
3.27
5.17
7.10
9.19
11.62
14.54
17.98
21.84
26.00
30.20
34.07
37.04
38.51
37.99
35.34
30.89
25.27
19.22
13.23
7.43
1.59
-4.57
-11.12
-17.63
-23.27
-27.03
-28.11
-26.29
-22.05
-16.41
-10.67
-5.96
-2.97
-1.84
-2.17
-3.29
-4.50
-5.31
-5.49
-5.11
-4.31
-3.21
-1.88
-0.32
1.43
3.23
4.92
6.45
7.97
9.80
12.29
15.59
19.47
23.34
26.49
28.32
28.64
27.65
25.83
23.79
22.00
20.71
19.81
18.92
17.52
15.23
11.97
8.04
3.98
0.34
-2.60
-4.93
-7.06
-9.49
-12.55
-16.32
-20.66
-25.18
-29.35
-32.47
-33.85
-32.96
-29.66
-24.40
-18.09
-11.87
-6.65
-2.90
-0.50
1.10
2.54
4.35
6.70
9.46
12.27
14.70
16.40
17.20
17.19
16.66
15.92
15.21
14.58
13.98
13.31
12.63
12.08
11.83
11.92
12.21
12.36
12.00
10.99
9.43
7.67
6.12
5.12
4.80
5.05
5.46
5.41
4.18
1.09
-4.16
-11.31
-19.44
-27.20
-33.17
-36.37
-36.67
-34.83
-32.25
-30.44
-30.50
-32.71
-36.52
-40.78
-44.18
-45.70
-44.83
-41.64
-36.57
-30.29
-23.43
-16.52
-9.99
-4.09
1.06
5.54
9.62
13.67
18.04
22.91
28.22
33.62
38.55
42.32
44.26
43.84
40.94
35.86
29.42
22.75
17.02
13.09
11.21
11.01
11.61
12.01
11.42
9.59
6.78
3.70
1.16
-0.16
0.03
1.61
4.01
6.35
7.60
6.76
3.22
-2.99
-11.04
-19.49
-26.77
-31.68
-33.87
-33.87
-32.87
-32.11
-32.38
-33.73
-35.52
-36.62
-35.94
-32.83
-27.47
-20.94
-14.94
-11.15
-10.42
-12.15
-14.33
-14.16
-9.41
0.45
13.59
26.21
33.88
33.29
23.79
7.95
-8.95
-20.63
-21.93
-10.70
11.20
38.18
62.73
77.87
79.67
68.81
50.41
32.29
22.08
24.32
38.78
60.49
81.73
94.91
95.30
82.61
60.78
36.40
16.40
5.88
6.87
18.10
35.74
54.70
70.03
78.03
76.93
67.02
50.30
29.86
9.16
-8.72
-21.67
-28.86
-30.87
-29.30
-26.29
-23.75
-22.84
-23.64
-25.42
-27.07
-27.67
-26.86
-24.89
-22.41
-20.27
-19.24
-19.87
-22.37
-26.59
-31.98
-37.84
-43.45
-48.22
-51.80
-54.04
-54.84
-54.05
-51.45
-46.85
-40.28
-32.15
-23.29
-14.83
-7.95
-3.62
-2.28
-3.65
-6.88
-10.80
-14.24
-16.41
-16.99
-16.04
-13.77
-10.36
-5.84
-0.27
6.22
13.25
20.21
26.31
30.70
32.49
31.04
26.11
18.22
8.68
-0.67
-7.96
-11.81
-11.69
-7.96
-1.56
6.32
14.53
22.11
28.17
31.80
32.19
28.61
20.60
8.24
-7.76
-25.99
-44.63
-61.87
-76.50
-88.31
-98.11
-107.32
-117.28
-128.66
-141.27
-154.02
-165.34
-173.54
-177.15
-175.20
-167.31
-153.64
-134.83
-111.81
-85.77
-58.12
-30.65
-5.52
14.97
28.83
34.94
33.42
25.60
13.70
0.21
-12.63
-23.19
-30.50
-34.16
-34.28
-31.47
-26.69
-20.98
-15.21
-9.67
-3.94
2.80
11.43
22.37
35.37
49.61
63.98
77.48
89.45
99.60
107.86
114.14
118.32
120.05
119.01
114.90
107.71
97.91
86.48
74.81
64.36
56.21
50.76
47.62
45.84
44.35
42.36
39.52
35.92
31.81
27.43
22.82
17.97
12.97
8.09
3.81
0.62
-1.24
-2.02
-2.43
-3.41
-5.72
-9.48
-14.15
-18.66
-21.73
-22.40
-20.13
-14.74
-6.16
5.59
20.38
37.89
57.34
77.38
96.33
112.49
124.40
131.19
132.37
127.86
117.77
102.73
84.24
64.98
48.59
38.57
36.69
41.61
49.01
52.87
47.81
31.37
4.78
-27.77
-61.32
-92.10
-118.63
-141.36
-161.88
-181.93
-202.60
-224.21
-246.29
-267.35
-284.90
-296.04
-297.57
-286.84
-262.79
-226.42
-181.16
-132.29
-85.70
-46.27
-16.51
4.47
20.45
36.69
57.97
86.77
122.56
162.25
201.34
235.07
259.71
273.24
275.77
269.32
256.95
241.55
224.71
206.20
184.61
158.57
128.03
94.84
62.44
34.03
11.14
-7.32
-24.75
-45.28
-71.65
-103.49
-136.68
-164.08
-177.82
-171.92
-144.48
-98.41
-40.38
21.54
80.22
130.84
171.01
199.78
216.84
222.28
216.87
202.18
180.35
153.32
121.91
85.92
44.68
-1.84
-52.07
-102.87
-150.44
-191.64
-225.15
-251.89
-274.83
-298.15
-325.86
-359.87
-398.56
-436.38
-465.16
-476.94
-467.14
-436.33
-389.92
-335.66
-280.33
-227.63
-178.16
-131.17
-86.84
-47.37
-16.30
3.42
11.26
9.58
2.83
-4.15
-7.34
-4.12
6.30
22.46
40.08
52.43
52.53
36.53
6.83
-27.46
-53.57
-60.41
-43.56
-7.06
39.09
83.88
120.09
146.10
164.50
178.90
191.57
203.22
214.32
226.20
240.76
258.98
279.42
298.02
309.82
311.30
302.31
286.18
267.93
251.95
240.45
233.31
228.93
225.46
221.51
216.31
209.59
201.30
191.72
181.77
173.02
167.33
166.20
169.84
176.65
183.64
187.08
184.30
175.04
161.51
147.08
134.01
121.81
107.22
86.17
55.59
15.44
-31.19
-79.68
-126.04
-168.43
-207.02
-243.59
-276.60
-302.30
-316.34
-316.27
-302.79
-279.26
-250.24
-219.91
-191.13
-164.90
-141.48
-120.39
-101.23
-83.68
-68.21
-56.12
-48.94
-48.00
-54.19
-68.92
-93.12
-126.44
-166.24
-207.39
-243.24
-267.61
-277.12
-269.03
-246.10
-214.25
-179.92
-147.45
-118.35
-91.77
-66.02
-39.76
-12.25
16.54
47.14
80.72
118.24
159.03
200.06
236.18
261.50
271.81
266.01
247.07
220.99
194.24
171.22
152.92
137.59
122.65
106.69
90.07
74.65
62.25
53.40
47.05
41.42
35.29
28.55
22.14
16.92
13.02
9.77
6.21
1.86
-2.92
-7.24
-10.27
-11.79
-12.34
-12.77
-13.71
-15.28
-17.05
-18.41
-19.00
-18.93
-18.54
-18.19
-17.93
-17.56
-16.75
-15.29
-13.29
-11.17
-9.43
-8.19
-7.13
-5.53
-2.79
1.22
6.04
10.90
14.88
17.43
18.55
18.75
18.77
19.26
20.50
22.51
25.16
27.74
29.24
28.74
26.03
21.71
17.15
14.03
13.81
17.40
24.08
31.81
38.25
41.65
41.50
38.25
32.80
26.00
18.36
8.82
-5.04
-25.72
-54.71
-91.84
-135.34
-182.39
-229.56
-265.78
-279.80
-264.23
-219.14
-152.34
-75.12
2.56
74.23
136.55
186.95
225.95
252.90
266.88
267.97
257.82
239.08
214.44
185.78
155.09
123.57
91.53
59.50
28.82
1.59
-19.88
-33.85
-39.48
-36.86
-27.39
-13.59
1.89
16.91
30.13
40.92
49.16
55.12
59.30
61.89
62.58
60.75
55.67
46.85
34.19
18.19
-0.07
-19.08
-37.48
-54.72
-71.15
-87.96
-106.73
-128.76
-154.51
-183.31
-213.79
-244.36
-274.00
-302.62
-330.95
-360.26
-392.13
-428.26
-470.05
-517.57
-568.43
-616.95
-654.92
-673.82
-667.92
-636.79
-585.58
-523.05
-458.24
-397.54
-343.46
-295.62
-252.59
-213.57
-178.69
-148.34
-122.22
-99.10
-77.27
-55.43
-33.44
-12.29
6.41
21.45
32.75
41.48
49.71
59.62
72.79
89.63
109.38
130.45
150.97
169.30
184.23
195.28
202.10
204.11
200.40
189.98
172.20
147.10
115.63
79.49
41.29
3.80
-30.47
-59.64
-82.36
-97.91
-106.11
-107.33
-102.39
-91.70
-75.98
-56.43
-34.49
-11.56
11.34
33.54
54.57
73.99
93.65
115.00
138.63
164.11
190.52
217.11
243.39
268.85
292.82
319.05
350.30
387.22
427.99
469.84
510.84
550.62
589.90
629.28
675.45
731.30
793.89
854.87
904.77
937.61
952.96
954.86
949.05
949.84
966.32
999.26
1041.26
1082.22
1114.92
1137.87
1154.25
1108.98
972.21
743.72
455.55
153.28
-126.15
-363.59
-553.97
-700.08
-808.27
-876.52
-904.96
-896.86
-864.12
-820.44
-778.48
-747.96
-734.74
-740.08
-751.89
-755.47
-739.19
-699.84
-642.20
-575.95
-510.98
-454.16
-408.25
-368.18
-329.01
-288.88
-249.98
-215.96
-189.28
-169.89
-155.84
-144.43
-131.52
-115.09
-95.63
-75.76
-58.36
-45.19
-36.22
-30.16
-25.23
-19.34
-11.52
-2.11
7.51
15.89
22.29
27.00
31.00
35.65
41.88
49.91
59.17
68.32
75.78
79.95
79.70
74.62
65.26
52.47
37.38
20.96
4.03
-13.20
-30.79
-48.70
-66.43
-82.60
-95.87
-105.11
-109.75
-110.13
-107.93
-105.11
-103.62
-105.91
-111.19
-117.51
-121.61
-119.33
-107.44
-85.31
-54.93
-20.37
13.78
43.94
67.54
83.52
92.30
95.74
96.65
97.87
100.37
102.17
98.74
84.99
58.68
22.44
-16.79
-50.91
-74.37
-86.64
-91.42
-93.37
-95.71
-98.59
-100.28
-99.39
-96.46
-93.52
-93.24
-97.33
-105.77
-117.34
-130.21
-142.68
-153.62
-162.37
-168.19
-170.29
-167.86
-160.31
-147.61
-130.26
-109.22
-85.71
-62.31
-41.59
-25.61
-15.43
-10.87
-10.56
-12.27
-13.76
-13.63
-11.77
-8.95
-6.41
-4.96
-4.18
-2.45
2.64
13.36
30.91
54.95
83.86
115.03
145.56
172.88
195.37
212.65
225.63
236.12
246.07
256.87
268.54
279.73
288.16
291.60
288.78
279.93
266.49
250.48
233.74
217.36
201.87
187.54
174.78
164.18
156.11
150.30
145.85
141.50
136.29
129.99
123.24
117.17
112.88
111.02
111.75
114.87
120.12
127.19
135.79
145.52
155.89
166.51
177.09
187.44
197.35
206.44
214.25
220.33
224.32
225.79
224.05
218.04
206.55
188.76
164.68
135.35
102.56
68.37
34.56
2.56
-26.44
-51.36
-71.45
-86.68
-98.01
-107.23
-116.33
-126.66
-138.30
-150.15
-160.72
-168.90
-174.58
-178.84
-183.34
-189.84
-199.94
-214.92
-235.16
-259.03
-281.99
-296.90
-296.38
-276.26
-238.49
-191.54
-147.47
-117.10
-105.62
-111.31
-127.45
-146.67
-164.43
-180.32
-196.71
-216.27
-240.10
-267.57
-297.48
-329.18
-362.62
-397.07
-429.91
-455.78
-467.44
-458.41
-425.21
-369.17
-295.77
-212.25
-124.76
-36.81
50.18
134.78
213.62
281.18
331.54
361.11
370.40
363.92
348.16
329.02
310.23
293.01
277.25
262.89
250.60
241.52
236.30
234.32
233.35
230.05
220.86
203.15
176.13
141.43
102.47
63.16
26.39
-6.94
-38.08
-69.54
-103.77
-142.13
-184.89
-231.90
-283.04
-337.74
-393.72
-446.44
-490.15
-520.72
-538.30
-547.77
-556.23
-568.55
-583.95
-595.96
-595.99
-578.35
-543.56
-497.94
-449.94
-405.85
-367.47
-332.92
-299.47
-266.14
-234.38
-206.68
-184.86
-168.63
-155.79
-143.28
-128.76
-111.53
-92.75
-74.59
-59.14
-47.50
-39.25
-32.87
-26.51
-18.87
-9.75
-0.02
8.92
15.80
20.08
22.07
22.73
23.16
24.11
25.67
27.44
28.74
29.05
28.20
26.48
24.52
22.96
22.28
22.64
23.95
25.94
28.35
30.96
33.60
36.19
38.64
40.81
42.56
43.72
44.26
44.17
43.56
42.56
41.40
40.24
39.23
38.49
38.05
37.90
38.00
38.32
38.81
39.49
40.38
41.48
42.79
44.27
45.85
47.47
49.16
51.01
53.21
56.02
59.65
64.20
69.64
75.83
82.57
89.71
97.27
105.38
114.22
123.88
134.23
144.89
155.33
165.01
173.61
181.19
188.17
195.14
202.64
210.92
219.86
229.07
238.13
246.83
255.28
263.94
273.46
284.64
298.28
314.96
334.69
356.47
378.15
396.74
409.20
413.48
409.24
397.90
381.98
364.08
345.94
328.20
310.62
292.75
274.45
256.02
237.99
220.65
203.91
187.32
170.36
152.79
134.77
116.84
99.61
83.42
68.15
53.40
38.59
23.46
8.10
-7.00
-21.15
-33.81
-44.75
-54.11
-62.26
-69.63
-76.62
-83.43
-90.05
-96.22
-101.49
-105.26
-106.94
-106.12
-102.73
-97.11
-90.01
-82.34
-74.98
-68.54
-63.32
-59.24
-56.01
-53.22
-50.52
-47.66
-44.52
-41.08
-37.40
-33.61
-29.90
-26.47
-23.48
-20.96
-18.84
-16.91
-14.92
-12.73
-10.29
-7.69
-5.04
-2.40
0.27
3.06
5.96
8.81
11.26
12.85
13.25
12.39
10.50
8.01
5.40
3.01
0.99
-0.64
-1.97
-3.13
-4.25
-5.48
-6.87
-8.37
-9.84
-11.10
-11.96
-12.36
-12.38
-12.24
-12.29
-12.74
-13.64
-14.69
-15.32
-14.89
-12.90
-9.24
-4.30
1.26
6.73
11.69
16.14
20.35
24.64
29.05
33.32
36.92
39.32
40.16
39.37
37.19
34.04
30.35
26.46
22.64
19.07
15.98
13.60
12.13
11.64
12.01
12.87
13.73
14.12
13.81
12.85
11.77
11.16
11.39
12.51
14.27
16.32
18.36
20.22
21.88
23.64
25.79
28.45
31.51
34.70
37.77
40.58
43.14
45.70
49.07
53.89
60.24
67.48
74.56
80.51
84.72
87.12
88.10
89.61
93.28
99.72
108.46
118.56
129.23
140.07
150.78
160.95
172.62
186.98
203.43
219.57
232.70
241.22
245.02
244.95
242.28
242.37
249.27
263.58
282.15
300.21
313.71
320.17
318.55
309.00
298.06
291.68
292.26
297.86
304.59
309.43
311.31
310.55
273.62
184.37
49.68
-102.48
-241.02
-347.75
-419.31
-460.67
-479.22
-481.21
-468.40
-441.17
-402.19
-357.53
-314.09
-276.74
-247.38
-225.99
-209.70
-192.16
-168.62
-138.21
-104.09
-70.93
-42.43
-20.31
-4.87
4.23
9.79
13.80
15.96
13.79
4.36
-13.97
-40.80
-74.03
-110.59
-146.14
-177.01
-201.41
-219.56
-232.74
-242.24
-248.60
-251.60
-250.55
-244.43
-232.91
-217.04
-199.14
-182.13
-168.60
-160.11
-157.01
-159.00
-165.72
-177.34
-194.93
-220.22
-255.19
-301.61
-360.79
-433.02
-516.74
-607.38
-696.84
-774.42
-829.25
-853.77
-846.20
-811.05
-757.11
-694.01
-629.11
-566.23
-506.33
-449.22
-395.16
-345.07
-299.85
-259.44
-222.59
-187.48
-152.76
-118.28
-85.06
-54.94
-29.48
-9.25
6.44
19.21
30.90
42.84
55.37
67.87
79.14
88.11
94.31
98.05
100.26
102.48
105.84
110.54
115.86
120.63
123.86
125.17
124.87
123.73
123.12
124.06
126.80
130.69
134.66
137.72
139.40
139.88
139.95
141.67
146.69
155.33
166.45
178.06
188.40
196.54
202.70
208.04
217.06
233.28
257.22
286.06
315.42
341.59
362.68
378.83
391.72
409.75
439.63
483.12
536.23
592.09
643.97
686.56
715.90
729.69
737.18
747.40
764.41
785.68
805.47
818.80
822.25
813.32
790.46
766.28
752.99
757.15
777.87
810.85
852.34
899.25
947.62
916.02
759.52
487.59
161.45
-149.67
-405.24
-596.78
-733.69
-830.14
-898.09
-933.23
-931.91
-898.07
-844.93
-788.79
-741.74
-709.14
-691.00
-684.20
-675.15
-653.38
-616.51
-570.68
-525.47
-487.71
-460.27
-442.53
-432.02
-419.99
-399.98
-370.81
-336.51
-303.32
-275.92
-256.21
-243.83
-237.20
-231.59
-223.42
-211.84
-198.19
-185.10
-174.40
-166.51
-160.53
-154.74
-146.03
-131.38
-112.92
-92.31
-71.44
-51.67
-33.57
-16.86
-0.78
15.45
32.32
49.73
67.69
85.77
103.53
120.83
137.89
155.22
173.45
193.24
215.22
240.15
267.81
296.50
322.93
342.82
352.19
348.89
333.40
308.62
278.96
248.36
219.24
192.39
167.62
144.67
123.71
105.13
89.04
75.02
62.03
49.01
35.49
21.85
9.15
-1.45
-9.29
-14.50
-17.88
-20.46
-23.03
-25.80
-28.39
-30.17
-30.59
-29.54
-27.38
-24.78
-22.50
-21.09
-20.70
-21.19
-22.18
-23.27
-24.18
-24.77
-25.10
-25.33
-25.71
-26.59
-28.34
-31.36
-35.87
-41.91
-49.19
-57.19
-65.32
-73.06
-80.17
-86.63
-92.62
-98.20
-103.20
-107.02
-108.82
-107.77
-103.44
-96.02
-86.30
-75.43
-64.54
-54.39
-45.15
-36.29
-26.80
-15.36
-0.78
17.65
39.92
65.22
92.00
118.23
141.80
160.84
174.03
180.74
181.08
175.82
166.15
153.36
138.59
122.60
105.78
88.29
70.22
51.64
32.53
12.75
-8.02
-30.05
-53.28
-76.99
-99.74
-119.61
-134.70
-143.71
-146.29
-143.04
-135.18
-124.12
-111.12
-97.17
-83.05
-69.43
-57.00
-46.29
-37.63
-30.98
-26.03
-22.26
-19.19
-16.51
-14.19
-12.45
-11.63
-11.97
-13.51
-15.96
-18.79
-21.39
-23.36
-24.68
-25.84
-27.63
-30.82
-35.80
-42.41
-49.86
-56.96
-62.56
-66.04
-67.62
-68.21
-69.02
-71.07
-74.68
-79.25
-83.28
-84.73
-81.47
-71.74
-54.59
-30.08
0.19
33.36
66.10
95.62
120.39
140.22
155.71
167.42
175.74
180.25
180.21
175.62
167.87
159.29
152.18
147.86
146.31
147.12
149.17
151.13
152.31
153.01
154.17
156.67
160.95
166.79
173.87
180.24
181.88
174.03
152.78
116.42
66.07
5.77
-62.72
-130.93
-187.72
-225.37
-242.94
-245.06
-237.87
-225.83
-211.35
-195.98
-182.42
-172.02
-166.06
-163.93
-162.38
-156.93
-144.17
-123.79
-98.84
-73.61
-51.76
-36.62
-28.75
-25.78
-24.04
-20.58
-14.47
-6.76
0.86
6.62
9.05
7.91
4.12
-0.78
-5.37
-8.86
-11.15
-12.45
-13.14
-13.75
-14.30
-14.26
-12.87
-9.48
-3.98
3.10
10.78
17.69
22.35
23.62
21.04
14.80
5.62
-5.42
-17.05
-27.96
-36.89
-42.96
-45.75
-45.49
-43.05
-39.76
-37.00
-35.75
-36.25
-37.95
-39.67
-40.11
-38.30
-33.97
-27.58
-20.15
-12.73
-6.11
-0.66
3.53
6.33
7.50
6.76
4.14
0.24
-3.72
-6.19
-5.87
-2.14
4.73
13.88
24.08
34.11
42.88
49.39
52.79
52.60
49.01
43.05
36.42
30.97
27.96
27.68
29.47
32.20
35.01
37.79
41.09
45.63
51.66
58.45
64.55
68.27
68.41
64.83
58.43
50.75
43.38
37.49
33.56
31.51
30.93
31.42
32.67
34.53
36.89
39.57
42.24
44.52
46.12
46.88
46.84
45.95
43.98
40.34
34.35
25.68
14.88
3.44
-6.42
-12.50
-13.45
-9.26
-1.34
7.93
15.80
19.83
18.42
11.08
-1.39
-17.18
-33.88
-49.21
-61.57
-70.36
-75.96
-79.19
-80.91
-81.64
-81.51
-80.41
-78.23
-75.00
-70.85
-65.96
-60.48
-54.52
-48.24
-41.94
-36.03
-30.93
-27.01
-24.42
-23.06
-22.62
-22.76
-23.16
-23.66
-24.12
-24.35
-24.06
-22.95
-20.91
-18.23
-15.49
-13.41
-12.44
-12.54
-13.06
-13.02
-11.50
-8.05
-2.88
3.26
9.38
14.72
18.94
22.17
24.83
27.34
30.01
32.84
35.59
37.84
39.14
39.12
37.71
35.16
32.01
28.90
26.32
24.47
23.18
22.09
20.87
19.32
17.50
15.51
13.42
11.15
8.57
5.58
2.21
-1.46
-5.48
-10.20
-16.34
-24.68
-35.55
-48.38
-61.52
-72.63
-79.40
-80.44
-75.76
-66.79
-55.89
-45.54
-37.65
-33.11
-31.75
-32.58
-34.25
-35.50
-35.59
-34.56
-33.13
-32.51
-33.90
-38.16
-45.57
-55.78
-68.01
-81.33
-94.84
-107.82
-119.68
-129.94
-138.00
-143.05
-143.79
-138.28
-124.12
-99.20
-62.76
-16.37
35.73
87.46
132.55
166.35
187.07
195.65
194.78
187.40
175.76
161.23
144.77
127.29
109.80
93.03
77.15
61.78
46.40
30.91
15.95
2.74
-7.44
-13.92
-17.06
-18.15
-19.02
-21.30
-25.73
-31.89
-38.36
-43.17
-44.57
-41.49
-33.82
-22.29
-8.20
6.92
21.51
34.15
43.65
49.29
50.84
48.66
43.57
36.52
28.54
20.60
13.61
8.51
6.13
7.11
11.59
19.09
28.56
38.54
47.50
54.14
57.56
57.33
53.53
46.79
38.16
29.04
20.87
14.93
11.97
12.09
14.79
19.14
24.24
29.40
34.38
39.33
44.53
50.01
55.30
59.36
61.02
59.58
55.18
48.98
42.91
39.11
39.23
43.74
51.79
61.58
71.01
78.25
82.08
82.24
79.44
74.96
70.03
65.31
60.79
56.18
51.01
44.91
37.82
30.14
22.06
12.80
0.35
-18.01
-44.47
-80.05
-124.43
-176.07
-230.34
-279.01
-312.21
-322.05
-305.63
-265.58
-209.27
-147.38
-91.62
-51.62
-32.24
-31.97
-44.68
-62.73
-78.44
-86.05
-82.70
-68.32
-44.88
-15.77
14.69
41.94
60.74
67.82
62.68
47.63
26.97
5.88
-10.97
-20.47
-21.65
-15.44
-3.86
10.31
23.93
34.14
39.05
38.10
32.04
22.64
12.24
3.52
-1.22
-0.59
5.59
16.31
29.53
42.55
52.52
57.09
55.05
46.60
33.20
17.29
1.77
-10.62
-17.90
-19.16
-14.75
-5.98
5.03
15.79
23.86
27.37
25.40
18.24
7.38
-4.86
-15.85
-23.44
-26.48
-24.93
-19.75
-12.32
-4.15
3.42
9.15
11.95
10.91
5.63
-3.47
-15.05
-27.04
-37.19
-43.72
-45.75
-43.41
-37.44
-28.92
-18.79
-7.85
3.18
13.54
22.48
29.36
33.80
35.80
35.71
34.16
31.89
29.67
28.11
27.59
28.24
29.92
32.40
35.56
39.41
44.12
49.67
55.68
61.37
65.68
67.71
67.02
63.91
59.31
54.64
51.38
50.71
53.09
58.19
65.00
72.10
78.19
82.32
84.07
83.29
79.99
74.08
65.47
54.26
40.99
26.63
12.46
-0.23
-10.46
-17.74
-22.16
-24.43
-25.61
-26.80
-28.68
-31.26
-33.85
-35.44
-35.32
-33.48
-30.78
-28.46
-27.50
-28.09
-29.48
-30.48
-30.00
-27.73
-24.27
-20.92
-19.13
-20.10
-24.21
-30.91
-38.73
-45.68
-50.01
-50.91
-49.03
-46.45
-45.96
-49.85
-58.78
-71.21
-83.65
-91.76
-91.88
-82.49
-64.92
-43.18
-22.80
-9.00
-4.90
-10.45
-22.37
-35.39
-44.11
-44.98
-37.45
-24.00
-9.08
2.56
7.57
4.96
-3.73
-15.17
-25.46
-31.33
-31.12
-25.08
-15.14
-4.25
4.52
8.75
7.29
0.51
-9.84
-21.08
-30.31
-35.23
-34.77
-29.37
-20.85
-11.77
-4.64
-1.11
-1.57
-5.18
-10.38
-15.57
-19.72
-22.60
-24.70
-26.89
-30.00
-34.48
-40.17
-46.26
-51.60
-54.96
-55.56
-53.31
-48.93
-43.53
-38.21
-33.59
-29.68
-26.18
-22.90
-20.08
-18.38
-18.45
-20.34
-23.21
-25.61
-26.08
-23.88
-19.28
-13.12
-6.30
0.76
8.11
15.69
22.70
27.59
28.63
24.95
17.43
8.63
2.04
0.80
6.51
18.83
35.76
54.33
71.52
84.98
93.36
96.46
95.02
90.31
83.69
76.26
68.53
60.63
52.55
44.44
36.72
30.04
24.90
21.51
19.74
19.16
19.36
20.11
21.33
23.02
25.09
27.21
28.89
29.70
29.45
28.27
26.58
24.94
23.81
23.49
24.05
25.34
27.04
28.73
30.05
30.78
30.93
30.64
30.15
29.69
29.40
29.40
29.85
30.87
32.37
33.79
34.13
32.22
27.31
19.45
9.66
-0.53
-9.67
-16.98
-22.57
-27.07
-31.10
-34.87
-38.08
-40.27
-41.18
-40.91
-39.81
-38.21
-36.15
-33.40
-29.67
-24.88
-19.28
-13.46
-8.20
-4.01
-1.09
0.75
1.93
2.89
3.98
5.43
7.30
9.57
12.09
14.58
16.74
18.28
19.07
19.27
19.16
18.92
18.54
17.68
15.85
12.78
8.59
3.85
-0.57
-3.86
-5.59
-5.83
-5.04
-3.83
-2.68
-1.72
-0.77
0.53
2.54
5.40
8.95
12.79
16.39
19.35
21.50
22.93
23.87
24.54
24.92
24.78
23.75
21.56
18.13
13.61
8.31
2.55
-3.40
-9.36
-15.20
-20.81
-26.12
-31.07
-35.70
-40.03
-44.01
-47.48
-50.10
-51.49
-51.37
-49.69
-46.66
-42.69
-38.30
-33.90
-29.73
-25.82
-22.11
-18.55
-15.17
-12.01
-9.11
-6.39
-3.68
-0.75
2.56
6.22
10.02
13.64
16.77
19.18
20.85
21.87
22.39
22.56
22.49
22.30
22.12
22.15
22.69
24.03
26.38
29.79
34.13
39.12
44.34
49.39
53.84
57.35
59.75
61.18
61.88
62.01
61.34
59.21
54.87
47.67
37.54
24.89
10.55
-4.60
-19.74
-34.25
-47.54
-58.99
-68.04
-74.32
-77.87
-79.02
-78.28
-76.08
-72.64
-68.01
-62.30
-55.83
-48.99
-42.24
-35.97
-30.35
-25.29
-20.68
-16.41
-12.53
-9.23
-6.67
-4.92
-3.85
-3.16
-2.45
-1.35
0.39
2.84
5.89
9.24
12.47
15.21
17.27
18.64
19.41
19.63
19.26
18.22
16.53
14.38
12.08
10.00
8.38
7.22
6.35
5.62
4.96
4.56
4.68
5.51
7.03
8.97
11.00
12.78
14.23
15.38
16.39
17.34
18.21
18.89
19.24
19.23
18.84
18.15
17.21
16.08
14.76
13.31
11.71
9.94
8.00
5.85
3.52
1.03
-1.53
-4.09
-6.60
-8.96
-11.06
-12.74
-13.91
-14.51
-14.58
-14.20
-13.47
-12.48
-11.28
-9.97
-8.64
-7.39
-6.28
-5.35
-4.61
-4.09
-3.92
-4.19
-4.93
-5.99
-7.11
-8.04
-8.64
-8.94
-9.08
-9.19
-9.29
-9.30
-9.18
-8.97
-8.87
-9.10
-9.79
-10.87
-12.11
-13.22
-13.98
-14.30
-14.24
-13.94
-13.53
-13.11
-12.67
-12.06
-11.05
-9.39
-6.98
-3.90
-0.46
2.92
5.82
7.98
9.27
9.63
9.02
7.39
4.75
1.27
-2.67
-6.58
-10.03
-12.75
-14.76
-16.27
-17.59
-18.95
-20.43
-21.89
-23.09
-23.69
-23.37
-21.91
-19.29
-15.62
-11.23
-6.52
-1.91
2.24
5.67
8.23
9.90
10.83
11.29
11.62
12.12
12.92
13.98
15.10
16.01
16.53
16.59
16.28
15.67
14.86
13.91
12.86
11.87
11.15
10.95
11.36
12.26
13.33
14.18
14.53
14.33
13.72
12.94
12.19
11.56
11.12
10.90
10.92
11.09
11.23
11.09
10.45
9.26
7.65
5.83
4.04
2.43
1.02
-0.12
-0.90
-1.19
-0.93
-0.28
0.45
0.85
0.68
-0.06
-1.16
-2.30
-3.27
-3.97
-4.41
-4.63
-4.64
-4.40
-3.92
-3.34
-2.82
-2.55
-2.55
-2.68
-2.70
-2.49
-2.09
-1.71
-1.61
-1.90
-2.60
-3.55
-4.60
-5.68
-6.77
-7.87
-8.93
-9.82
-10.41
-10.71
-10.83
-11.00
-11.40
-12.11
-12.98
-13.75
-14.10
-13.83
-12.92
-11.55
-10.12
-9.07
-8.75
-9.27
-10.39
-11.61
-12.33
-12.18
-11.18
-9.86
-9.01
-9.38
-11.34
-14.67
-18.66
-22.39
-25.23
-27.13
-28.66
-30.74
-34.19
-39.29
-45.63
-52.32
-58.34
-63.19
-67.15
-71.23
-76.80
-85.08
-96.70
-111.49
-128.62
-146.52
-163.08
-175.67
-181.53
-178.49
-165.73
-144.30
-116.85
-86.56
-55.54
-23.93
9.84
47.53
89.15
131.92
170.75
200.30
217.34
222.01
217.43
207.85
196.62
185.04
172.64
158.40
142.07
124.65
107.90
93.28
81.12
70.59
60.26
49.16
37.64
27.55
21.57
21.98
29.18
41.07
53.43
61.58
62.32
55.23
42.76
28.95
17.60
10.67
7.93
7.58
7.52
6.43
4.17
1.41
-1.08
-2.92
-4.36
-5.95
-8.09
-10.75
-13.39
-15.25
-15.80
-15.13
-13.93
-13.19
-13.62
-15.37
-17.91
-20.27
-21.63
-21.54
-20.14
-17.96
-15.66
-13.71
-12.29
-11.32
-10.60
-9.99
-9.42
-8.93
-8.58
-8.36
-8.17
-7.85
-7.29
-6.44
-5.44
-4.47
-3.71
-3.20
-2.90
-2.66
-2.43
-2.28
-2.33
-2.73
-3.48
-4.37
-5.12
-5.38
-5.03
-4.15
-3.04
-2.09
-1.59
-1.69
-2.32
-3.30
-4.40
-5.45
-6.34
-7.03
-7.54
-7.92
-8.16
-8.25
-8.17
-7.93
-7.58
-7.20
-6.84
-6.57
-6.43
-6.45
-6.64
-7.00
-7.42
-7.72
-7.69
-7.20
-6.29
-5.12
-3.91
-2.79
-1.79
-0.86
0.05
0.92
1.68
2.27
2.70
2.99
3.17
3.22
3.10
2.83
2.55
2.44
2.61
3.07
3.60
3.89
3.71
3.00
1.88
0.61
-0.51
-1.30
-1.72
-1.85
-1.82
-1.72
-1.58
-1.38
-1.07
-0.70
-0.40
-0.32
-0.58
-1.13
-1.73
-2.04
-1.80
-0.96
0.18
1.10
1.29
0.47
-1.20
-3.21
-4.94
-5.91
-6.01
-5.55
-5.00
-4.81
-5.13
-5.80
-6.47
-6.84
-6.83
-6.53
-6.10
-5.62
-5.03
-4.22
-3.10
-1.75
-0.34
0.93
1.94
2.67
3.12
3.33
3.33
3.18
2.99
2.90
2.97
3.16
3.35
3.38
3.22
2.90
2.51
2.10
1.69
1.33
1.09
1.09
1.39
1.84
2.22
2.31
2.06
1.67
1.39
1.40
1.63
1.79
1.59
0.93
-0.03
-0.94
-1.49
-1.59
-1.41
-1.21
-1.25
-1.60
-2.19
-2.86
-3.50
-4.10
-4.74
-5.58
-6.65
-7.88
-9.04
-9.85
-10.05
-9.59
-8.58
-7.29
-6.00
-4.86
-3.83
-2.76
-1.57
-0.29
0.89
1.76
2.18
2.21
2.04
1.85
1.71
1.54
1.19
0.60
-0.07
-0.51
-0.36
0.56
2.17
4.13
5.97
7.24
7.62
7.03
5.58
3.62
1.58
-0.10
-1.10
-1.34
-0.97
-0.34
0.16
0.31
0.06
-0.46
-1.06
-1.57
-1.92
-2.11
-2.18
-2.12
-1.95
-1.72
-1.59
-1.75
-2.32
-3.31
-4.55
-5.74
-6.59
-6.99
-6.98
-6.75
-6.49
-6.33
-6.27
-6.26
-6.21
-6.03
-5.63
-4.89
-3.74
-2.21
-0.41
1.39
2.95
4.12
4.84
5.20
5.31
5.27
5.13
4.89
4.57
4.17
3.75
3.33
2.99
2.82
2.91
3.32
4.05
4.94
5.72
6.12
5.98
5.34
4.40
3.45
2.66
2.03
1.42
0.66
-0.23
-1.12
-1.82
-2.21
-2.38
-2.54
-2.86
-3.39
-4.04
-4.64
-5.13
-5.58
-6.09
-6.73
-7.49
-8.24
-8.87
-9.31
-9.52
-9.49
-9.15
-8.44
-7.34
-5.93
-4.41
-3.00
-1.86
-1.02
-0.37
0.22
0.87
1.63
2.51
3.49
4.53
5.61
6.73
7.82
8.80
9.50
9.73
9.32
8.23
6.61
4.76
3.07
1.88
1.35
1.41
1.83
2.31
2.66
2.81
2.77
2.57
2.20
1.65
0.95
0.16
-0.56
-1.11
-1.40
-1.49
-1.49
-1.53
-1.75
-2.24
-2.96
-3.80
-4.60
-5.16
-5.45
-5.53
-5.60
-5.86
-6.42
-7.23
-8.09
-8.78
-9.14
-9.14
-8.87
-8.44
-7.87
-7.09
-5.93
-4.29
-2.24
-0.03
1.94
3.32
3.94
3.89
3.46
2.96
2.59
2.41
2.32
2.25
2.27
2.49
3.06
3.96
4.96
5.69
5.85
5.36
4.41
3.41
2.75
2.61
2.92
3.42
3.79
3.87
3.67
3.25
2.70
2.01
1.12
0.02
-1.22
-2.44
-3.47
-4.19
-4.61
-4.91
-5.26
-5.81
-6.56
-7.40
-8.11
-8.52
-8.58
-8.42
-8.24
-8.16
-8.14
-7.93
-7.22
-5.79
-3.67
-1.17
1.24
3.09
4.13
4.39
4.19
3.93
3.96
4.43
5.27
6.27
7.17
7.80
8.01
7.77
7.03
5.74
3.92
1.73
-0.55
-2.62
-4.15
-4.94
-4.96
-4.34
-3.37
-2.34
-1.48
-0.86
-0.36
0.17
0.85
1.65
2.37
2.73
2.55
1.84
0.82
-0.24
-1.07
-1.59
-1.79
-1.70
-1.39
-0.95
-0.51
-0.31
-0.56
-1.37
-2.69
-4.29
-5.80
-6.86
-7.18
-6.62
-5.26
-3.32
-1.16
0.86
2.52
3.72
4.56
5.19
5.76
6.32
6.90
7.48
8.05
8.61
9.16
9.60
9.83
9.77
9.37
8.66
7.72
6.65
5.51
4.40
3.45
2.76
2.42
2.44
2.71
3.05
3.26
3.21
2.86
2.25
1.46
0.57
-0.42
-1.54
-2.83
-4.30
-5.89
-7.48
-8.90
-9.98
-10.67
-11.04
-11.25
-11.48
-11.88
-12.50
-13.28
-14.11
-14.84
-15.33
-15.42
-14.90
-13.61
-11.53
-8.80
-5.83
-3.07
-0.90
0.54
1.45
2.20
3.18
4.55
6.26
8.02
9.52
10.61
11.30
11.74
12.08
12.31
12.30
11.91
11.18
10.35
9.83
9.99
10.91
12.37
13.86
14.94
15.29
14.90
13.95
12.67
11.27
9.86
8.48
7.11
5.74
4.38
3.02
1.68
0.43
-0.63
-1.39
-1.78
-1.87
-1.81
-1.82
-2.11
-2.75
-3.66
-4.57
-5.15
-5.16
-4.51
-3.30
-1.80
-0.25
1.25
2.70
4.21
5.78
7.25
8.32
8.71
8.27
7.16
5.76
4.41
3.28
2.29
1.19
-0.22
-1.90
-3.58
-4.94
-5.69
-5.79
-5.42
-4.85
-4.34
-4.09
-4.17
-4.55
-5.16
-5.83
-6.33
-6.45
-6.16
-5.60
-5.04
-4.76
-4.89
-5.37
-6.01
-6.59
-6.97
-7.16
-7.20
-7.19
-7.22
-7.35
-7.63
-8.13
-8.85
-9.65
-10.26
-10.40
-9.81
-8.48
-6.57
-4.42
-2.30
-0.46
0.99
2.02
2.60
2.80
2.78
2.77
3.00
3.62
4.53
5.48
6.15
6.30
5.92
5.17
4.36
3.71
3.35
3.29
3.44
3.72
4.02
4.22
4.24
4.06
3.75
3.47
3.37
3.51
3.81
4.04
3.98
3.48
2.59
1.48
0.37
-0.64
-1.52
-2.33
-3.12
-3.85
-4.49
-5.02
-5.47
-5.92
-6.45
-7.06
-7.66
-8.16
-8.45
-8.48
-8.27
-7.79
-7.04
-6.01
-4.78
-3.48
-2.31
-1.36
-0.63
0.02
0.77
1.71
2.76
3.77
4.51
4.87
4.88
4.67
4.42
4.29
4.37
4.68
5.20
5.83
6.40
6.75
6.73
6.31
5.58
4.74
4.00
3.51
3.27
3.20
3.18
3.12
2.98
2.73
2.38
1.89
1.23
0.39
-0.54
-1.49
-2.33
-3.01
-3.49
-3.83
-4.13
-4.55
-5.20
-6.14
-7.33
-8.63
-9.85
-10.82
-11.48
-11.85
-12.00
-12.01
-11.87
-11.49
-10.74
-9.53
-7.86
-5.86
-3.78
-1.85
-0.21
1.12
2.23
3.19
4.04
4.74
5.28
5.76
6.37
7.24
8.36
9.50
10.29
10.39
9.71
8.52
7.30
6.57
6.61
7.44
8.78
10.24
11.42
12.04
12.06
11.61
10.98
10.46
10.35
10.81
11.84
13.20
14.47
15.30
15.57
15.46
15.42
16.03
17.67
20.26
23.11
25.28
26.15
25.85
25.22
25.47
27.60
31.89
37.62
43.30
47.37
49.02
48.54
46.92
45.29
44.57
45.35
47.80
51.32
54.23
53.74
46.25
28.18
-2.74
-45.62
-94.56
-139.59
-170.73
-182.93
-177.77
-161.15
-139.34
-116.51
-94.30
-72.94
-52.84
-35.25
-21.77
-13.27
-9.24
-7.96
-7.19
-5.18
-1.06
4.83
11.08
16.10
18.86
19.41
18.71
18.06
18.56
20.70
24.27
28.44
32.27
35.19
37.19
38.82
40.74
43.36
46.72
50.39
53.69
55.62
55.88
54.42
51.55
47.81
43.59
39.28
35.17
31.46
28.28
25.83
24.26
23.76
24.54
26.37
29.09
32.50
36.45
40.82
45.57
50.67
56.19
62.28
68.62
75.06
81.51
87.92
94.26
100.54
106.79
113.08
119.64
125.99
131.87
137.06
141.34
144.41
145.79
144.67
139.61
133.58
127.43
121.64
116.49
112.12
108.60
105.95
104.12
103.10
102.96
103.10
103.12
102.79
101.95
100.54
98.58
96.17
93.51
90.90
88.15
85.22
82.17
79.01
75.85
72.72
69.73
66.97
64.62
62.50
60.55
58.75
57.08
55.53
54.06
52.63
51.19
49.73
48.02
45.92
43.31
40.09
36.22
31.71
26.59
20.96
14.96
8.70
2.32
-4.01
-10.13
-15.92
-21.27
-26.16
-30.55
-34.43
-37.81
-40.67
-43.00
-44.81
-46.10
-46.92
-47.33
-47.40
-47.18
-46.71
-46.02
-45.10
-44.01
-42.81
-41.61
-40.54
-39.72
-39.23
-39.07
-39.16
-39.35
-39.56
-39.72
-39.92
-40.29
-41.05
-42.30
-44.05
-46.17
-48.45
-50.77
-53.17
-55.94
-59.48
-64.25
-70.45
-78.00
-86.48
-95.32
-104.04
-112.48
-120.90
-129.86
-139.98
-151.65
-164.84
-179.12
-193.82
-208.39
-222.55
-236.45
-250.51
-265.47
-282.20
-301.62
-324.25
-349.63
-375.73
-399.04
-415.19
-420.50
-413.29
-394.71
-368.23
-338.38
-309.06
-282.54
-259.28
-238.73
-220.08
-202.95
-187.29
-173.12
-160.25
-148.33
-137.18
-126.90
-117.90
-110.51
-104.54
-99.08
-92.65
-83.72
-71.30
-55.44
-37.16
-18.11
0.09
16.30
30.17
41.98
52.34
61.83
70.72
78.87
85.90
91.26
94.55
95.68
94.95
92.95
90.43
87.95
85.81
84.00
82.31
80.51
78.50
76.26
73.79
71.07
68.04
64.68
61.03
57.21
53.30
49.31
45.11
40.48
35.29
29.57
23.51
17.42
11.63
6.32
1.41
-3.44
-8.77
-15.10
-22.61
-30.91
-38.94
-45.23
-48.27
-47.00
-41.28
-31.89
-20.31
-8.18
3.20
13.17
21.74
29.39
36.63
43.80
50.76
57.08
62.16
65.48
66.82
66.34
64.48
61.78
58.80
55.90
53.32
51.18
49.54
48.43
47.77
47.35
46.79
45.69
43.68
40.71
37.00
33.01
29.22
25.93
23.12
20.43
17.42
13.71
9.19
4.08
-1.19
-6.10
-10.33
-13.84
-16.91
-20.05
-23.80
-28.64
-34.70
-41.65
-48.60
-54.27
-57.29
-56.66
-52.15
-44.35
-34.53
-24.07
-14.03
-4.81
3.72
11.91
19.94
27.59
34.33
39.57
42.93
44.41
44.36
43.44
42.42
42.04
42.79
44.72
47.48
50.35
52.57
53.66
53.72
53.30
53.09
53.49
54.34
54.89
54.11
51.00
44.94
35.87
24.43
11.88
-0.13
-9.88
-16.10
-18.38
-17.35
-14.38
-11.08
-8.63
-7.38
-6.99
-6.76
-6.19
-5.45
-5.39
-7.30
-12.42
-21.40
-33.79
-48.07
-61.76
-72.07
-76.66
-74.30
-65.25
-51.28
-35.09
-19.57
-7.03
1.49
6.29
8.92
11.57
16.33
24.43
35.71
48.62
60.61
68.92
71.55
67.83
58.72
46.41
33.75
23.46
17.58
17.16
22.08
31.15
42.21
52.56
59.56
61.37
57.61
49.52
39.55
30.47
24.35
21.83
22.11
23.51
24.27
23.16
19.83
14.69
8.54
2.20
-3.67
-8.72
-12.74
-15.79
-18.15
-20.35
-22.99
-26.47
-30.74
-35.08
-38.38
-39.47
-37.66
-33.02
-26.34
-18.77
-11.38
-4.74
1.08
6.33
11.28
16.09
20.79
25.32
29.60
33.50
36.83
39.32
40.78
41.20
40.76
39.84
38.78
37.79
36.94
36.15
35.33
34.44
33.54
32.69
31.96
31.41
31.05
30.83
30.62
30.18
29.19
27.39
24.69
21.28
17.55
13.93
10.68
7.75
4.82
1.50
-2.52
-7.24
-12.35
-17.35
-21.83
-25.53
-28.56
-31.22
-33.85
-36.70
-39.87
-43.27
-46.63
-49.62
-51.69
-52.20
-50.55
-46.43
-39.93
-31.71
-22.71
-13.86
-5.71
1.66
8.56
15.33
22.10
28.59
34.15
38.05
39.84
39.51
37.44
34.48
31.63
29.79
29.74
32.12
37.16
44.37
52.18
58.27
60.38
57.12
48.51
35.87
21.06
5.83
-8.37
-20.32
-28.54
-31.53
-28.37
-19.57
-7.33
4.99
14.12
18.22
17.18
12.29
5.15
-3.17
-12.20
-21.71
-31.51
-41.16
-50.00
-57.71
-64.38
-70.51
-76.79
-83.56
-90.55
-96.95
-101.61
-103.37
-101.36
-95.11
-84.56
-70.29
-53.51
-35.97
-19.57
-5.67
5.43
14.44
22.67
31.09
39.78
47.94
54.36
57.94
58.14
55.05
49.24
41.70
33.70
26.64
21.86
20.24
21.97
26.53
32.90
39.89
46.39
51.57
54.88
56.16
55.60
53.63
50.90
48.13
45.91
44.76
45.05
46.87
49.92
53.30
56.03
57.26
56.87
55.70
55.33
57.27
61.80
67.57
71.97
72.23
66.59
54.89
38.29
18.59
-2.43
-23.20
-42.18
-57.72
-68.33
-73.39
-73.60
-70.89
-67.60
-65.40
-64.70
-64.83
-64.80
-64.18
-63.19
-62.22
-61.31
-60.23
-58.51
-55.91
-52.67
-49.27
-46.18
-43.56
-41.10
-38.30
-34.69
-30.07
-24.60
-18.74
-13.14
-8.51
-5.40
-4.04
-4.26
-5.44
-6.75
-7.41
-6.99
-5.53
-3.39
-1.03
1.22
3.24
5.06
6.80
8.55
10.30
11.86
12.94
13.11
11.99
9.41
5.54
0.90
-3.80
-7.96
-11.38
-14.26
-17.23
-20.98
-26.01
-32.28
-39.19
-45.60
-50.04
-51.08
-47.63
-39.39
-26.99
-12.02
3.35
16.93
27.13
33.39
36.15
36.48
35.42
33.57
30.94
27.31
22.60
17.29
12.30
8.71
7.31
8.43
11.90
17.32
24.10
31.50
38.65
44.53
48.28
49.60
48.87
47.06
45.25
43.97
42.84
40.64
35.92
27.71
16.24
2.93
-10.09
-20.70
-27.56
-30.51
-30.33
-28.36
-25.94
-24.03
-23.21
-23.61
-24.99
-26.78
-28.04
-27.79
-25.35
-20.62
-14.21
-7.24
-0.89
3.96
6.98
8.42
8.89
9.20
9.98
11.58
13.85
16.22
17.89
18.27
17.26
15.36
13.46
12.26
11.78
11.28
9.48
5.30
-1.58
-10.39
-19.52
-27.02
-31.24
-31.34
-27.45
-20.70
-12.83
-5.80
-1.33
-0.48
-3.39
-9.26
-16.61
-23.77
-29.40
-32.86
-34.28
-34.36
-34.02
-34.15
-35.40
-38.09
-42.11
-46.95
-51.65
-54.96
-55.73
-53.23
-47.51
-39.44
-30.44
-21.96
-14.94
-9.54
-5.28
-1.35
2.90
7.63
12.52
16.98
20.53
23.01
24.68
25.94
27.07
28.09
28.81
28.96
28.43
27.36
26.07
24.95
24.24
23.95
23.88
23.73
23.21
22.10
20.37
18.17
15.80
13.53
11.51
9.59
7.44
4.64
0.95
-3.62
-8.83
-14.28
-19.57
-24.28
-27.95
-30.03
-30.06
-27.84
-23.60
-17.94
-11.63
-5.26
1.02
7.47
14.49
22.39
30.92
39.42
46.85
52.22
54.91
54.95
53.03
50.23
47.62
45.80
44.83
44.30
43.66
42.67
41.45
40.43
39.97
40.03
40.11
39.43
37.39
33.80
29.10
24.08
19.63
16.29
14.03
12.27
10.04
6.35
0.52
-7.52
-17.15
-27.10
-35.81
-41.77
-44.00
-42.39
-37.76
-31.58
-25.45
-20.62
-17.50
-15.58
-13.66
-10.28
-4.40
4.19
14.62
25.13
33.65
38.51
39.11
36.12
31.32
26.76
24.02
23.60
24.94
26.83
28.11
28.19
27.11
25.32
23.13
20.48
16.94
12.14
6.18
-0.14
-5.50
-8.59
-8.80
-6.67
-3.81
-2.36
-4.10
-9.66
-18.06
-26.98
-33.35
-34.15
-27.14
-11.36
12.59
42.32
73.82
101.95
121.44
128.16
120.37
99.26
68.68
34.14
1.26
-25.40
-43.05
-50.77
-49.17
-39.94
-25.46
-8.53
7.93
21.19
29.24
31.06
26.96
18.26
6.97
-4.99
-16.14
-25.78
-33.64
-39.55
-43.14
-43.91
-41.59
-36.59
-30.07
-23.59
-18.58
-15.74
-14.95
-15.65
-17.33
-19.87
-23.49
-28.41
-34.44
-40.83
-46.45
-50.14
-51.01
-48.57
-42.76
-33.97
-23.10
-11.49
-0.79
7.51
12.53
14.33
13.89
12.70
12.16
13.21
16.19
20.98
27.20
34.35
41.64
47.90
51.73
51.90
47.92
40.49
31.30
22.48
15.83
12.20
11.44
12.85
15.59
19.08
22.87
26.37
28.76
29.12
26.86
22.01
15.29
7.74
0.33
-6.37
-12.15
-16.93
-20.59
-22.88
-23.62
-22.93
-21.41
-19.85
-18.93
-18.84
-19.23
-19.37
-18.64
-16.68
-13.67
-10.12
-6.65
-3.74
-1.66
-0.39
0.35
1.02
2.07
3.77
6.08
8.67
11.01
12.66
13.47
13.58
13.31
12.92
12.49
11.90
11.02
9.89
8.75
8.00
7.91
8.42
9.14
9.48
8.95
7.46
5.29
2.99
1.00
-0.62
-2.17
-4.16
-6.92
-10.48
-14.52
-18.58
-22.34
-25.67
-28.68
-31.52
-34.24
-36.76
-38.96
-40.82
-42.31
-43.40
-43.83
-43.16
-40.99
-37.26
-32.49
-27.62
-23.61
-20.88
-19.02
-16.91
-13.22
-7.14
1.28
11.08
20.79
28.89
34.31
36.55
35.75
32.57
28.02
23.30
19.52
17.43
17.31
18.88
21.53
24.51
27.13
28.79
29.12
27.91
25.21
21.41
17.13
13.14
10.04
8.07
7.00
6.25
5.17
3.31
0.64
-2.53
-5.64
-8.17
-9.82
-10.69
-11.21
-12.07
-13.97
-17.39
-22.35
-28.34
-34.26
-38.79
-40.68
-39.22
-34.44
-27.14
-18.65
-10.33
-3.19
2.33
6.40
9.51
12.17
14.75
17.34
19.94
22.57
25.31
28.25
31.33
34.29
36.62
37.78
37.45
35.69
32.97
29.90
27.09
24.83
23.20
22.05
21.07
19.92
18.21
15.65
12.11
7.81
3.29
-0.76
-3.82
-5.71
-6.72
-7.40
-8.29
-9.64
-11.38
-13.17
-14.65
-15.55
-15.83
-15.65
-15.43
-15.65
-16.84
-19.42
-23.51
-28.82
-34.57
-39.53
-42.37
-42.06
-38.31
-31.65
-23.34
-14.89
-7.54
-1.88
2.26
5.45
8.30
11.11
13.75
15.86
17.08
17.17
16.12
14.08
11.30
8.13
4.91
1.95
-0.56
-2.61
-4.34
-5.99
-7.67
-9.35
-10.75
-11.54
-11.47
-10.54
-9.09
-7.80
-7.41
-8.50
-11.19
-15.01
-19.06
-22.35
-24.17
-24.37
-23.38
-21.88
-20.58
-19.84
-19.61
-19.61
-19.53
-19.24
-18.89
-18.91
-19.89
-22.44
-26.94
-33.20
-40.41
-47.12
-51.67
-52.65
-49.31
-41.81
-31.11
-18.57
-5.53
6.93
18.13
27.65
35.15
40.38
43.18
43.65
42.16
39.36
35.95
32.51
29.32
26.39
23.62
20.94
18.52
16.62
15.54
15.34
15.80
16.49
16.95
16.84
16.08
14.78
13.15
11.44
9.81
8.41
7.32
6.57
6.06
5.62
5.10
4.36
3.33
2.00
0.37
-1.59
-3.93
-6.76
-10.22
-14.40
-19.23
-24.40
-29.20
-32.74
-34.11
-32.71
-28.55
-22.20
-14.71
-7.26
-0.70
4.55
8.55
11.61
14.09
16.08
17.48
18.09
17.91
17.15
16.32
15.80
15.80
16.12
16.35
16.09
15.24
14.07
13.08
12.73
13.19
14.32
15.67
16.71
17.00
16.29
14.60
12.21
9.58
7.13
5.20
3.74
2.52
1.19
-0.48
-2.56
-4.90
-7.38
-9.95
-12.68
-15.59
-18.59
-21.51
-24.24
-26.94
-29.99
-33.64
-37.75
-41.56
-43.93
-43.87
-41.05
-35.98
-29.75
-23.49
-17.90
-13.08
-8.76
-4.64
-0.65
3.11
6.50
9.57
12.51
15.51
18.54
21.32
23.47
24.70
24.95
24.44
23.58
22.81
22.45
22.62
23.21
23.94
24.46
24.50
23.94
22.87
21.46
19.88
18.27
16.71
15.36
14.47
14.24
14.68
15.45
15.89
15.24
12.97
9.08
4.20
-0.59
-4.12
-5.61
-5.08
-3.46
-2.42
-3.77
-8.79
-17.61
-28.91
-40.29
-48.89
-52.38
-49.66
-41.30
-29.35
-16.84
-6.75
-1.10
-0.36
-3.23
-7.29
-9.83
-8.91
-3.96
4.15
13.66
22.56
29.22
32.82
33.32
31.33
27.85
23.90
20.39
17.94
16.81
16.93
18.07
19.86
21.84
23.50
24.28
23.71
21.57
18.06
13.77
9.53
6.07
3.79
2.60
2.00
1.31
0.03
-2.03
-4.69
-7.58
-10.37
-12.93
-15.34
-17.77
-20.30
-22.85
-25.19
-27.08
-28.52
-29.78
-31.38
-33.84
-37.36
-41.62
-45.76
-48.67
-49.31
-47.12
-42.24
-35.44
-27.81
-20.41
-13.93
-8.55
-3.97
0.28
4.60
9.04
13.36
17.09
19.84
21.45
22.11
22.18
22.06
21.95
21.83
21.54
20.99
20.24
19.60
19.47
20.09
21.41
23.02
24.36
24.92
24.52
23.30
21.66
19.96
18.45
17.16
15.94
14.63
13.09
11.26
9.09
6.62
3.93
1.20
-1.32
-3.46
-5.19
-6.72
-8.43
-10.76
-14.01
-18.18
-22.92
-27.59
-31.34
-33.33
-32.94
-30.02
-24.96
-18.63
-12.06
-6.18
-1.48
2.10
5.06
7.96
11.19
14.67
18.01
20.64
22.19
22.63
22.29
21.67
21.19
21.05
21.11
21.18
21.04
20.61
19.99
19.29
18.66
18.11
17.62
17.19
16.78
16.40
15.98
15.34
14.24
12.40
9.65
6.01
1.74
-2.63
-6.47
-9.17
-10.29
-9.75
-7.80
-5.04
-2.22
-0.11
0.71
0.02
-2.13
-5.42
-9.53
-14.10
-18.83
-23.33
-27.15
-29.83
-31.10
-31.02
-29.98
-28.51
-26.95
-25.29
-23.12
-19.89
-15.22
-9.10
-1.92
5.66
12.90
19.20
24.14
27.50
29.30
29.73
29.09
27.59
25.34
22.38
18.84
15.02
11.46
8.76
7.23
6.85
7.17
7.63
7.82
7.61
7.17
6.70
6.32
5.96
5.47
4.75
3.72
2.39
0.72
-1.42
-4.13
-7.42
-11.07
-14.69
-17.81
-20.15
-21.79
-23.16
-24.96
-27.83
-32.04
-37.31
-42.72
-46.97
-48.82
-47.54
-43.22
-36.80
-29.68
-23.29
-18.69
-16.17
-15.23
-14.74
-13.29
-9.67
-3.27
5.64
15.96
26.06
34.31
39.62
41.68
40.91
38.14
34.24
29.75
24.88
19.51
13.45
6.70
-0.31
-6.66
-11.20
-12.91
-11.35
-6.86
-0.53
6.08
11.38
14.05
13.35
9.08
1.68
-7.78
-17.72
-26.31
-31.90
-33.51
-31.19
-25.96
-19.55
-13.89
-10.60
-10.56
-13.71
-19.06
-24.93
-29.38
-30.72
-28.06
-21.47
-12.04
-1.45
8.60
16.78
22.39
25.34
25.99
24.93
22.79
20.15
17.49
15.15
13.31
11.98
11.11
10.64
10.53
10.75
11.20
11.67
11.91
11.69
10.87
9.50
7.65
5.40
2.76
-0.26
-3.63
-7.13
-10.42
-13.18
-15.24
-16.68
-17.82
-18.93
-20.12
-21.31
-22.29
-22.95
-23.44
-24.15
-25.56
-28.05
-31.64
-35.91
-40.05
-43.02
-43.82
-41.78
-36.76
-29.35
-20.68
-12.05
-4.58
1.20
5.47
8.87
12.18
15.96
20.27
24.76
28.86
32.05
34.12
35.17
35.52
35.57
35.51
35.37
35.03
34.37
33.44
32.52
32.01
32.21
33.11
34.37
35.40
35.63
34.75
32.82
30.20
27.36
24.62
22.05
19.46
16.55
13.07
8.94
4.28
-0.63
-5.47
-9.93
-13.74
-16.87
-19.42
-21.75
-24.48
-28.31
-33.78
-40.97
-49.43
-58.05
-65.44
-70.22
-71.30
-68.17
-60.94
-50.26
-37.24
-23.24
-9.66
2.27
11.76
18.52
22.78
25.13
26.25
26.63
26.45
25.52
23.41
19.65
14.06
6.99
-0.49
-6.80
-10.17
-9.22
-3.46
6.32
18.25
29.83
38.62
43.06
42.81
38.81
32.77
26.46
21.01
16.53
12.27
7.10
0.23
-8.29
-17.48
-25.83
-31.84
-34.71
-34.63
-32.75
-30.83
-30.56
-33.02
-38.27
-45.21
-51.96
-56.60
-57.83
-55.46
-50.31
-43.55
-35.94
-27.36
-16.99
-4.14
10.93
26.49
39.80
48.24
50.47
47.27
41.16
35.39
32.55
33.58
37.64
42.65
46.23
46.68
43.48
37.53
30.80
25.65
24.05
26.74
32.74
39.47
43.66
42.45
34.59
21.04
4.52
-11.49
-24.07
-31.88
-35.27
-35.76
-35.10
-34.40
-33.86
-32.90
-30.71
-26.68
-20.72
-13.29
-5.22
2.54
9.38
15.18
20.43
25.91
32.25
39.34
46.27
51.64
54.26
53.92
51.64
49.30
48.84
51.49
57.47
66.24
77.02
89.06
101.54
113.24
122.33
126.55
123.88
113.41
95.74
72.82
47.08
20.62
-5.24
-29.83
-52.70
-73.30
-90.91
-105.00
-115.51
-123.01
-128.38
-132.52
-136.10
-139.51
-142.99
-146.63
-150.32
-153.45
-154.94
-153.47
-147.91
-137.68
-122.86
-103.95
-81.65
-56.74
-30.20
-3.36
22.02
44.01
61.08
72.56
78.89
81.44
81.93
81.76
81.55
81.06
79.60
76.57
71.96
66.44
61.06
56.73
53.74
51.63
49.49
46.49
42.28
37.21
32.09
27.73
24.54
22.31
20.35
17.78
13.86
8.31
1.50
-5.66
-12.03
-16.70
-19.34
-20.30
-20.42
-20.67
-21.83
-24.22
-27.70
-31.68
-35.36
-37.80
-38.28
-36.44
-32.47
-27.03
-21.00
-15.21
-10.15
-5.92
-2.23
1.29
4.92
8.77
12.70
16.35
19.24
21.03
21.59
21.11
20.00
18.64
17.29
15.96
14.65
13.36
12.31
11.77
11.84
12.32
12.64
12.15
10.41
7.35
3.29
-1.24
-5.80
-10.17
-14.37
-18.52
-22.69
-26.84
-30.76
-34.25
-37.07
-39.03
-39.88
-39.30
-37.01
-32.97
-27.55
-21.49
-15.65
-10.72
-6.91
-3.91
-0.93
2.83
8.03
14.86
22.83
30.69
36.69
39.04
36.68
29.91
20.29
10.11
1.41
-4.70
-8.14
-9.48
-9.31
-7.94
-5.54
-2.52
0.32
1.93
1.52
-0.97
-4.82
-8.82
-11.87
-13.45
-13.66
-13.04
-12.24
-11.82
-12.04
-12.92
-14.17
-15.29
-15.71
-15.03
-13.10
-10.16
-6.71
-3.27
-0.20
2.52
5.12
7.97
11.26
14.88
18.41
21.31
23.12
23.60
22.83
21.13
18.93
16.65
14.51
12.58
10.73
8.92
7.16
5.62
4.43
3.59
2.86
1.84
0.11
-2.49
-5.79
-9.28
-12.39
-14.73
-16.21
-17.11
-17.90
-19.07
-20.97
-23.67
-26.93
-30.18
-32.61
-33.33
-31.70
-27.55
-21.36
-14.15
-7.09
-1.11
3.48
6.99
10.06
13.37
17.14
21.06
24.44
26.56
27.00
25.86
23.69
21.23
19.12
17.62
16.65
15.78
14.53
12.55
9.78
6.40
2.80
-0.63
-3.54
-5.73
-7.09
-7.71
-7.77
-7.57
-7.55
-8.20
-10.09
-13.62
-18.85
-25.41
-32.43
-38.74
-43.10
-44.57
-42.77
-37.97
-31.10
-23.46
-16.36
-10.76
-7.00
-4.68
-2.85
-0.33
3.83
9.89
17.18
24.27
29.43
31.29
29.37
24.22
17.19
9.83
3.36
-1.62
-5.00
-6.90
-7.40
-6.45
-4.09
-0.64
3.22
6.49
8.22
7.73
4.94
0.41
-4.79
-9.45
-12.60
-13.90
-13.76
-13.19
-13.39
-15.26
-19.08
-24.48
-30.55
-36.20
-40.42
-42.43
-41.85
-38.76
-33.65
-27.32
-20.66
-14.32
-8.55
-3.28
1.81
6.85
11.71
16.03
19.47
21.87
23.50
24.80
26.27
28.18
30.45
32.82
34.87
36.20
36.51
35.65
33.62
30.59
26.85
22.79
18.77
15.10
11.98
9.46
7.45
5.66
3.79
1.58
-1.11
-4.27
-7.88
-12.05
-17.00
-23.00
-30.16
-38.14
-46.04
-52.71
-56.97
-58.12
-56.05
-51.32
-44.78
-37.41
-29.89
-22.60
-15.61
-8.84
-2.29
3.82
9.09
13.21
16.08
17.94
19.26
20.48
21.78
23.09
24.23
25.09
25.75
26.42
27.37
28.74
30.52
32.62
34.84
36.85
38.32
38.83
38.10
36.09
33.10
29.70
26.57
24.12
22.38
21.01
19.43
17.20
14.04
9.90
4.88
-0.91
-7.35
-14.12
-20.62
-25.85
-28.64
-28.08
-23.82
-16.35
-6.76
3.59
13.57
22.48
30.06
36.47
42.06
47.17
52.14
57.11
61.91
65.94
68.32
68.33
65.86
61.51
56.23
50.75
45.21
39.31
32.84
26.08
19.78
14.69
10.88
7.68
4.03
-0.67
-6.08
-11.12
-14.73
-16.66
-17.69
-19.10
-21.75
-25.45
-29.32
-32.32
-33.99
-34.76
-35.58
-37.45
-40.96
-46.06
-52.20
-58.49
-63.84
-67.17
-67.56
-64.50
-58.14
-49.27
-39.09
-28.84
-19.30
-10.73
-2.93
4.37
11.20
17.28
22.02
24.90
25.63
24.37
21.68
18.45
15.69
14.20
14.40
16.14
18.77
21.28
22.66
22.07
19.15
13.99
7.03
-1.01
-9.48
-17.83
-25.81
-33.34
-40.52
-47.47
-54.28
-61.07
-67.86
-74.67
-81.36
-87.72
-93.49
-98.51
-102.87
-106.79
-110.35
-113.13
-114.19
-112.26
-106.45
-96.70
-84.06
-70.28
-57.06
-45.27
-34.62
-24.04
-12.33
1.05
15.67
30.34
43.71
54.77
63.26
69.63
74.73
79.53
84.80
90.94
97.92
105.38
112.63
118.84
123.14
124.86
123.59
119.22
111.97
102.37
91.23
79.42
67.73
56.65
46.24
36.28
26.45
16.57
6.61
-3.31
-13.18
-23.08
-33.27
-43.89
-54.76
-65.28
-74.47
-81.16
-84.33
-83.30
-77.94
-68.76
-56.76
-43.23
-29.32
-15.82
-3.00
9.24
21.05
32.39
42.88
51.90
58.86
63.45
65.78
66.36
65.77
64.41
62.27
58.92
53.83
46.70
37.85
28.25
19.36
12.64
9.00
8.42
9.91
11.91
12.80
11.43
7.50
1.48
-5.69
-13.00
-19.84
-26.14
-32.28
-38.82
-46.18
-54.33
-62.80
-70.82
-77.48
-81.99
-83.71
-82.30
-77.71
-70.18
-60.30
-48.95
-37.20
-26.10
-16.48
-8.77
-3.08
0.64
2.56
2.92
2.06
0.59
-0.71
-1.07
-0.12
2.00
4.48
6.29
6.59
5.12
2.43
-0.41
-2.29
-2.58
-1.56
-0.60
-1.79
-7.17
-17.98
-33.68
-52.00
-69.52
-82.87
-89.96
-90.61
-86.42
-79.55
-71.29
-60.69
-44.60
-19.12
18.18
66.35
120.73
174.43
220.69
254.86
275.07
281.41
274.87
256.93
230.08
198.38
167.31
142.06
125.39
116.24
110.81
105.33
98.82
93.58
93.15
98.77
106.93
110.04
100.17
73.96
35.29
-5.80
-37.91
-53.96
-54.17
-44.72
-32.87
-21.89
-9.35
10.12
39.41
74.73
105.53
118.90
105.94
66.39
9.03
-52.66
-106.33
-144.81
-166.39
-172.23
-163.34
-139.92
-103.07
-57.42
-11.82
23.13
39.59
36.14
18.25
-4.55
-23.60
-34.38
-36.79
-32.82
-23.92
-10.26
7.81
27.81
44.83
53.44
50.69
37.91
19.88
2.11
-11.93
-22.08
-30.50
-39.59
-50.07
-60.59
-68.57
-71.88
-70.13
-65.04
-59.66
-57.01
-59.00
-65.95
-76.73
-89.55
-102.55
-113.90
-121.78
-124.30
-119.98
-108.33
-90.61
-69.80
-49.55
-32.89
-20.88
-12.58
-5.88
1.37
10.59
22.27
35.98
50.25
62.53
69.30
67.08
54.06
31.64
4.91
-18.91
-33.42
-35.88
-28.47
-17.06
-8.14
-5.84
-10.63
-20.43
-32.91
-47.23
-63.77
-82.62
-101.87
-117.73
-126.43
-126.55
-120.14
-111.46
-104.30
-99.79
-96.23
-90.94
-82.40
-71.31
-59.64
-48.71
-37.95
-25.25
-8.74
11.35
32.39
50.56
62.92
68.92
70.33
70.00
70.13
71.18
72.11
71.45
68.53
63.77
58.25
52.87
48.10
44.60
43.88
48.54
61.11
82.31
110.03
139.91
167.31
189.32
205.83
218.51
229.18
238.54
245.90
250.09
250.36
246.34
237.27
221.75
198.14
166.02
127.34
86.43
48.39
17.32
-5.55
-21.94
-35.54
-50.91
-72.46
-103.88
-147.29
-202.05
-264.00
-325.49
-376.82
-409.13
-417.45
-402.60
-370.99
-332.46
-296.83
-271.10
-257.76
-254.84
-257.26
-258.86
-254.19
-239.76
-214.75
-181.11
-143.01
-105.86
-75.05
-54.94
-48.30
-55.56
-74.93
-102.79
-134.31
-164.54
-189.44
-206.73
-216.01
-218.18
-214.56
-206.15
-193.33
-176.04
-154.37
-128.91
-100.86
-71.78
-43.06
-15.49
10.73
35.88
60.40
84.61
108.71
132.91
157.66
183.54
210.81
238.81
265.62
288.23
303.41
308.75
303.56
289.00
267.65
242.62
216.84
192.59
171.29
153.36
138.17
124.04
108.80
90.79
69.84
47.76
27.83
13.45
6.71
7.51
13.51
21.08
26.46
26.82
21.03
10.02
-3.05
-13.23
-14.96
-4.13
19.84
53.10
88.63
119.23
140.71
153.34
160.59
166.16
170.99
172.51
166.35
149.39
121.95
87.76
52.09
19.04
-9.95
-35.90
-60.80
-85.91
-110.62
-132.61
-148.61
-155.35
-150.54
-133.52
-105.84
-71.34
-35.84
-5.92
12.76
17.19
8.09
-10.32
-31.69
-49.67
-59.87
-60.75
-53.26
-39.66
-22.34
-3.34
15.45
31.87
43.59
48.83
47.24
40.22
30.35
20.36
12.01
5.74
0.99
-3.04
-6.92
-10.86
-14.89
-18.96
-23.02
-26.97
-30.70
-34.32
-38.37
-43.79
-51.47
-61.54
-72.94
-83.46
-90.47
-91.86
-86.66
-74.93
-57.39
-34.73
-7.45
23.93
58.42
94.07
127.84
155.78
173.78
178.42
168.14
144.14
110.42
73.16
39.01
13.20
-1.84
-6.74
-4.18
2.56
10.94
19.42
27.16
33.46
37.49
38.49
36.19
30.92
23.31
13.74
1.97
-12.71
-30.90
-52.43
-75.93
-98.96
-118.54
-131.90
-137.00
-133.09
-120.85
-102.12
-79.58
-55.91
-33.05
-11.62
8.99
29.89
51.65
73.50
93.26
107.90
114.71
112.17
100.34
80.68
55.58
27.83
0.27
-24.46
-44.31
-58.16
-66.21
-69.76
-70.79
-71.01
-71.25
-71.33
-70.68
-69.05
-67.02
-65.66
-66.05
-68.51
-72.24
-75.72
-77.36
-76.12
-71.70
-64.33
-54.30
-41.56
-25.66
-6.01
17.61
44.69
73.73
102.39
127.86
147.48
159.46
163.29
159.87
151.26
139.97
128.24
117.46
107.90
98.96
89.49
78.18
63.88
45.68
23.16
-3.35
-32.70
-63.33
-93.83
-123.52
-152.36
-180.26
-205.72
-225.20
-233.47
-225.12
-197.16
-151.70
-96.96
-45.84
-11.54
-2.02
-15.79
-41.53
-62.57
-64.41
-41.74
-0.95
42.96
73.83
81.59
66.07
35.53
1.53
-26.01
-41.31
-42.11
-27.98
0.20
39.15
81.76
117.57
135.92
130.68
104.01
66.35
32.56
16.13
24.24
55.58
101.60
150.28
190.46
215.26
223.82
221.06
215.80
217.68
233.47
264.14
303.94
342.46
368.22
372.66
352.32
308.62
246.36
172.06
93.30
18.87
-41.75
-79.93
-90.52
-74.29
-38.78
3.60
39.59
59.35
59.20
41.35
11.62
-23.77
-60.65
-97.35
-133.59
-169.00
-202.11
-230.53
-251.99
-265.52
-271.94
-273.49
-272.93
-272.51
-273.44
-275.83
-279.23
-283.17
-287.50
-292.47
-298.45
-305.76
-314.55
-324.81
-336.10
-347.37
-356.67
-361.14
-357.56
-343.08
-315.87
-275.32
-221.86
-156.85
-82.80
-3.69
75.06
147.36
207.83
253.23
283.15
299.38
304.83
302.27
294.05
282.50
270.33
260.40
254.61
252.87
252.85
251.30
245.97
237.28
228.34
223.19
224.69
232.78
244.22
254.08
258.10
254.23
243.22
227.99
212.16
198.77
189.34
183.39
178.58
171.34
157.87
135.48
103.77
65.14
24.38
-12.78
-41.46
-59.04
-65.73
-64.13
-57.99
-50.88
-45.38
-42.54
-42.20
-43.30
-44.41
-44.42
-42.80
-39.76
-36.12
-33.12
-31.92
-33.44
-38.28
-46.66
-58.43
-73.03
-89.37
-105.84
-120.63
-132.23
-140.01
-144.49
-147.11
-149.61
-153.36
-158.83
-165.63
-172.77
-179.05
-183.33
-184.63
-182.14
-175.40
-164.29
-149.25
-131.20
-111.39
-90.97
-70.64
-50.57
-30.48
-10.07
10.64
31.03
50.01
66.37
79.27
88.55
94.84
99.16
102.55
105.71
108.87
111.93
114.70
116.98
118.58
119.12
118.10
115.00
109.61
102.33
94.10
86.13
79.34
73.81
68.81
63.23
56.13
47.25
36.99
26.14
15.37
5.29
-3.39
-9.83
-13.48
-14.63
-14.59
-15.18
-17.83
-22.76
-28.87
-34.40
-38.07
-39.70
-40.04
-39.93
-39.57
-38.59
-36.63
-34.23
-32.83
-34.06
-38.63
-45.62
-52.63
-56.80
-56.11
-49.88
-39.00
-25.41
-11.16
2.23
13.96
23.81
31.74
37.54
40.91
41.57
39.57
35.42
29.94
24.04
18.30
12.85
7.39
1.43
-5.56
-13.92
-23.51
-33.73
-43.45
-51.22
-55.73
-56.14
-52.39
-45.25
-36.07
-26.27
-16.89
-8.41
-0.77
6.28
12.86
18.81
23.77
27.44
29.90
31.53
32.78
33.96
34.96
35.38
34.77
32.92
29.93
26.18
22.06
17.92
13.95
10.34
7.23
4.71
2.72
1.01
-0.77
-2.95
-5.66
-8.89
-12.51
-16.43
-20.65
-25.30
-30.47
-36.20
-42.40
-49.02
-56.14
-63.95
-72.66
-82.13
-91.72
-100.23
-106.16
-108.21
-105.72
-98.90
-88.65
-76.19
-62.57
-48.49
-34.23
-19.99
-5.97
7.46
19.88
31.01
40.78
49.23
56.55
62.90
68.45
73.53
78.62
84.16
90.18
96.04
100.58
102.52
101.13
96.41
88.97
79.58
68.63
56.22
42.38
27.54
12.68
-0.93
-12.43
-21.72
-29.51
-36.83
-44.33
-51.96
-59.14
-65.16
-69.65
-72.71
-74.77
-76.35
-77.86
-79.38
-80.76
-81.67
-81.59
-79.93
-76.10
-69.75
-60.90
-50.05
-38.06
-25.93
-14.55
-4.40
4.38
11.95
18.54
24.32
29.28
33.27
35.97
37.07
36.31
33.63
29.14
23.28
16.74
10.39
5.17
1.82
0.64
1.46
3.64
6.23
8.36
9.41
9.23
8.10
6.58
5.20
4.22
3.47
2.38
0.19
-3.71
-9.53
-16.84
-24.71
-31.99
-37.76
-41.66
-43.94
-45.25
-46.25
-47.23
-47.90
-47.55
-45.43
-41.04
-34.50
-26.35
-17.42
-8.47
-0.02
7.55
13.92
18.72
21.43
21.69
19.44
15.07
9.47
3.67
-1.35
-5.03
-7.18
-7.99
-7.79
-6.85
-5.37
-3.34
-0.65
2.78
6.94
11.59
16.35
20.68
24.11
26.32
27.27
27.16
26.29
24.98
23.37
21.57
19.62
17.60
15.61
13.73
11.90
9.94
7.64
4.82
1.52
-1.94
-5.03
-7.03
-7.30
-5.43
-1.46
4.12
10.48
16.67
21.91
25.74
28.11
29.27
29.59
29.35
28.72
27.64
26.03
23.83
21.14
18.12
14.94
11.68
8.35
4.98
1.70
-1.18
-3.24
-4.27
-4.38
-4.14
-4.30
-5.54
-8.06
-11.48
-15.03
-17.87
-19.51
-19.93
-19.58
-19.09
-18.95
-19.38
-20.32
-21.59
-22.99
-24.41
-25.82
-27.15
-28.36
-29.46
-30.57
-32.02
-34.17
-37.23
-41.03
-44.90
-47.83
-48.75
-47.00
-42.63
-36.42
-29.65
-23.59
-19.15
-16.59
-15.54
-15.32
-15.24
-14.85
-13.95
-12.56
-10.81
-8.82
-6.70
-4.57
-2.50
-0.55
1.35
3.35
5.66
8.46
11.74
15.21
18.31
20.42
21.02
19.99
17.66
14.81
12.39
11.31
12.01
14.41
17.90
21.54
24.37
25.60
24.80
21.87
17.09
10.97
4.28
-2.12
-7.38
-10.86
-12.28
-11.87
-10.29
-8.44
-7.15
-6.86
-7.56
-8.81
-10.01
-10.59
-10.21
-8.85
-6.63
-3.70
-0.14
3.98
8.55
13.23
17.51
20.88
22.97
23.78
23.74
23.55
23.88
25.09
27.03
29.18
30.88
31.59
31.15
29.75
27.75
25.48
23.01
20.24
17.00
13.18
8.83
4.25
-0.21
-4.21
-7.63
-10.56
-13.29
-16.17
-19.45
-23.15
-27.08
-30.95
-34.56
-37.84
-40.96
-44.12
-47.52
-51.15
-54.85
-58.34
-61.21
-63.08
-63.52
-62.18
-58.84
-53.55
-46.65
-38.71
-30.37
-22.11
-14.20
-6.64
0.69
7.78
14.45
20.34
25.05
28.28
30.05
30.68
30.68
30.60
30.83
31.49
32.45
33.42
34.08
34.18
33.62
32.48
31.02
29.56
28.41
27.66
27.17
26.56
25.38
23.30
20.19
16.20
11.65
6.86
1.96
-3.03
-8.23
-13.74
-19.54
-25.47
-31.20
-36.28
-40.24
-42.76
-43.79
-43.70
-43.29
-43.50
-45.15
-48.57
-53.38
-58.44
-62.23
-63.28
-60.67
-54.38
-45.23
-34.60
-24.00
-14.64
-7.16
-1.63
2.30
5.14
7.42
9.54
11.80
14.36
17.28
20.45
23.70
26.73
29.21
30.87
31.56
31.39
30.60
29.59
28.68
28.01
27.47
26.78
25.59
23.62
20.82
17.34
13.53
9.75
6.27
3.14
0.26
-2.62
-5.73
-9.18
-12.82
-16.35
-19.37
-21.52
-22.62
-22.73
-22.11
-21.16
-20.40
-20.32
-21.29
-23.37
-26.12
-28.58
-29.49
-27.64
-22.32
-13.69
-2.77
8.82
19.37
27.50
32.59
34.86
35.22
35.02
35.61
37.92
42.12
47.46
52.52
55.71
55.84
52.69
47.06
40.56
34.99
31.66
30.87
31.90
33.24
33.16
30.34
24.27
15.42
5.04
-5.23
-13.89
-20.03
-23.56
-25.16
-26.03
-27.42
-30.24
-34.75
-40.52
-46.68
-52.19
-56.19
-58.18
-58.09
-56.18
-53.00
-49.32
-45.95
-43.65
-42.94
-43.85
-45.92
-48.18
-49.50
-48.92
-45.93
-40.60
-33.50
-25.41
-16.98
-8.54
-0.07
8.72
18.07
27.98
38.10
47.89
56.82
64.54
71.00
76.49
81.43
86.43
91.96
98.16
104.50
109.86
112.73
111.93
106.99
98.28
86.75
73.30
58.51
42.60
25.83
8.93
-6.88
-20.31
-30.57
-37.75
-42.82
-47.06
-51.56
-56.71
-62.29
-67.62
-72.09
-75.39
-77.63
-79.42
-81.59
-84.83
-89.52
-95.55
-102.28
-108.65
-113.40
-115.32
-113.57
-107.83
-98.53
-86.72
-73.76
-60.90
-48.88
-37.86
-27.60
-17.81
-8.53
-0.04
7.14
12.66
16.45
18.88
20.53
22.01
23.72
25.68
27.57
28.90
29.24
28.43
26.73
24.79
23.37
23.02
23.87
25.52
27.17
28.00
27.38
25.22
21.95
18.39
15.50
13.99
14.04
15.09
16.00
15.28
11.72
4.89
-4.36
-13.98
-21.18
-23.30
-18.69
-7.32
9.15
28.06
46.47
62.19
74.35
83.56
91.52
100.43
112.17
127.29
144.48
160.51
171.39
174.06
167.73
154.19
136.81
118.82
101.92
86.05
70.22
53.77
37.10
21.43
7.81
-3.72
-14.29
-25.48
-38.30
-52.53
-66.92
-79.85
-90.23
-97.80
-103.14
-107.29
-111.38
-116.08
-121.60
-127.71
-133.87
-139.42
-143.65
-145.86
-145.39
-141.71
-134.56
-124.11
-110.83
-95.36
-78.27
-60.01
-40.96
-21.56
-2.43
15.79
32.48
47.31
60.19
71.19
80.59
88.70
96.01
103.25
111.14
119.83
128.52
135.52
138.89
137.37
130.86
120.35
107.36
93.17
78.49
63.62
48.84
34.62
21.52
9.80
-0.78
-10.82
-20.82
-30.82
-40.31
-48.60
-55.29
-60.48
-64.72
-68.66
-72.80
-77.38
-82.08
-86.19
-88.70
-88.58
-85.14
-78.33
-68.72
-57.29
-45.07
-32.79
-20.71
-8.78
3.08
14.71
25.63
35.13
42.61
47.80
50.81
52.15
52.43
52.19
51.79
51.47
51.40
51.78
52.86
54.78
57.48
60.60
63.54
65.69
66.64
66.45
65.55
64.57
63.97
63.72
63.31
61.85
58.48
52.74
44.71
35.03
24.67
14.61
5.53
-2.37
-9.34
-16.02
-23.20
-31.51
-41.10
-51.60
-62.02
-71.11
-77.65
-80.84
-80.45
-76.86
-70.84
-63.29
-54.99
-46.43
-37.83
-29.13
-20.21
-11.01
-1.57
7.89
17.03
25.49
33.00
39.42
44.71
48.76
51.29
51.87
50.08
45.77
39.13
30.77
21.52
12.14
3.32
-4.45
-10.70
-15.04
-17.04
-16.39
-13.12
-7.66
-0.94
5.90
11.67
15.46
16.74
15.41
11.70
5.96
-1.43
-10.12
-19.76
-29.97
-40.34
-50.37
-59.47
-66.99
-72.25
-74.71
-74.12
-70.58
-64.59
-56.93
-48.43
-39.67
-30.94
-22.23
-13.40
-4.42
4.45
12.66
19.55
24.56
27.54
28.81
29.09
29.28
30.14
32.06
35.04
38.80
42.90
47.07
51.17
55.21
59.25
63.21
66.89
70.14
72.99
75.58
77.90
79.56
79.75
77.53
72.23
63.76
52.69
39.90
26.28
12.45
-1.22
-14.51
-27.16
-39.01
-50.02
-60.39
-70.48
-80.55
-90.49
-99.63
-106.88
-111.09
-111.42
-107.59
-100.17
-90.36
-79.66
-69.33
-60.00
-51.59
-43.47
-34.99
-25.77
-15.98
-6.19
2.82
10.35
15.95
19.57
21.48
22.24
22.51
22.87
23.67
24.91
26.30
27.40
27.87
27.53
26.48
24.97
23.24
21.45
19.61
17.74
15.87
14.16
12.77
11.78
11.14
10.65
10.11
9.43
8.69
8.04
7.59
7.35
7.12
6.72
5.91
4.56
2.56
-0.12
-3.53
-7.63
-12.14
-16.63
-20.48
-23.13
-24.26
-23.95
-22.62
-20.83
-19.04
-17.36
-15.60
-13.33
-10.23
-6.33
-2.04
1.91
4.78
6.06
5.72
4.07
1.73
-0.59
-2.20
-2.64
-1.76
0.26
2.95
5.76
8.17
9.88
10.87
11.30
11.52
11.90
12.75
14.23
16.21
18.23
19.65
19.96
19.05
17.48
16.30
16.56
18.78
22.60
26.89
30.22
31.52
30.33
27.06
22.47
17.47
12.70
8.39
4.37
0.05
-5.25
-12.15
-20.80
-30.76
-41.06
-50.54
-58.28
-63.86
-67.32
-68.97
-69.04
-67.57
-64.54
-60.06
-54.42
-48.11
-41.58
-35.11
-28.83
-22.80
-17.16
-12.03
-7.62
-3.94
-0.98
1.42
3.35
4.93
6.25
7.44
8.65
10.04
11.66
13.43
15.15
16.57
17.45
17.67
17.20
16.15
14.71
13.10
11.50
9.95
8.40
6.78
5.04
3.25
1.60
0.27
-0.62
-1.14
-1.58
-2.33
-3.73
-5.96
-8.93
-12.28
-15.45
-17.79
-18.74
-17.95
-15.45
-11.64
-7.18
-2.84
0.75
3.26
4.69
5.39
5.85
6.53
7.66
9.19
10.78
11.93
12.26
11.59
10.09
8.17
6.32
4.95
4.26
4.25
4.80
5.75
6.96
8.29
9.58
10.66
11.38
11.64
11.39
10.64
9.45
7.83
5.78
3.27
0.28
-3.13
-6.81
-10.54
-14.03
-17.01
-19.36
-21.07
-22.21
-22.89
-23.11
-22.87
-22.19
-21.16
-20.06
-19.22
-18.97
-19.48
-20.80
-22.71
-24.79
-26.40
-26.83
-25.46
-22.04
-16.81
-10.50
-4.18
1.17
4.94
7.06
7.89
7.96
7.63
6.97
5.73
3.53
0.16
-4.26
-9.32
-14.42
-19.15
-23.32
-27.07
-30.62
-34.07
-37.26
-39.86
-41.59
-42.36
-42.48
-42.42
-42.65
-43.37
-44.48
-45.65
-46.46
-46.77
-46.54
-45.97
-45.28
-44.76
-44.60
-44.97
-46.02
-47.77
-50.20
-53.21
-56.74
-60.83
-65.57
-71.14
-77.64
-85.07
-93.34
-102.27
-111.55
-120.68
-128.91
-135.24
-138.43
-137.26
-130.83
-118.93
-102.43
-83.20
-63.71
-46.33
-32.46
-22.05
-13.87
-6.25
2.16
11.73
22.02
32.42
42.65
52.68
62.20
70.17
75.22
76.82
76.33
77.16
83.29
97.13
117.79
141.18
161.83
175.44
180.75
179.45
174.66
169.02
163.47
157.40
149.71
139.92
128.73
117.68
108.34
101.53
96.90
92.96
87.79
79.95
69.23
56.56
43.39
30.63
18.29
5.92
-6.36
-17.23
-24.45
-26.10
-21.95
-13.82
-4.81
2.38
6.70
8.84
10.28
12.10
14.37
16.55
18.35
20.07
22.60
26.54
31.56
36.41
39.65
40.16
37.86
33.61
28.64
24.07
20.43
17.67
15.38
13.17
10.81
8.31
5.91
3.70
1.58
-0.81
-3.95
-8.19
-13.54
-19.61
-25.77
-31.36
-35.98
-39.56
-42.32
-44.62
-46.84
-49.28
-52.15
-55.49
-59.00
-62.07
-63.84
-63.50
-60.66
-55.61
-49.22
-42.54
-36.38
-30.88
-25.64
-20.04
-13.66
-6.56
0.70
7.35
12.67
16.20
17.92
18.14
17.41
16.34
15.39
14.78
14.50
14.37
14.19
13.85
13.25
12.33
10.95
8.92
6.10
2.58
-1.39
-5.37
-8.92
-11.75
-13.81
-15.29
-16.66
-18.45
-21.16
-24.97
-29.58
-34.25
-37.83
-39.17
-37.48
-32.55
-24.80
-15.08
-4.40
6.30
16.29
25.02
32.23
37.86
42.06
45.16
47.52
49.39
50.84
51.72
51.82
50.97
49.25
46.98
44.71
42.90
41.81
41.25
40.55
38.71
34.71
27.89
18.26
6.70
-5.33
-16.06
-24.08
-28.78
-30.58
-30.85
-31.44
-34.15
-40.10
-49.30
-60.47
-71.33
-79.27
-82.13
-79.02
-70.49
-58.40
-45.08
-32.58
-22.01
-13.48
-6.38
0.10
6.49
12.91
19.08
24.49
28.68
31.31
32.33
31.98
30.73
28.92
26.77
24.22
21.23
18.02
15.12
13.11
12.23
12.01
11.40
9.42
5.72
1.07
-3.06
-5.17
-4.49
-1.38
2.92
6.88
9.23
9.05
5.67
-1.54
-13.04
-28.66
-47.00
-65.03
-78.53
-83.26
-76.81
-59.65
-35.27
-8.77
15.16
33.82
46.93
55.82
61.90
65.72
66.96
65.28
61.07
55.74
51.02
48.12
47.08
46.91
46.43
44.93
42.48
39.65
37.09
34.98
32.97
30.31
26.17
20.13
12.43
3.90
-4.24
-10.94
-15.73
-18.87
-21.21
-23.81
-27.52
-32.70
-39.14
-46.07
-52.29
-56.47
-57.44
-54.56
-47.85
-38.05
-26.35
-14.02
-2.05
8.93
18.59
26.77
33.20
37.67
40.06
40.63
39.90
38.64
37.44
36.56
35.76
34.44
31.96
27.99
22.74
16.96
11.60
7.54
5.20
4.48
4.93
5.98
7.19
8.24
8.88
8.76
7.46
4.51
-0.38
-7.33
-16.20
-26.68
-38.17
-49.70
-59.82
-66.82
-69.16
-66.02
-57.75
-45.65
-31.63
-17.49
-4.47
6.91
16.66
24.98
32.03
37.83
42.32
45.48
47.37
48.13
47.91
46.89
45.25
43.23
41.10
39.09
37.48
36.43
35.97
35.88
35.69
34.75
32.41
28.25
22.13
14.30
5.20
-4.51
-14.22
-23.36
-31.59
-38.81
-45.19
-50.97
-56.27
-60.89
-64.21
-65.41
-63.69
-58.67
-50.54
-39.96
-27.93
-15.43
-3.29
7.96
17.94
26.37
32.95
37.43
39.62
39.59
37.65
34.41
30.56
26.76
23.51
20.98
19.15
17.84
16.77
15.65
14.25
12.28
9.58
6.05
1.78
-3.01
-7.98
-12.84
-17.44
-21.81
-26.21
-30.94
-36.28
-42.23
-48.41
-54.02
-57.99
-59.21
-56.93
-51.00
-42.00
-31.04
-19.39
-8.05
2.41
11.90
20.54
28.44
35.48
41.34
45.66
48.21
49.02
48.35
46.59
44.12
41.18
37.91
34.45
31.01
27.92
25.46
23.70
22.35
20.81
18.39
14.65
9.60
3.66
-2.53
-8.46
-13.90
-18.93
-23.84
-28.99
-34.65
-41.04
-48.17
-55.71
-62.85
-68.39
-70.96
-69.49
-63.65
-53.98
-41.78
-28.61
-15.79
-4.09
6.30
15.49
23.67
30.80
36.69
41.07
43.80
45.01
45.01
44.19
42.85
41.16
39.14
36.76
34.12
31.43
28.98
26.98
25.44
24.12
22.58
20.35
17.13
12.89
7.89
2.60
-2.50
-7.06
-10.99
-14.44
-17.75
-21.30
-25.44
-30.38
-36.15
-42.47
-48.64
-53.56
-56.00
-54.87
-49.76
-41.02
-29.73
-17.31
-5.05
6.24
16.27
25.11
32.85
39.41
44.56
48.02
49.69
49.75
48.56
46.67
44.50
42.37
40.40
38.57
36.81
35.04
33.20
31.18
28.92
26.38
23.56
20.56
17.47
14.33
11.05
7.45
3.30
-1.52
-6.92
-12.61
-18.20
-23.29
-27.60
-31.11
-33.91
-36.35
-38.88
-41.94
-45.84
-50.49
-55.32
-59.24
-60.97
-59.47
-54.30
-45.75
-34.73
-22.36
-9.63
2.74
14.25
24.43
32.75
38.69
42.00
42.87
41.97
40.24
38.53
37.39
36.90
36.80
36.70
36.28
35.41
34.08
32.40
30.42
28.20
25.70
23.00
20.17
17.36
14.66
12.10
9.59
7.00
4.13
0.85
-2.95
-7.22
-11.74
-16.21
-20.34
-23.95
-27.07
-30.00
-33.12
-36.81
-41.27
-46.35
-51.57
-56.13
-58.99
-59.24
-56.27
-50.08
-41.40
-31.40
-21.38
-12.26
-4.41
2.37
8.51
14.37
20.00
25.12
29.34
32.35
34.10
34.74
34.52
33.66
32.33
30.63
28.69
26.71
24.95
23.65
22.93
22.70
22.64
22.28
21.23
19.28
16.52
13.32
10.12
7.29
5.02
3.26
1.75
0.19
-1.72
-4.16
-7.20
-10.74
-14.54
-18.27
-21.65
-24.44
-26.70
-28.71
-30.89
-33.65
-37.16
-41.19
-45.12
-48.03
-48.95
-47.22
-42.61
-35.49
-26.63
-17.06
-7.75
0.63
7.75
13.58
18.28
22.03
24.96
27.17
28.77
29.90
30.69
31.24
31.53
31.49
31.03
30.28
29.52
29.26
29.91
31.59
33.93
36.11
37.08
36.10
33.16
29.00
24.70
21.29
19.36
19.19
20.81
24.01
27.97
31.19
31.73
28.02
19.78
8.52
-3.10
-12.51
-18.65
-22.44
-26.09
-31.85
-40.85
-52.86
-66.99
-82.37
-98.43
-114.28
-128.41
-138.62
-142.82
-140.10
-131.27
-118.86
-106.15
-96.11
-90.51
-89.60
-92.09
-95.62
-97.62
-96.13
-90.70
-82.61
-74.19
-67.82
-64.83
-64.87
-66.42
-67.80
-67.98
-66.91
-65.15
-63.24
-61.32
-59.32
-57.14
-54.55
-50.63
-43.39
-30.26
-9.39
18.78
50.76
80.99
103.88
115.95
116.98
109.52
97.37
84.06
72.10
62.98
57.66
56.78
60.23
67.01
75.13
82.24
86.54
87.31
84.73
79.43
72.14
63.56
54.65
46.72
41.22
38.99
39.95
42.97
46.43
49.05
50.47
51.22
52.21
53.97
56.27
58.28
59.06
58.18
55.89
52.95
50.22
48.23
47.04
46.33
45.63
44.47
42.57
39.85
36.35
32.15
27.30
21.84
15.88
9.59
3.22
-2.89
-8.40
-13.09
-16.92
-20.03
-22.79
-25.60
-28.71
-32.06
-35.17
-37.21
-37.42
-35.31
-31.00
-25.19
-18.85
-12.95
-8.09
-4.38
-1.53
0.84
3.06
5.17
6.99
8.28
8.88
8.79
8.25
7.51
6.75
5.95
4.90
3.33
1.09
-1.71
-4.70
-7.45
-9.53
-10.67
-10.87
-10.43
-9.85
-9.75
-10.63
-12.70
-15.78
-19.39
-22.94
-26.02
-28.53
-30.68
-32.86
-35.42
-38.48
-41.90
-45.29
-48.05
-49.50
-49.07
-46.46
-41.81
-35.68
-28.85
-22.16
-16.26
-11.40
-7.52
-4.26
-1.18
2.05
5.55
9.10
12.26
14.59
15.90
16.37
16.42
16.53
16.85
17.16
17.05
16.15
14.39
12.02
9.33
6.45
3.30
-0.43
-4.94
-10.13
-15.60
-20.83
-25.32
-28.83
-31.39
-33.16
-34.48
-35.67
-37.02
-38.84
-41.34
-44.61
-48.58
-52.85
-56.76
-59.45
-60.02
-57.80
-52.60
-44.81
-35.30
-25.23
-15.62
-7.15
-0.00
6.01
11.29
16.07
20.41
24.17
27.04
28.85
29.54
29.24
28.24
26.93
25.62
24.57
23.89
23.46
23.09
22.52
21.56
20.15
18.38
16.33
14.05
11.48
8.54
5.22
1.68
-1.82
-5.03
-7.85
-10.37
-12.77
-15.28
-18.00
-20.97
-24.21
-27.78
-31.76
-36.08
-40.40
-44.00
-45.89
-45.11
-41.09
-33.86
-24.13
-13.02
-1.78
8.59
17.57
25.02
31.07
35.93
39.70
42.40
43.98
44.47
43.96
42.60
40.62
38.25
35.68
33.09
30.59
28.26
26.18
24.39
22.97
21.92
21.20
20.58
19.71
18.24
15.97
12.94
9.37
5.63
2.06
-1.16
-4.01
-6.61
-9.16
-11.92
-15.04
-18.61
-22.50
-26.37
-29.63
-31.64
-31.84
-29.93
-25.92
-20.15
-13.18
-5.70
1.59
8.15
13.67
18.09
21.52
24.14
26.08
27.44
28.22
28.43
28.15
27.50
26.60
25.51
24.27
22.86
21.35
19.89
18.64
17.68
16.92
16.08
14.74
12.54
9.34
5.33
1.04
-2.93
-6.07
-8.24
-9.70
-10.97
-12.65
-15.15
-18.56
-22.61
-26.75
-30.30
-32.54
-32.90
-31.04
-26.98
-21.15
-14.31
-7.30
-0.89
4.55
9.04
12.89
16.45
19.86
22.97
25.37
26.60
26.43
25.01
22.79
20.48
18.63
17.55
17.28
17.51
17.86
18.02
17.79
17.08
15.91
14.39
12.80
11.52
10.83
10.75
10.82
10.32
8.55
5.26
0.81
-3.94
-8.09
-11.17
-13.30
-15.08
-17.12
-19.71
-22.61
-25.16
-26.61
-26.44
-24.47
-20.85
-15.97
-10.41
-4.62
0.94
6.00
10.34
13.83
16.32
17.74
18.10
17.51
16.25
14.66
13.08
11.75
10.79
10.14
9.65
9.15
8.45
7.52
6.43
5.31
4.37
3.72
3.34
3.02
2.41
1.21
-0.72
-3.25
-6.05
-8.70
-10.89
-12.48
-13.60
-14.51
-15.48
-16.74
-18.35
-20.27
-22.24
-23.87
-24.63
-24.01
-21.72
-17.81
-12.73
-7.22
-2.10
2.00
4.87
6.71
8.13
9.76
12.04
14.89
17.86
20.23
21.32
20.82
18.85
15.88
12.54
9.39
6.71
4.58
2.85
1.41
0.15
-1.00
-2.09
-3.23
-4.54
-6.15
-8.11
-10.37
-12.74
-14.95
-16.77
-18.02
-18.69
-18.90
-18.92
-19.02
-19.49
-20.50
-22.06
-24.03
-26.10
-27.85
-28.83
-28.65
-27.03
-23.97
-19.70
-14.63
-9.33
-4.27
0.17
3.86
6.89
9.44
11.68
13.61
15.15
16.11
16.37
15.95
15.03
13.86
12.62
11.41
10.17
8.90
7.59
6.35
5.35
4.74
4.52
4.55
4.58
4.29
3.44
2.01
0.13
-1.87
-3.61
-4.84
-5.54
-5.95
-6.50
-7.59
-9.45
-12.05
-15.14
-18.29
-21.05
-22.94
-23.50
-22.42
-19.60
-15.21
-9.75
-3.90
1.69
6.55
10.47
13.48
15.69
17.27
18.30
18.84
18.92
18.56
17.77
16.57
15.03
13.30
11.56
10.07
9.00
8.35
8.00
7.72
7.30
6.65
5.85
5.13
4.69
4.65
4.92
5.23
5.21
4.56
3.09
0.79
-2.14
-5.41
-8.62
-11.40
-13.47
-14.72
-15.24
-15.36
-15.54
-16.26
-17.78
-19.99
-22.32
-23.93
-24.02
-22.13
-18.42
-13.51
-8.31
-3.62
0.21
3.23
5.82
8.38
11.10
13.91
16.47
18.44
19.50
19.58
18.75
17.21
15.24
13.12
11.17
9.68
8.89
8.88
9.52
10.52
11.46
11.99
11.85
11.05
9.76
8.24
6.79
5.56
4.56
3.66
2.66
1.39
-0.21
-2.05
-3.96
-5.76
-7.38
-8.89
-10.51
-12.49
-15.04
-18.22
-21.85
-25.45
-28.30
-29.69
-29.06
-26.31
-21.82
-16.34
-10.73
-5.69
-1.50
1.96
5.00
7.90
10.66
13.05
14.67
15.29
14.92
13.82
12.33
10.71
9.01
7.18
5.26
3.42
2.01
1.34
1.46
2.04
2.60
2.70
2.18
1.20
0.08
-0.86
-1.53
-2.04
-2.55
-3.20
-3.99
-4.89
-5.83
-6.83
-7.90
-9.02
-10.11
-11.07
-11.91
-12.75
-13.84
-15.41
-17.56
-20.18
-22.86
-25.05
-26.09
-25.48
-22.99
-18.76
-13.32
-7.39
-1.69
3.27
7.33
10.63
13.40
15.85
17.99
19.68
20.79
21.28
21.28
21.00
20.64
20.24
19.77
19.08
18.10
16.82
15.40
13.97
12.64
11.40
10.16
8.82
7.29
5.61
3.85
2.09
0.35
-1.38
-3.15
-5.01
-6.93
-8.84
-10.63
-12.25
-13.65
-14.85
-15.97
-17.15
-18.56
-20.33
-22.52
-25.06
-27.74
-30.15
-31.72
-31.85
-30.05
-26.16
-20.49
-13.75
-6.89
-0.80
3.96
7.27
9.39
10.80
11.91
12.97
14.00
14.84
15.30
15.28
14.85
14.18
13.47
12.78
12.04
11.11
9.96
8.76
7.90
7.79
8.61
10.11
11.65
12.37
11.53
8.83
4.51
-0.68
-5.77
-9.89
-12.50
-13.57
-13.55
-13.16
-13.10
-13.80
-15.28
-17.20
-19.09
-20.47
-21.14
-21.00
-20.07
-18.23
-15.23
-10.74
-4.50
3.45
12.64
22.30
31.58
39.76
46.56
52.00
56.14
58.93
60.39
61.15
62.70
67.17
76.21
89.73
105.45
119.79
129.68
134.30
135.50
136.59
140.21
146.64
153.44
156.68
152.70
139.67
117.94
89.66
57.77
25.23
-5.45
-32.59
-55.65
-74.97
-91.48
-106.10
-119.22
-130.76
-140.49
-148.32
-154.37
-158.69
-160.93
-160.52
-157.07
-150.98
-143.54
-136.32
-130.23
-124.68
-117.63
-106.58
-90.07
-68.83
-45.80
-24.95
-9.61
-1.17
1.06
-0.93
-5.24
-10.91
-17.94
-26.45
-35.82
-44.49
-50.53
-52.69
-51.27
-47.98
-45.16
-44.68
-47.05
-51.44
-56.21
-59.60
-60.41
-58.22
-53.38
-46.77
-39.58
-33.07
-28.38
-26.23
-26.73
-29.27
-32.66
-35.50
-36.67
-35.74
-33.08
-29.60
-26.34
-24.10
-23.19
-23.62
-25.01
-26.66
-27.62
-26.81
-23.71
-18.66
-13.00
-8.44
-6.18
-6.14
-7.16
-7.75
-6.93
-4.55
-0.72
4.82
12.98
24.56
39.17
54.65
67.49
74.30
73.28
64.95
51.58
36.06
20.80
7.17
-4.38
-13.96
-21.89
-28.52
-34.06
-38.50
-41.50
-42.49
-40.83
-36.09
-28.28
-17.81
-5.44
7.88
21.14
33.43
44.12
52.92
59.98
65.63
70.22
73.93
76.62
78.04
78.08
76.85
74.73
72.19
69.52
66.77
63.90
60.95
58.21
56.19
55.36
55.84
57.25
58.72
59.22
58.02
54.98
50.67
46.15
42.42
40.02
38.62
37.08
33.75
27.17
16.60
2.50
-13.46
-28.73
-40.42
-45.92
-43.67
-33.61
-17.40
2.02
21.33
37.87
50.38
59.20
65.66
71.17
76.39
80.84
83.33
82.71
78.57
71.44
62.41
52.39
41.75
30.53
18.95
8.07
-0.30
-4.32
-3.26
1.85
8.57
14.48
18.32
20.21
20.75
20.18
18.27
15.12
12.07
11.42
15.30
24.33
37.15
51.35
64.56
75.25
82.38
84.58
79.85
66.16
42.85
11.61
-23.67
-58.36
-88.61
-112.06
-127.47
-134.05
-131.41
-120.14
-102.45
-81.84
-62.16
-46.16
-34.81
-27.46
-22.74
-19.39
-16.70
-14.53
-12.90
-11.86
-11.26
-11.02
-11.29
-12.39
-14.71
-18.45
-23.36
-28.79
-33.86
-37.76
-40.04
-40.76
-40.53
-40.44
-41.71
-45.26
-51.25
-58.81
-66.16
-71.12
-72.03
-68.34
-61.05
-52.25
-44.46
-39.66
-38.71
-41.26
-46.10
-51.93
-58.07
-64.70
-72.68
-82.96
-95.79
-110.30
-124.64
-136.68
-144.87
-149.09
-150.65
-151.73
-154.31
-159.25
-165.97
-172.99
-178.61
-181.39
-180.17
-173.68
-160.35
-138.45
-106.61
-64.51
-13.01
46.20
111.12
179.50
248.16
312.17
364.70
398.29
407.20
389.90
350.29
296.66
239.00
185.66
140.94
104.57
73.16
42.98
12.40
-16.80
-40.27
-53.27
-53.18
-40.84
-20.27
3.30
25.64
44.49
59.08
68.71
72.01
67.48
54.91
36.44
16.22
-1.41
-14.00
-21.69
-26.21
-28.94
-29.45
-25.57
-14.95
3.21
27.35
53.81
78.09
96.00
104.47
102.02
88.90
67.07
39.89
11.35
-14.88
-36.15
-51.01
-58.86
-59.49
-52.93
-39.75
-21.62
-1.42
17.19
30.96
38.11
38.94
35.45
30.36
26.00
23.57
23.26
24.60
27.09
30.16
33.04
34.84
35.09
34.44
34.74
38.10
45.12
53.44
57.70
51.49
30.22
-6.30
-52.85
-99.96
-136.65
-153.80
-146.94
-117.75
-73.76
-26.24
13.24
36.51
41.23
31.03
13.31
-4.19
-16.31
-21.57
-21.18
-17.17
-10.95
-3.16
5.57
13.78
19.16
19.54
14.03
3.73
-8.60
-19.75
-27.49
-31.35
-32.61
-33.50
-35.98
-40.91
-47.77
-55.01
-60.80
-63.75
-63.35
-60.07
-55.22
-50.38
-46.79
-44.81
-43.79
-42.41
-39.29
-33.77
-26.17
-17.71
-9.97
-4.35
-1.65
-2.02
-5.08
-10.02
-15.74
-20.85
-23.73
-22.81
-16.95
-5.84
9.74
28.03
46.79
63.88
77.73
87.66
93.70
96.60
97.55
98.11
99.92
104.08
110.38
116.84
120.09
116.52
103.88
82.41
54.69
24.42
-5.22
-32.71
-58.17
-82.28
-105.13
-125.52
-141.30
-150.33
-151.41
-144.85
-132.36
-116.50
-100.02
-85.20
-73.17
-63.87
-56.09
-48.27
-39.35
-29.45
-19.69
-11.29
-4.57
1.68
9.52
20.57
34.64
49.60
62.35
70.50
73.52
72.57
69.47
65.58
61.53
57.80
55.45
56.04
60.65
68.62
77.05
81.80
79.34
68.33
50.12
27.74
4.54
-16.94
-34.96
-48.18
-55.23
-54.94
-47.06
-32.83
-14.98
3.13
18.56
29.62
36.21
39.50
41.23
42.98
45.56
48.75
51.43
52.17
49.89
44.52
37.09
29.30
22.74
18.10
14.80
11.31
6.01
-2.01
-12.33
-23.32
-32.64
-38.10
-38.45
-33.93
-26.30
-18.20
-12.47
-11.05
-14.49
-21.82
-31.11
-40.40
-48.52
-55.36
-61.62
-68.18
-75.31
-82.59
-89.17
-94.48
-98.75
-103.32
-110.48
-123.09
-144.24
-176.61
-221.46
-277.29
-338.98
-398.25
-445.54
-472.98
-476.93
-458.96
-424.80
-381.76
-335.94
-290.68
-246.66
-203.12
-159.40
-115.80
-73.34
-32.92
5.36
42.66
80.98
121.88
165.04
207.00
241.47
261.54
263.34
248.94
226.89
209.27
206.61
223.25
255.57
294.10
328.03
349.74
356.94
351.73
337.84
318.36
295.25
270.41
246.83
228.46
218.75
219.09
228.17
242.32
256.92
267.89
272.44
269.12
257.52
237.96
211.33
179.14
143.32
105.84
68.38
31.88
-3.25
-36.89
-68.86
-98.88
-126.41
-150.47
-169.83
-183.14
-189.40
-188.27
-180.26
-166.55
-148.73
-128.57
-107.77
-87.95
-70.48
-56.52
-46.76
-41.28
-39.62
-40.79
-43.44
-46.16
-47.79
-47.62
-45.52
-41.88
-37.37
-32.72
-28.44
-24.74
-21.55
-18.78
-16.35
-14.35
-12.86
-11.95
-11.65
-11.89
-12.68
-14.00
-15.87
-18.25
-21.07
-24.17
-27.40
-30.62
-33.77
-36.86
-39.96
-43.21
-46.72
-50.49
-54.34
-57.73
-59.88
-59.92
-57.25
-51.75
-43.86
-34.47
-24.55
-14.89
-5.86
2.51
10.34
17.66
24.37
30.17
34.76
37.99
39.91
40.78
40.93
40.69
40.23
39.61
38.79
37.73
36.48
35.14
33.88
32.70
31.52
30.15
28.40
26.16
23.43
20.29
16.83
13.12
9.18
5.06
0.85
-3.32
-7.31
-11.05
-14.57
-18.06
-21.82
-26.21
-31.48
-37.62
-44.15
-50.14
-54.37
-55.66
-53.33
-47.46
-38.80
-28.51
-17.71
-7.20
2.69
11.89
20.44
28.24
35.12
40.87
45.45
48.85
51.16
52.46
52.80
52.23
50.86
48.91
46.63
44.33
42.22
40.38
38.79
37.27
35.57
33.37
30.45
26.74
22.42
17.84
13.36
9.20
5.32
1.50
-2.54
-6.99
-11.83
-16.92
-22.02
-26.93
-31.49
-35.69
-39.58
-43.37
-47.41
-52.12
-57.73
-64.01
-70.18
-74.89
-76.65
-74.32
-67.57
-57.00
-44.01
-30.19
-16.85
-4.74
6.04
15.75
24.64
32.78
40.00
45.96
50.47
53.48
55.10
55.60
55.23
54.13
52.45
50.28
47.79
45.19
42.74
40.59
38.84
37.41
36.11
34.67
32.75
30.14
26.74
22.70
18.32
13.98
9.95
6.28
2.87
-0.56
-4.29
-8.41
-12.80
-17.19
-21.27
-24.89
-28.11
-31.10
-34.13
-37.45
-41.25
-45.68
-50.87
-56.71
-62.75
-68.04
-71.31
-71.33
-67.36
-59.53
-48.78
-36.50
-23.99
-12.07
-1.00
9.28
18.86
27.62
35.22
41.28
45.55
48.11
49.22
49.29
48.67
47.54
46.02
44.17
42.17
40.25
38.74
37.81
37.41
37.18
36.57
35.01
32.21
28.23
23.48
18.57
14.02
10.02
6.44
2.87
-1.06
-5.53
-10.34
-14.98
-18.81
-21.33
-22.38
-22.19
-21.48
-21.22
-22.39
-25.70
-31.20
-38.11
-44.93
-49.74
-50.87
-47.46
-39.73
-28.90
-16.65
-4.56
6.46
16.24
25.16
33.72
42.04
49.79
56.28
60.76
62.76
62.30
59.92
56.45
52.81
49.71
47.51
46.23
45.67
45.50
45.44
45.24
44.71
43.64
41.78
38.89
34.83
29.75
24.03
18.26
12.98
8.50
4.75
1.34
-2.20
-6.22
-10.74
-15.44
-19.82
-23.46
-26.30
-28.61
-30.99
-34.12
-38.45
-44.02
-50.36
-56.57
-61.48
-63.96
-63.16
-58.79
-51.24
-41.39
-30.41
-19.38
-9.09
0.15
8.27
15.39
21.60
26.89
31.19
34.43
36.59
37.75
38.12
37.85
37.13
36.04
34.66
33.04
31.28
29.50
27.86
26.47
25.26
24.05
22.50
20.25
17.09
12.98
8.15
3.02
-1.91
-6.21
-9.65
-12.33
-14.62
-16.99
-19.89
-23.50
-27.64
-31.89
-35.69
-38.60
-40.50
-41.55
-42.16
-42.81
-43.91
-45.67
-48.05
-50.68
-52.92
-53.93
-52.92
-49.44
-43.55
-35.88
-27.38
-18.99
-11.35
-4.65
1.29
6.80
12.12
17.24
22.00
26.13
29.40
31.68
33.00
33.43
33.12
32.24
30.97
29.52
28.11
26.91
26.04
25.55
25.32
25.16
24.75
23.79
22.02
19.37
16.05
12.48
9.16
6.46
4.49
3.03
1.71
0.11
-2.02
-4.70
-7.81
-11.11
-14.37
-17.37
-19.96
-22.10
-23.96
-25.88
-28.29
-31.55
-35.74
-40.52
-45.17
-48.71
-50.27
-49.28
-45.77
-40.33
-33.97
-27.74
-22.43
-18.29
-14.96
-11.79
-8.11
-3.68
1.25
5.96
9.65
11.72
12.10
11.25
9.97
9.02
8.87
9.46
10.27
10.58
9.83
7.92
5.30
2.77
1.16
0.90
1.88
3.45
4.78
5.21
4.57
3.12
1.42
-0.05
-1.09
-1.87
-2.72
-3.94
-5.65
-7.72
-9.93
-12.07
-14.11
-16.14
-18.38
-21.01
-24.09
-27.54
-31.10
-34.35
-36.83
-38.01
-37.50
-35.19
-31.29
-26.28
-20.74
-15.19
-9.92
-5.01
-0.48
3.62
7.12
9.87
11.86
13.33
14.68
16.22
18.13
20.31
22.57
24.75
26.89
29.10
31.49
34.00
36.35
38.23
39.46
40.05
40.12
39.80
39.05
37.76
35.83
33.29
30.36
27.31
24.30
21.23
17.83
13.76
8.87
3.29
-2.66
-8.55
-14.08
-19.14
-23.90
-28.63
-33.58
-38.79
-43.96
-48.44
-51.39
-52.06
-50.03
-45.44
-38.99
-31.67
-24.51
-18.23
-13.09
-8.90
-5.22
-1.67
1.94
5.45
8.42
10.39
11.05
10.42
8.84
6.80
4.80
3.21
2.15
1.55
1.13
0.47
-0.89
-3.29
-6.74
-10.86
-14.92
-18.04
-19.63
-19.57
-18.33
-16.84
-16.10
-16.83
-19.23
-22.94
-27.13
-30.87
-33.36
-34.27
-33.82
-32.77
-32.17
-32.91
-35.43
-39.44
-44.02
-47.91
-50.02
-49.76
-47.23
-43.14
-38.40
-33.85
-29.91
-26.42
-22.76
-18.11
-11.84
-3.81
5.53
15.37
24.82
33.35
40.87
47.65
54.04
60.25
66.24
71.83
76.91
81.53
85.84
89.96
93.73
96.71
98.29
97.88
95.26
90.71
84.93
78.85
73.15
67.98
62.85
56.85
49.07
38.99
26.69
12.73
-2.04
-16.72
-30.48
-42.54
-52.11
-58.62
-61.82
-62.00
-60.04
-57.02
-53.94
-51.30
-49.06
-46.81
-44.09
-40.70
-36.76
-32.64
-28.72
-25.31
-22.59
-20.61
-19.41
-18.90
-18.95
-19.27
-19.57
-19.52
-19.01
-18.06
-16.93
-15.96
-15.46
-15.68
-16.65
-18.30
-20.37
-22.57
-24.66
-26.50
-28.14
-29.76
-31.64
-34.02
-37.04
-40.69
-44.75
-48.75
-52.00
-53.72
-53.17
-49.95
-44.19
-36.55
-28.06
-19.74
-12.23
-5.73
-0.02
5.21
10.08
14.41
17.83
19.96
20.69
20.24
19.10
17.89
17.17
17.31
18.38
20.22
22.47
24.58
26.04
26.44
25.54
23.46
20.47
17.02
13.56
10.39
7.64
5.23
3.07
1.01
-1.02
-3.17
-5.63
-8.62
-12.29
-16.45
-20.55
-23.67
-24.78
-23.19
-18.80
-12.22
-4.52
3.06
9.63
14.87
19.02
22.60
26.01
29.30
32.15
34.12
34.87
34.42
33.09
31.43
29.87
28.59
27.53
26.39
24.94
23.11
21.00
18.82
16.76
14.86
12.97
10.86
8.32
5.23
1.67
-2.17
-6.00
-9.54
-12.61
-15.10
-17.06
-18.68
-20.27
-22.18
-24.71
-27.97
-31.80
-35.67
-38.80
-40.27
-39.39
-35.86
-30.02
-22.67
-14.86
-7.48
-1.00
4.59
9.56
14.23
18.75
23.04
26.87
30.01
32.28
33.60
33.98
33.51
32.35
30.73
28.99
27.43
26.26
25.56
25.24
25.11
24.91
24.41
23.45
22.01
20.13
17.93
15.56
13.11
10.66
8.21
5.80
3.45
1.26
-0.76
-2.61
-4.41
-6.35
-8.65
-11.48
-14.90
-18.83
-22.99
-27.05
-30.62
-33.39
-35.30
-36.57
-37.69
-39.25
-41.71
-45.10
-48.86
-52.01
-53.31
-51.84
-47.22
-39.83
-30.64
-20.92
-11.84
-4.08
2.18
7.23
11.58
15.72
19.86
23.93
27.60
30.48
32.34
33.17
33.17
32.63
31.73
30.55
29.00
27.00
24.55
21.78
18.91
16.11
13.48
10.99
8.60
6.32
4.30
2.79
2.04
2.14
2.90
3.91
4.55
4.30
2.81
0.17
-3.28
-6.97
-10.37
-13.18
-15.39
-17.30
-19.39
-22.20
-26.02
-30.77
-35.87
-40.26
-42.70
-42.11
-37.94
-30.43
-20.54
-9.71
0.66
9.54
16.57
22.04
26.60
30.91
35.32
39.72
43.67
46.61
48.17
48.26
47.12
45.16
42.76
40.19
37.48
34.63
31.58
28.36
25.07
21.82
18.68
15.66
12.71
9.71
6.60
3.37
0.12
-2.99
-5.80
-8.28
-10.55
-12.82
-15.34
-18.20
-21.32
-24.40
-27.09
-29.15
-30.66
-31.94
-33.48
-35.67
-38.69
-42.37
-46.35
-50.15
-53.38
-55.69
-56.76
-56.39
-54.39
-50.77
-45.67
-39.39
-32.21
-24.31
-15.83
-6.86
2.21
10.77
18.09
23.54
26.95
28.67
29.48
30.20
31.47
33.43
35.79
38.02
39.64
40.33
40.09
39.10
37.65
36.00
34.31
32.63
30.96
29.16
27.10
24.61
21.61
18.09
14.20
10.11
5.95
1.70
-2.92
-8.20
-14.37
-21.42
-29.01
-36.54
-43.43
-49.31
-54.17
-58.38
-62.44
-66.86
-71.89
-77.46
-83.18
-88.36
-92.14
-93.66
-92.24
-87.58
-79.94
-70.15
-59.38
-48.74
-38.96
-30.08
-21.59
-12.82
-3.46
6.12
14.73
20.71
22.62
19.83
12.94
3.71
-5.53
-12.65
-16.46
-16.93
-15.05
-12.22
-9.58
-7.69
-6.45
-5.54
-4.78
-4.25
-4.02
-3.75
-2.55
0.87
7.54
17.66
30.31
43.78
56.31
66.80
75.14
81.84
87.47
92.08
95.11
95.75
93.48
88.42
81.33
73.34
65.57
58.96
54.27
52.11
52.97
57.06
64.10
73.21
83.13
92.58
100.60
106.74
110.76
112.26
110.46
104.21
92.57
75.48
54.27
31.57
10.63
-5.76
-16.09
-20.49
-20.37
-17.75
-14.55
-12.15
-11.29
-12.18
-14.59
-18.05
-21.89
-25.46
-28.35
-30.54
-32.39
-34.38
-36.79
-39.45
-41.81
-43.26
-43.58
-43.31
-43.68
-46.19
-51.74
-60.05
-69.58
-78.17
-83.91
-86.10
-85.32
-82.87
-79.94
-76.83
-72.96
-67.40
-59.64
-50.01
-39.76
-30.56
-23.94
-20.86
-21.55
-25.45
-31.39
-37.75
-42.70
-44.56
-42.10
-34.94
-23.60
-9.38
6.01
21.07
34.87
47.41
59.38
71.82
85.57
100.66
116.15
130.22
140.59
145.18
142.64
132.67
116.08
94.56
70.11
44.60
19.34
-4.95
-28.01
-49.68
-69.74
-87.78
-103.25
-115.71
-124.83
-130.43
-132.45
-130.77
-125.40
-116.55
-104.94
-91.74
-78.33
-65.75
-54.31
-43.31
-31.31
-16.84
0.96
21.92
44.77
67.52
87.97
104.06
114.24
117.61
114.16
104.88
91.79
77.56
64.92
55.92
51.34
50.63
52.40
55.07
57.49
59.23
60.20
60.43
59.71
57.75
54.41
49.97
45.07
40.40
36.36
32.82
29.28
25.18
20.26
14.72
9.20
4.62
1.94
1.96
5.00
10.86
18.75
27.61
36.36
44.33
51.41
57.89
64.24
70.68
77.09
83.01
87.85
91.16
92.84
93.14
92.55
91.60
90.55
89.22
87.01
83.05
76.59
67.32
55.54
42.07
28.04
14.41
1.68
-10.24
-21.86
-33.76
-46.26
-59.23
-72.14
-84.22
-94.70
-102.91
-108.30
-110.53
-109.55
-105.70
-99.91
-93.59
-88.32
-85.36
-85.19
-87.27
-90.30
-92.85
-94.01
-93.85
-93.30
-93.72
-96.28
-101.44
-108.77
-117.09
-124.67
-129.58
-129.98
-124.46
-112.41
-94.14
-70.89
-44.45
-16.77
10.41
35.70
58.04
76.68
91.22
101.65
108.43
112.19
113.52
112.76
110.13
105.91
100.75
95.68
91.80
89.80
89.64
90.46
90.77
88.93
83.51
73.57
58.94
40.34
19.27
-2.35
-22.79
-41.20
-57.91
-74.19
-91.50
-110.45
-130.31
-149.24
-165.10
-176.62
-183.85
-188.17
-191.35
-194.86
-199.29
-204.52
-210.00
-214.95
-218.27
-218.28
-212.75
-199.47
-177.11
-146.03
-108.61
-68.64
-30.25
3.30
30.32
50.79
65.80
76.87
85.23
91.67
96.52
99.85
101.68
102.10
101.30
99.53
97.02
93.94
90.35
86.25
81.57
76.30
70.45
64.11
57.40
50.38
43.05
35.42
27.65
20.13
13.42
8.08
4.39
2.15
0.81
-0.28
-1.51
-2.79
-3.77
-4.20
-4.30
-4.76
-6.40
-9.73
-14.67
-20.70
-27.31
-34.30
-41.82
-50.01
-58.64
-66.98
-74.11
-79.32
-82.45
-83.72
-83.51
-82.11
-79.88
-77.32
-75.01
-73.33
-72.10
-70.74
-68.71
-66.02
-63.36
-61.51
-60.48
-58.93
-54.24
-43.43
-24.42
3.06
37.30
75.21
113.37
148.86
179.75
205.02
224.13
236.37
240.71
236.18
222.46
200.50
172.25
140.11
106.14
71.72
37.88
5.75
-23.31
-48.24
-68.95
-86.67
-103.28
-120.05
-136.56
-150.57
-158.99
-159.44
-151.29
-135.84
-115.68
-93.65
-72.04
-52.16
-34.35
-18.15
-2.82
12.19
26.90
40.69
52.68
62.23
69.34
74.65
79.04
83.09
86.72
89.33
90.20
89.05
86.24
82.53
78.73
75.28
72.03
68.38
63.72
57.80
50.97
43.99
37.77
32.83
29.18
26.29
23.42
19.98
15.76
10.99
6.19
1.85
-1.73
-4.57
-6.98
-9.39
-12.15
-15.40
-19.02
-22.69
-26.06
-28.87
-31.08
-32.80
-34.29
-35.74
-37.40
-39.50
-42.23
-45.59
-49.18
-52.15
-53.36
-51.82
-47.06
-39.46
-30.08
-20.25
-11.09
-3.16
3.51
9.22
14.25
18.62
22.13
24.52
25.73
25.94
25.53
24.95
24.46
24.14
23.75
23.04
21.80
20.09
18.20
16.49
15.29
14.60
14.20
13.73
12.83
11.30
9.20
6.74
4.25
2.04
0.26
-1.15
-2.42
-3.89
-5.90
-8.67
-12.16
-16.11
-20.16
-23.99
-27.44
-30.53
-33.50
-36.63
-40.26
-44.61
-49.73
-55.37
-60.89
-65.31
-67.44
-66.31
-61.44
-53.11
-42.31
-30.43
-18.78
-8.26
0.80
8.53
15.21
21.08
26.14
30.28
33.40
35.48
36.64
37.03
36.82
36.07
34.68
32.49
29.34
25.27
20.59
15.91
11.90
9.07
7.47
6.76
6.33
5.68
4.64
3.42
2.34
1.57
0.96
0.11
-1.42
-3.80
-6.81
-9.97
-12.78
-14.88
-16.26
-17.10
-17.67
-18.18
-18.77
-19.56
-20.71
-22.38
-24.51
-26.70
-28.03
-27.32
-23.54
-16.32
-6.18
5.54
17.17
27.34
35.31
41.10
45.17
48.08
50.19
51.63
52.43
52.65
52.47
52.07
51.49
50.63
49.24
47.07
44.09
40.54
36.98
34.07
32.31
31.83
32.27
32.81
32.52
30.69
27.10
22.12
16.49
11.02
6.22
2.22
-1.25
-4.56
-8.00
-11.61
-15.22
-18.62
-21.57
-24.06
-26.21
-28.34
-30.85
-34.10
-38.28
-43.23
-48.37
-52.78
-55.42
-55.39
-52.22
-46.03
-37.41
-27.36
-16.87
-6.83
2.27
10.31
17.39
23.77
29.59
34.84
39.33
42.82
45.09
46.05
45.81
44.58
42.66
40.33
37.88
35.52
33.42
31.68
30.33
29.30
28.45
27.59
26.51
25.06
23.17
20.82
18.09
15.04
11.72
8.18
4.59
1.19
-1.74
-4.00
-5.69
-7.15
-8.85
-11.13
-13.99
-17.16
-20.25
-23.09
-25.78
-28.59
-31.80
-35.50
-39.61
-43.99
-48.53
-53.10
-57.41
-60.81
-62.36
-61.07
-56.37
-48.40
-38.02
-26.53
-15.22
-5.00
3.80
11.25
17.61
23.14
27.92
31.92
35.04
37.25
38.58
39.16
39.13
38.62
37.78
36.71
35.55
34.44
33.52
32.92
32.67
32.62
32.53
32.05
30.91
29.03
26.57
23.89
21.35
19.19
17.41
15.80
14.03
11.86
9.26
6.40
3.57
1.00
-1.29
-3.49
-5.90
-8.78
-12.17
-15.83
-19.38
-22.46
-24.89
-26.80
-28.51
-30.45
-33.01
-36.41
-40.61
-45.27
-49.65
-52.81
-53.70
-51.60
-46.50
-39.18
-31.02
-23.45
-17.34
-12.63
-8.46
-3.64
2.63
10.33
18.53
25.79
30.77
32.81
32.17
29.88
27.31
25.63
25.38
26.29
27.49
27.96
26.94
24.29
20.45
16.26
12.55
9.90
8.49
8.14
8.51
9.17
9.79
10.14
10.09
9.57
8.61
7.24
5.59
3.79
1.90
-0.10
-2.30
-4.82
-7.73
-11.01
-14.52
-18.04
-21.40
-24.51
-27.39
-30.15
-32.94
-35.92
-39.26
-43.05
-47.16
-51.16
-54.21
-55.30
-53.49
-48.42
-40.42
-30.48
-19.81
-9.40
0.35
9.54
18.52
27.48
36.24
44.36
51.35
56.90
61.00
63.69
64.89
64.34
61.75
57.06
50.69
43.54
36.71
31.03
26.65
22.96
18.79
13.06
5.28
-4.13
-13.97
-22.75
-29.21
-32.80
-33.77
-32.95
-31.39
-29.90
-28.88
-28.25
-27.58
-26.33
-24.04
-20.48
-15.72
-10.22
-4.74
-0.15
2.66
3.11
0.94
-3.63
-10.07
-17.67
-25.61
-33.09
-39.33
-43.63
-45.40
-44.27
-40.15
-33.26
-24.13
-13.46
-2.03
9.41
20.23
29.91
38.02
44.18
48.06
49.38
48.05
44.23
38.44
31.37
23.82
16.50
9.95
4.60
0.76
-1.35
-1.60
-0.04
3.03
7.06
11.37
15.18
17.83
18.92
18.39
16.46
13.51
9.88
5.73
1.06
-4.16
-9.83
-15.59
-20.88
-25.23
-28.43
-30.61
-32.10
-33.24
-34.21
-35.06
-35.81
-36.54
-37.37
-38.19
-38.61
-37.96
-35.65
-31.57
-26.22
-20.65
-15.93
-12.71
-10.86
-9.72
-8.40
-6.25
-3.11
0.71
4.59
7.94
10.27
11.41
11.44
10.62
9.38
8.14
7.25
6.82
6.86
7.20
7.71
8.29
8.88
9.41
9.78
9.89
9.63
9.07
8.34
7.63
7.18
7.04
7.11
7.17
6.95
6.22
4.91
3.03
0.67
-1.92
-4.53
-6.83
-8.61
-9.80
-10.57
-11.27
-12.38
-14.29
-17.06
-20.49
-24.00
-26.83
-28.20
-27.58
-24.79
-20.08
-14.04
-7.46
-1.14
4.37
8.88
12.51
15.51
18.13
20.41
22.17
23.19
23.24
22.26
20.38
17.85
14.96
11.98
9.07
6.34
3.95
1.99
0.55
-0.33
-0.74
-0.82
-0.71
-0.53
-0.30
0.06
0.59
1.21
1.76
2.01
1.78
1.04
-0.09
-1.32
-2.35
-2.91
-2.89
-2.38
-1.65
-1.10
-1.11
-1.95
-3.67
-6.10
-8.90
-11.70
-14.25
-16.52
-18.69
-21.05
-23.87
-27.13
-30.49
-33.25
-34.55
-33.68
-30.29
-24.65
-17.54
-9.98
-2.95
2.93
7.47
10.88
13.54
15.88
18.11
20.26
22.21
23.74
24.65
24.82
24.22
22.94
21.15
19.11
17.11
15.38
14.10
13.32
12.93
12.74
12.51
12.08
11.45
10.69
10.01
9.51
9.20
8.91
8.38
7.34
5.64
3.36
0.72
-1.97
-4.54
-6.94
-9.34
-11.91
-14.80
-18.04
-21.50
-24.97
-28.17
-30.81
-32.61
-33.43
-33.29
-32.51
-31.57
-30.95
-30.93
-31.31
-31.54
-30.84
-28.59
-24.54
-18.94
-12.39
-5.68
0.51
5.72
9.83
13.02
15.63
18.15
20.99
24.40
28.41
32.71
36.76
39.80
41.09
40.15
36.95
32.03
26.36
21.13
17.43
15.98
16.87
19.59
23.17
26.38
28.15
27.82
25.39
21.60
17.62
14.61
13.18
13.06
13.20
12.26
9.17
3.64
-3.74
-11.75
-19.14
-25.01
-29.03
-31.36
-32.43
-32.68
-32.51
-32.26
-32.28
-32.93
-34.55
-37.36
-41.34
-46.14
-51.02
-54.98
-56.94
-56.11
-52.26
-45.81
-37.77
-29.31
-21.45
-14.65
-8.82
-3.49
1.86
7.52
13.44
19.30
24.69
29.27
32.80
35.18
36.31
36.15
34.73
32.27
29.14
25.85
22.92
20.70
19.32
18.65
18.40
18.20
17.77
16.91
15.54
13.72
11.60
9.41
7.33
5.56
4.13
2.95
1.88
0.68
-0.89
-2.94
-5.43
-8.16
-10.79
-13.01
-14.60
-15.55
-16.07
-16.49
-17.15
-18.30
-19.96
-21.92
-23.81
-25.13
-25.40
-24.28
-21.70
-17.81
-13.10
-8.11
-3.37
0.84
4.51
7.84
11.09
14.35
17.52
20.30
22.29
23.21
23.00
21.77
19.84
17.55
15.22
13.13
11.55
10.77
11.07
12.60
15.32
18.87
22.65
25.92
27.96
28.24
26.47
22.66
17.06
10.22
2.88
-4.05
-9.68
-13.33
-14.66
-13.80
-11.25
-7.69
-3.81
-0.19
2.80
4.88
5.87
5.63
4.04
1.03
-3.39
-9.06
-15.67
-22.69
-29.40
-34.95
-38.53
-39.53
-37.76
-33.46
-27.26
-19.96
-12.33
-4.96
1.79
7.75
12.87
17.19
20.72
23.50
25.51
26.72
27.04
26.42
24.92
22.76
20.27
17.87
15.88
14.48
13.71
13.44
13.49
13.66
13.77
13.66
13.25
12.51
11.45
10.16
8.73
7.17
5.49
3.61
1.47
-0.90
-3.43
-6.07
-8.84
-11.89
-15.40
-19.42
-23.81
-28.22
-32.21
-35.48
-37.99
-39.99
-41.92
-44.25
-47.35
-51.36
-56.19
-61.40
-66.27
-69.82
-71.08
-69.39
-64.66
-57.44
-48.75
-39.72
-31.24
-23.70
-17.08
-11.06
-5.30
0.40
6.08
11.60
16.76
21.30
24.98
27.64
29.24
29.96
30.06
29.87
29.64
29.49
29.46
29.52
29.65
29.79
29.86
29.61
28.84
27.38
25.29
22.84
20.43
18.39
16.85
15.70
14.60
13.23
11.40
9.12
6.60
4.13
1.98
0.26
-1.09
-2.34
-3.86
-5.95
-8.74
-12.02
-15.26
-17.73
-18.65
-17.48
-14.09
-8.80
-2.25
4.72
11.37
17.25
22.21
26.40
30.07
33.40
36.40
38.96
40.83
41.88
42.08
41.62
40.81
40.00
39.46
39.31
39.52
39.94
40.32
40.34
39.70
38.15
35.53
31.85
27.22
21.88
16.07
10.11
4.32
-1.02
-5.69
-9.64
-12.98
-15.94
-18.74
-21.50
-24.17
-26.60
-28.70
-30.50
-32.28
-34.38
-37.14
-40.74
-45.06
-49.63
-53.70
-56.37
-56.85
-54.78
-50.36
-44.32
-37.58
-30.94
-24.71
-18.77
-12.75
-6.37
0.29
6.78
12.50
16.98
20.02
21.73
22.40
22.41
22.08
21.65
21.27
20.88
20.35
19.38
17.74
15.34
12.34
9.12
6.16
3.93
2.69
2.51
3.18
4.33
5.51
6.40
6.79
6.58
5.69
3.86
0.72
-4.05
-10.51
-18.23
-26.32
-33.68
-39.33
-42.76
-43.98
-43.53
-42.30
-41.31
-41.52
-43.50
-47.20
-51.82
-55.95
-58.02
-56.86
-52.09
-44.31
-34.77
-24.92
-15.93
-8.40
-2.42
2.23
5.82
8.46
10.13
10.75
10.31
8.95
6.92
4.60
2.35
0.53
-0.55
-0.59
0.56
2.90
6.17
9.94
13.66
16.84
19.17
20.57
21.23
21.41
21.39
21.39
21.47
21.58
21.54
21.14
20.21
18.70
16.66
14.20
11.46
8.48
5.37
2.31
-0.41
-2.54
-3.94
-4.67
-4.89
-4.60
-3.54
-1.22
2.90
8.99
16.69
25.09
32.99
39.29
43.20
44.48
43.39
40.63
37.17
34.07
32.25
32.24
34.01
36.98
40.09
42.12
42.15
39.83
35.64
30.77
26.60
24.22
23.87
24.77
25.39
24.05
19.56
11.82
1.93
-8.19
-16.44
-21.28
-22.15
-19.68
-15.34
-10.93
-8.01
-7.43
-9.26
-12.93
-17.52
-22.15
-26.19
-29.23
-31.12
-31.74
-30.94
-28.54
-24.46
-18.88
-12.35
-5.70
0.25
5.11
9.11
13.07
17.87
23.99
31.10
38.19
43.92
47.19
47.54
45.13
40.61
34.76
28.36
22.06
16.42
11.78
8.19
5.32
2.51
-0.94
-5.60
-11.70
-19.09
-27.25
-35.44
-42.62
-47.58
-49.21
-46.82
-40.44
-31.05
-20.42
-10.61
-3.53
-0.44
-1.80
-7.25
-15.77
-25.77
-35.37
-42.74
-46.53
-46.23
-42.36
-36.24
-29.51
-23.55
-18.98
-15.57
-12.46
-8.62
-3.38
3.39
11.19
19.22
26.71
33.03
37.70
40.10
39.47
35.06
26.73
15.31
2.71
-8.55
-16.32
-19.68
-19.27
-16.77
-14.01
-11.97
-10.54
-8.95
-6.58
-3.57
-0.85
0.46
-0.27
-2.76
-6.02
-8.87
-10.53
-10.94
-10.56
-9.96
-9.52
-9.27
-9.04
-8.68
-8.07
-7.22
-6.01
-4.24
-1.60
2.16
7.11
13.07
19.61
26.23
32.34
37.44
41.07
42.91
42.88
41.22
38.50
35.56
33.33
32.52
33.34
35.39
37.82
39.61
39.94
38.45
35.37
31.33
27.17
23.56
20.88
19.13
17.91
16.58
14.48
11.18
6.76
1.85
-2.40
-4.86
-4.92
-3.05
-0.68
0.18
-2.12
-8.29
-17.74
-28.86
-39.61
-47.98
-52.40
-51.86
-46.12
-35.89
-23.10
-10.65
-1.66
1.63
-1.09
-7.99
-15.82
-21.42
-23.21
-21.87
-19.90
-20.19
-24.57
-32.86
-43.03
-52.26
-58.21
-59.98
-58.25
-54.73
-51.28
-49.06
-48.24
-48.04
-47.19
-44.37
-38.65
-29.69
-17.82
-4.08
10.02
22.67
32.21
37.51
38.30
35.21
29.62
23.18
17.40
13.15
10.57
9.12
7.90
6.03
3.00
-1.06
-5.45
-9.02
-10.60
-9.37
-5.18
1.33
8.96
16.21
21.76
24.80
25.26
23.76
21.33
19.02
17.57
17.18
17.60
18.34
18.98
19.34
19.52
19.71
20.04
20.49
20.94
21.24
21.35
21.35
21.25
21.04
20.65
20.01
19.09
18.02
16.90
15.81
14.76
13.69
12.56
11.38
10.20
8.99
7.66
6.06
4.13
1.93
-0.31
-2.31
-3.86
-4.96
-5.75
-6.49
-7.38
-8.41
-9.45
-10.15
-10.13
-8.94
-6.25
-1.92
3.84
10.38
16.63
21.30
23.23
21.76
17.13
10.51
3.77
-0.98
-2.17
0.75
7.17
15.46
23.57
29.66
32.55
31.92
28.27
22.64
16.23
10.26
5.59
2.70
1.54
1.63
2.20
2.46
1.81
0.07
-2.58
-5.77
-9.19
-12.81
-16.95
-22.10
-28.50
-35.98
-43.85
-51.20
-57.39
-62.31
-66.35
-69.98
-73.30
-75.72
-76.28
-74.26
-69.69
-63.59
-57.53
-52.83
-49.90
-48.04
-45.69
-41.26
-33.71
-23.03
-10.07
3.76
17.03
28.70
38.21
45.47
50.68
54.15
56.12
56.79
56.34
54.99
53.10
51.14
49.53
48.51
48.03
47.74
47.08
45.58
43.09
39.78
36.12
32.57
29.46
26.76
24.20
21.44
18.23
14.54
10.53
6.47
2.61
-0.87
-3.91
-6.51
-8.74
-10.65
-12.33
-13.82
-15.11
-16.15
-16.73
-16.59
-15.41
-12.97
-9.24
-4.49
0.81
6.10
10.83
14.65
17.41
19.12
19.82
19.44
17.82
14.86
10.70
5.65
0.23
-5.07
-10.00
-14.58
-19.01
-23.53
-28.14
-32.57
-36.33
-38.89
-39.90
-39.40
-37.75
-35.58
-33.57
-32.25
-31.83
-32.12
-32.48
-31.95
-29.63
-25.12
-19.07
-13.41
-10.84
-13.88
-23.54
-38.30
-54.34
-66.75
-71.36
-66.36
-52.78
-33.83
-13.52
4.63
18.44
27.23
31.71
33.76
35.97
40.77
49.55
61.92
75.63
87.47
94.61
95.82
91.86
84.96
77.75
72.31
69.75
70.31
73.56
78.59
84.08
88.45
90.15
88.02
81.63
71.41
58.72
45.65
34.68
27.95
26.50
29.62
34.95
39.15
