1565114799.00
64.000000
-0.00
-0.00
-0.00
-0.00
-0.00
-0.00
-0.00
-0.00
-0.00
-0.00
0.00
0.01
0.01
-0.00
-0.03
-0.05
-0.05
0.00
0.13
0.36
0.66
1.01
1.37
1.72
2.06
2.40
2.79
3.24
3.80
4.43
5.08
5.70
6.27
6.81
7.37
8.03
8.85
9.93
11.18
12.49
13.75
14.90
15.99
17.18
18.67
20.62
23.24
26.34
29.64
32.85
35.82
38.62
41.57
45.12
49.58
55.34
62.05
69.19
76.19
82.71
88.85
95.11
102.25
110.81
121.35
133.38
146.09
158.60
170.37
181.46
192.51
204.89
217.33
232.08
249.74
270.38
292.78
314.03
329.83
335.56
327.88
305.95
272.14
230.28
184.63
138.39
93.08
48.94
5.87
-35.89
-75.61
-112.09
-144.84
-174.12
-200.60
-225.00
-247.64
-268.39
-286.85
-302.86
-316.48
-328.53
-340.04
-351.97
-364.88
-378.45
-391.69
-403.43
-412.67
-418.78
-421.73
-421.88
-419.73
-415.73
-410.16
-402.20
-390.98
-375.70
-355.81
-331.20
-302.05
-268.86
-232.32
-194.85
-158.37
-124.49
-94.32
-68.63
-47.71
-31.40
-19.16
-9.34
-0.41
9.37
21.44
37.74
59.57
87.63
122.11
162.64
208.33
257.74
309.19
360.71
410.25
455.69
494.98
526.41
548.73
561.04
563.19
555.59
538.93
514.05
481.79
442.92
398.28
348.76
295.33
239.00
180.92
122.23
64.02
8.33
-43.25
-89.51
-129.58
-162.97
-189.55
-209.52
-223.27
-231.37
-234.55
-233.80
-230.12
-224.48
-217.68
-210.19
-202.12
-193.39
-183.84
-173.50
-162.82
-152.57
-143.61
-136.67
-132.03
-129.50
-128.42
-127.95
-127.49
-126.95
-126.85
-127.98
-131.11
-136.48
-143.72
-151.91
-159.91
-166.91
-172.78
-178.28
-184.91
-194.67
-209.52
-230.52
-256.95
-285.85
-312.50
-331.71
-339.53
-334.53
-318.08
-293.51
-264.69
-234.81
-205.83
-178.53
-152.85
-128.26
-104.02
-79.48
-54.55
-30.08
-7.63
11.04
24.93
34.48
41.29
47.28
53.70
60.53
66.78
71.36
73.99
75.64
78.29
83.81
92.82
103.87
113.63
118.27
115.63
107.18
98.39
96.78
108.39
134.60
170.83
208.18
237.23
251.47
248.90
230.99
200.52
160.05
111.89
59.35
7.46
-37.81
-71.63
-92.49
-102.84
-107.71
-112.14
-119.08
-128.69
-139.36
-148.94
-155.69
-158.33
-155.52
-145.69
-127.26
-99.19
-61.42
-14.90
38.34
94.80
149.54
196.60
230.50
248.28
251.06
243.98
234.30
228.11
227.79
231.40
234.35
232.33
223.85
210.75
196.85
185.44
177.38
170.95
163.17
151.96
137.53
122.45
110.24
103.19
101.03
100.86
98.67
91.61
79.47
64.88
51.71
42.92
38.82
36.97
33.69
26.27
14.65
1.59
-8.67
-12.70
-9.61
-1.60
7.28
13.16
14.24
11.36
7.25
4.71
5.01
7.16
8.76
7.59
3.08
-3.15
-8.25
-9.75
-7.05
-1.86
2.66
3.73
0.42
-5.85
-12.19
-15.94
-16.17
-14.16
-12.45
-13.28
-17.13
-22.41
-26.39
-26.87
-23.51
-18.14
-13.79
-12.97
-16.30
-22.12
-27.40
-29.47
-27.36
-22.40
-17.42
-15.18
-16.88
-21.53
-26.54
-29.08
-27.56
-22.15
-14.62
-7.17
-1.34
2.59
5.42
8.29
11.86
15.88
19.21
20.51
18.95
14.61
8.58
2.17
-3.96
-10.27
-18.12
-28.51
-40.68
-51.58
-56.78
-52.68
-38.75
-18.63
1.22
14.33
17.44
12.26
4.94
3.27
13.12
35.54
66.07
96.60
118.76
127.54
123.01
109.90
94.90
83.58
78.06
77.18
78.33
79.78
81.86
85.87
92.04
97.97
99.24
91.49
72.95
45.83
15.40
-12.41
-33.39
-46.45
-52.87
-54.26
-51.46
-44.19
-31.98
-15.52
2.79
19.17
30.16
34.52
34.89
37.09
47.78
71.60
108.97
155.95
206.33
254.87
296.15
328.69
353.33
370.54
378.75
374.42
354.07
316.91
266.08
208.01
150.17
98.42
55.04
18.68
-14.14
-47.09
-82.88
-122.81
-165.40
-209.23
-251.47
-287.91
-313.98
-326.31
-324.39
-309.93
-287.94
-264.60
-244.56
-229.32
-218.04
-209.46
-203.44
-200.90
-202.56
-207.27
-211.47
-210.39
-199.93
-178.56
-147.44
-109.37
-67.72
-26.22
12.38
45.86
72.31
90.80
101.68
106.17
105.37
98.93
85.23
63.40
35.60
8.54
-7.80
-3.93
24.55
73.78
131.47
180.12
203.21
191.26
145.40
77.12
3.59
-58.92
-100.75
-119.49
-120.80
-114.15
-107.99
-106.40
-109.21
-114.40
-121.19
-130.81
-145.48
-166.45
-192.18
-218.65
-241.22
-257.18
-267.10
-274.31
-283.14
-296.74
-315.83
-338.06
-359.05
-374.00
-379.32
-373.44
-357.54
-333.02
-300.89
-261.45
-214.35
-159.25
-96.74
-29.01
40.18
106.08
164.15
210.77
243.79
262.69
268.27
262.18
246.37
222.75
193.04
158.99
122.26
84.44
47.10
11.64
-20.73
-49.08
-72.68
-90.98
-103.58
-110.27
-111.20
-106.98
-98.76
-88.06
-76.63
-66.07
-57.55
-51.63
-48.28
-47.08
-47.51
-49.12
-51.62
-54.77
-58.15
-60.94
-61.93
-59.81
-53.53
-42.74
-27.96
-10.46
8.37
27.37
46.14
64.96
84.45
105.20
127.57
151.81
178.17
206.61
236.24
264.75
288.49
303.57
307.50
300.46
285.43
266.90
248.77
232.71
218.02
202.90
186.18
168.51
152.03
138.86
129.64
122.83
115.52
104.96
90.07
72.00
53.53
37.61
25.88
18.05
12.33
6.63
-0.15
-7.41
-13.28
-15.74
-13.99
-9.09
-3.61
-0.27
-0.57
-4.01
-8.55
-11.82
-12.49
-10.97
-9.03
-8.57
-10.53
-14.32
-18.27
-20.71
-21.02
-19.99
-19.34
-20.64
-24.21
-28.75
-32.06
-32.36
-29.31
-24.31
-19.73
-17.38
-17.40
-17.69
-14.76
-5.49
11.32
34.43
60.67
86.29
108.54
126.32
140.49
153.32
167.33
184.16
204.55
228.35
254.76
282.55
309.94
334.80
354.89
367.68
370.76
362.38
341.99
310.41
271.19
228.00
182.81
137.61
93.83
52.48
14.38
-19.60
-48.63
-72.02
-89.74
-102.38
-110.95
-117.06
-122.53
-128.78
-136.16
-144.73
-154.35
-164.99
-176.70
-189.52
-203.69
-219.16
-235.21
-250.32
-262.50
-269.93
-271.54
-267.28
-257.90
-244.86
-229.54
-212.54
-193.49
-170.59
-142.83
-110.67
-77.03
-45.48
-20.18
-5.25
-4.26
-19.62
-51.66
-97.94
-152.91
-208.16
-254.16
-284.19
-296.45
-294.39
-284.70
-273.99
-266.49
-263.05
-262.29
-262.40
-262.51
-262.31
-260.98
-257.22
-247.86
-229.77
-201.55
-164.51
-122.15
-79.28
-39.85
-5.78
23.46
50.37
78.30
110.66
149.64
195.30
244.69
292.04
330.09
352.47
356.48
343.60
319.79
292.96
269.84
253.68
243.87
237.58
231.85
225.11
217.13
208.20
197.93
185.13
168.37
147.06
122.07
95.51
70.08
47.94
30.04
15.93
4.24
-6.53
-17.34
-28.23
-38.42
-46.80
-52.56
-55.51
-56.21
-55.67
-54.91
-54.56
-54.71
-54.96
-54.71
-53.48
-51.13
-47.89
-44.22
-40.58
-37.26
-34.33
-31.61
-28.86
-25.88
-22.60
-19.09
-15.51
-11.97
-8.58
-5.39
-2.39
0.49
3.27
6.01
8.66
11.28
13.90
16.48
18.85
20.78
21.96
21.98
20.47
16.89
10.81
1.91
-9.99
-24.88
-42.40
-61.92
-82.49
-102.84
-121.66
-137.40
-148.62
-154.20
-153.53
-146.48
-133.50
-115.54
-93.18
-68.62
-43.85
-20.55
-0.05
16.76
29.50
38.23
43.44
45.92
46.41
45.72
44.41
42.67
40.49
37.81
34.66
31.41
28.45
26.03
24.41
23.43
22.57
21.16
18.71
15.16
11.02
7.16
4.35
3.03
2.90
3.04
2.26
-0.24
-4.53
-9.79
-14.65
-18.01
-19.25
-18.78
-17.81
-17.71
-19.73
-24.73
-33.33
-45.47
-59.74
-73.01
-80.71
-78.37
-63.83
-38.75
-8.41
20.16
41.14
52.13
54.61
52.32
49.04
46.59
44.79
42.62
39.59
36.33
34.22
34.35
36.78
40.67
44.56
47.19
48.39
49.01
50.30
53.32
58.30
64.49
70.62
74.84
75.67
72.48
65.51
55.60
43.75
30.77
15.78
0.20
-15.21
-29.99
-43.40
-54.65
-62.97
-67.87
-69.29
-67.70
-63.52
-57.75
-51.37
-45.04
-39.23
-34.19
-30.15
-27.29
-25.80
-26.17
-28.27
-31.97
-36.97
-42.92
-49.47
-56.21
-62.78
-68.76
-73.65
-76.89
-78.47
-78.12
-75.78
-71.55
-65.69
-58.62
-50.87
-43.01
-35.69
-29.67
-25.25
-22.68
-22.13
-23.63
-27.09
-32.37
-39.23
-47.47
-57.00
-67.27
-77.92
-88.67
-99.34
-109.77
-119.92
-129.81
-139.49
-149.16
-158.38
-166.89
-174.44
-180.76
-185.51
-188.20
-188.04
-183.77
-177.87
-171.01
-163.56
-155.72
-147.61
-139.37
-131.12
-123.06
-115.43
-108.50
-101.93
-95.49
-89.01
-82.37
-75.54
-68.58
-61.65
-54.96
-48.72
-42.59
-36.29
-29.53
-22.13
-14.08
-5.59
2.98
11.22
18.84
26.08
33.34
41.10
49.72
59.27
69.44
79.67
89.39
98.29
106.67
115.25
124.91
136.36
149.83
164.98
181.10
197.34
213.17
228.54
243.79
259.58
276.69
296.02
318.20
343.07
369.10
393.07
410.60
417.41
410.93
391.38
361.80
326.91
291.36
258.36
229.20
203.81
181.66
162.45
146.16
132.70
121.50
111.53
101.67
91.22
80.12
68.90
58.39
49.22
41.58
35.14
29.25
23.23
16.65
9.49
2.17
-4.68
-10.41
-14.63
-17.05
-17.71
-16.92
-15.18
-12.93
-10.62
-8.31
-5.96
-3.56
-0.97
1.64
3.75
4.59
3.43
-0.19
-6.09
-13.78
-22.67
-31.79
-40.48
-48.49
-55.87
-62.71
-69.17
-75.02
-80.11
-84.58
-87.28
-87.38
-84.80
-80.22
-74.57
-69.06
-63.38
-56.85
-48.94
-36.55
-17.75
7.01
34.94
62.44
85.35
103.20
116.73
126.86
138.87
156.52
180.18
206.91
232.80
253.31
269.58
284.40
300.33
324.99
363.24
414.52
473.10
531.28
579.88
616.89
642.71
621.51
535.29
389.79
212.59
35.76
-102.65
-210.50
-300.32
-381.06
-456.98
-523.73
-573.22
-600.87
-608.08
-600.46
-587.18
-571.39
-553.92
-534.73
-508.94
-473.12
-427.79
-377.03
-325.81
-279.46
-237.52
-198.45
-161.74
-125.69
-90.44
-58.45
-33.03
-16.35
-9.34
-8.84
-11.36
-15.06
-18.57
-21.69
-25.09
-29.31
-34.18
-39.34
-43.21
-44.49
-42.54
-36.66
-26.53
-12.68
3.32
19.29
33.04
43.88
52.55
60.58
69.14
77.86
84.59
86.14
79.97
65.64
45.32
23.23
3.97
-9.38
-16.47
-19.64
-22.55
-28.17
-37.06
-46.97
-53.63
-52.86
-43.01
-26.11
-7.13
8.29
16.56
17.37
13.04
7.37
3.67
3.35
5.64
8.66
10.52
9.52
3.48
-11.04
-36.50
-71.82
-111.15
-144.88
-163.17
-160.33
-138.62
-108.59
-85.64
-81.59
-98.43
-127.04
-151.46
-155.86
-130.87
-76.75
1.36
87.91
163.09
212.10
231.42
226.97
207.20
177.93
141.80
100.84
58.35
20.58
-5.48
-15.87
-12.16
-1.63
7.59
9.55
2.69
-10.72
-25.28
-35.20
-37.20
-31.83
-22.85
-14.98
-11.78
-14.39
-22.02
-32.36
-41.95
-48.39
-50.59
-48.61
-42.83
-33.88
-22.70
-10.91
-0.33
7.49
11.56
11.79
8.81
3.94
-1.32
-5.61
-8.05
-8.22
-6.22
-2.53
2.22
7.43
12.63
17.11
19.82
19.58
15.73
8.73
0.47
-6.08
-7.79
-2.46
10.45
29.53
51.84
73.45
90.13
98.01
94.53
79.11
53.67
22.37
-9.44
-36.70
-56.15
-66.85
-70.14
-68.37
-63.85
-58.08
-51.33
-43.00
-32.14
-18.24
-1.97
13.99
25.09
26.06
13.44
-11.92
-43.60
-70.94
-82.68
-71.62
-37.80
11.16
62.92
105.07
129.16
132.48
117.37
89.03
53.19
14.89
-21.68
-52.90
-75.83
-88.42
-90.22
-82.61
-68.50
-51.75
-35.87
-22.96
-13.31
-5.59
2.30
11.98
23.77
36.53
48.19
56.92
61.99
64.04
64.60
65.15
66.29
67.47
67.48
65.13
60.02
52.72
44.43
36.34
29.13
22.70
16.42
9.62
1.97
-6.45
-15.11
-23.45
-31.01
-37.58
-43.10
-47.35
-49.71
-49.24
-44.88
-35.91
-22.28
-4.82
14.92
35.05
53.85
70.17
83.47
93.72
101.19
106.05
108.04
106.40
100.07
88.43
71.80
51.48
29.45
7.63
-12.87
-31.98
-50.43
-69.35
-89.66
-110.44
-130.43
-148.81
-165.27
-179.05
-187.64
-187.35
-175.29
-151.39
-118.88
-83.33
-49.86
-21.26
2.46
22.89
41.36
57.38
69.18
75.31
75.65
71.68
66.19
59.98
52.75
43.28
30.23
12.71
-9.32
-34.95
-62.03
-87.51
-108.24
-121.02
-124.16
-118.34
-106.65
-93.09
-79.66
-65.95
-47.17
-18.60
22.24
72.95
126.62
173.97
204.20
213.23
203.92
183.45
159.31
136.88
118.02
102.39
89.36
79.20
73.18
71.28
70.98
67.64
56.78
36.09
7.19
-25.04
-54.52
-76.29
-88.41
-91.85
-89.49
-84.23
-77.90
-70.90
-62.80
-53.08
-41.33
-27.75
-13.16
1.27
14.39
25.12
32.59
36.18
35.72
31.75
25.42
18.10
11.29
6.02
1.84
-3.54
-13.74
-32.37
-61.16
-96.69
-132.64
-161.29
-176.22
-175.45
-161.78
-141.02
-119.59
-102.11
-90.14
-83.32
-80.49
-79.77
-78.90
-74.66
-63.12
-41.73
-11.80
20.78
47.41
61.31
62.08
56.81
55.36
66.31
92.35
128.80
166.01
194.08
204.81
199.09
182.66
162.05
141.72
123.21
106.27
90.20
74.86
60.41
46.75
32.11
14.43
-7.01
-30.97
-54.40
-74.15
-87.85
-95.00
-96.61
-95.17
-93.52
-93.66
-96.36
-100.87
-105.02
-105.76
-100.32
-87.19
-67.34
-43.72
-19.98
1.07
18.41
32.77
45.67
58.39
71.46
84.51
96.70
107.02
114.31
117.43
115.41
107.88
95.27
78.77
59.87
39.96
20.01
0.70
-17.50
-33.43
-46.01
-54.57
-59.17
-60.46
-59.32
-56.47
-52.31
-47.02
-40.68
-33.57
-26.12
-18.82
-12.09
-6.31
-1.64
2.04
5.16
8.37
12.21
16.91
22.21
27.58
32.44
36.43
39.48
41.66
42.85
42.68
40.80
37.10
31.82
25.12
16.71
5.82
-8.13
-24.75
-42.28
-58.02
-69.51
-75.39
-75.90
-72.29
-65.81
-56.95
-45.50
-31.55
-16.38
-2.61
7.17
11.51
10.61
6.09
0.49
-3.40
-3.63
0.24
6.51
12.58
15.11
10.79
-2.75
-25.65
-55.42
-87.73
-117.53
-141.02
-154.85
-157.18
-148.17
-129.55
-103.23
-70.32
-31.07
14.38
64.14
116.02
167.01
213.48
248.94
266.61
262.96
239.95
209.06
175.13
139.54
102.45
63.04
22.35
-17.27
-52.54
-80.25
-98.14
-106.68
-107.18
-101.46
-91.74
-79.81
-67.00
-54.60
-44.83
-41.13
-47.91
-67.01
-96.23
-130.00
-161.02
-182.78
-191.27
-185.55
-167.06
-138.71
-102.97
-61.84
-18.25
23.60
59.06
84.71
99.88
106.80
109.51
112.37
118.76
129.18
141.28
150.85
153.45
145.90
126.91
97.18
56.55
8.77
-39.82
-82.84
-116.23
-138.80
-150.98
-154.38
-151.16
-144.44
-136.71
-128.81
-119.02
-103.07
-76.12
-35.49
16.26
74.27
130.29
176.39
207.76
223.93
227.96
223.93
214.75
200.71
180.53
152.24
115.47
72.04
25.33
-21.41
-66.92
-109.14
-146.50
-174.45
-188.20
-185.46
-167.67
-139.33
-105.92
-72.18
-41.50
-15.94
3.90
18.90
29.71
37.02
41.65
44.37
45.71
46.16
46.24
44.97
42.45
39.04
35.55
32.99
32.28
33.95
38.04
44.06
51.29
59.04
66.48
73.04
78.48
82.60
85.07
85.35
82.82
76.98
67.91
55.98
41.96
26.86
11.60
-3.11
-16.79
-29.12
-39.77
-48.39
-54.76
-58.93
-61.19
-62.11
-62.30
-62.31
-62.34
-62.32
-61.91
-60.77
-58.68
-55.66
-51.87
-47.48
-42.56
-36.96
-30.46
-22.87
-14.10
-4.08
7.25
19.83
33.23
46.39
57.63
64.92
66.56
61.85
51.41
36.93
20.45
3.67
-12.33
-26.92
-39.41
-48.93
-54.51
-55.57
-52.27
-45.44
-36.20
-25.45
-13.63
-0.81
12.78
26.35
38.37
46.83
49.74
45.70
34.29
16.14
-7.13
-33.40
-60.44
-86.21
-108.88
-126.76
-138.41
-142.92
-140.23
-131.22
-117.43
-100.44
-81.42
-60.96
-39.59
-18.32
1.05
16.22
25.21
27.13
22.43
12.68
0.03
-13.27
-25.18
-34.12
-39.27
-40.84
-40.02
-38.39
-37.07
-36.00
-33.81
-28.62
-19.22
-5.91
9.52
24.62
37.46
47.36
54.74
60.49
65.26
69.30
72.62
75.32
77.63
79.58
80.59
79.27
73.88
63.21
47.59
29.22
11.75
-1.12
-7.00
-5.65
1.04
10.03
18.45
24.57
28.01
29.40
29.52
28.81
27.25
24.65
21.15
17.26
13.76
11.26
9.82
8.93
7.81
5.84
2.92
-0.35
-3.06
-4.29
-3.61
-1.19
2.30
6.02
9.38
12.17
14.71
17.52
21.10
25.58
30.75
36.10
41.15
45.66
49.64
53.51
57.81
63.00
69.36
76.83
85.14
93.75
102.05
109.38
115.18
118.96
120.30
118.76
113.80
104.74
91.03
72.46
49.52
23.47
-3.83
-30.34
-54.24
-74.28
-89.91
-101.14
-108.51
-112.97
-115.70
-117.92
-120.51
-123.64
-126.77
-128.88
-129.06
-126.97
-123.00
-118.01
-112.85
-107.86
-102.87
-97.38
-90.98
-83.63
-75.71
-67.77
-60.29
-53.54
-47.58
-42.44
-38.24
-35.24
-33.73
-33.82
-35.26
-37.28
-38.79
-38.67
-36.19
-31.23
-24.34
-16.53
-8.86
-2.07
3.57
8.26
12.50
16.89
21.99
28.22
35.83
44.84
54.91
65.33
75.03
82.77
87.41
88.10
84.43
76.51
64.93
50.70
35.04
19.22
4.51
-8.01
-17.46
-23.26
-25.12
-23.07
-17.64
-9.83
-1.05
7.26
13.85
17.98
19.42
18.61
16.47
14.03
11.91
10.28
8.99
7.64
6.04
4.09
2.26
1.43
2.20
4.08
5.60
5.25
2.04
-3.38
-9.52
-14.12
-15.25
-12.73
-8.72
-6.67
-9.19
-17.13
-28.46
-40.08
-48.08
-48.57
-38.67
-17.39
14.91
57.09
106.58
160.08
207.00
233.09
229.12
197.72
150.25
99.15
55.68
20.03
-9.01
-32.77
-51.58
-64.96
-71.27
-71.26
-67.57
-63.34
-61.45
-62.67
-66.67
-71.80
-75.56
-75.90
-72.58
-66.79
-60.18
-54.38
-49.71
-46.02
-42.53
-38.07
-31.87
-24.22
-16.20
-9.00
-3.65
-0.24
1.53
2.27
2.82
3.77
5.17
6.64
7.74
8.12
7.87
7.22
6.43
5.72
5.17
4.62
3.90
2.93
1.80
0.78
0.11
-0.13
-0.01
0.37
0.85
1.39
1.98
2.66
3.38
4.11
4.77
5.26
5.56
5.63
5.45
5.04
4.47
3.81
3.15
2.55
2.03
1.58
1.20
0.94
0.83
0.89
1.08
1.29
1.37
1.24
0.91
0.46
0.04
-0.25
-0.37
-0.36
-0.26
-0.07
0.21
0.64
1.21
1.85
2.45
2.89
3.10
3.07
2.84
2.49
2.07
1.67
1.30
0.99
0.72
0.48
0.26
0.07
-0.06
-0.07
0.10
0.46
0.98
1.63
2.34
3.05
3.68
4.18
4.47
4.56
4.49
4.39
4.33
4.35
4.42
4.44
4.31
4.00
3.56
3.04
2.49
1.90
1.24
0.52
-0.24
-0.98
-1.70
-2.40
-3.09
-3.77
-4.32
-4.60
-4.50
-4.04
-3.34
-2.64
-2.09
-1.73
-1.48
-1.18
-0.70
-0.00
0.88
1.86
2.86
3.83
4.73
5.49
6.06
6.36
6.36
6.09
5.59
4.94
4.24
3.62
3.16
2.92
2.83
2.79
2.67
2.35
1.85
1.26
0.71
0.28
-0.01
-0.21
-0.44
-0.76
-1.16
-1.55
-1.85
-1.99
-2.00
-2.01
-2.13
-2.46
-2.96
-3.51
-3.96
-4.20
-4.17
-3.93
-3.55
-3.09
-2.57
-1.96
-1.29
-0.59
0.08
0.66
1.10
1.36
1.44
1.25
0.74
-0.27
-1.87
-4.13
-7.01
-10.35
-13.86
-17.23
-20.13
-22.25
-23.37
-23.37
-22.30
-20.36
-17.88
-15.27
-12.91
-11.09
-9.90
-9.30
-9.07
-8.92
-8.58
-7.85
-6.63
-4.97
-3.02
-0.97
1.01
2.80
4.34
5.53
6.34
6.75
6.82
6.73
6.77
7.28
8.51
10.56
13.32
16.60
20.16
23.86
27.53
30.83
33.04
33.17
30.20
23.55
13.40
0.70
-13.10
-26.70
-39.44
-51.27
-62.41
-72.75
-81.49
-87.20
-88.37
-84.04
-74.26
-60.15
-43.38
-25.72
-8.55
7.23
21.10
32.65
41.54
47.57
50.83
51.89
51.53
50.51
49.22
47.63
45.41
42.32
38.61
35.10
33.00
33.44
37.15
44.31
54.47
66.70
79.66
91.64
100.82
105.57
104.86
98.55
87.36
72.59
55.71
38.10
20.86
4.94
-8.84
-19.82
-27.64
-32.37
-34.48
-34.70
-33.81
-32.43
-30.98
-29.72
-28.78
-28.25
-28.11
-28.32
-28.79
-29.45
-30.30
-31.37
-32.71
-34.31
-36.10
-38.00
-40.00
-42.17
-44.56
-47.04
-49.27
-50.56
-50.11
-47.32
-41.94
-34.14
-24.43
-13.35
-1.36
11.19
23.97
36.56
48.41
58.88
67.29
73.04
75.65
74.94
71.16
65.05
57.74
50.28
43.30
36.62
29.46
20.79
9.91
-3.19
-17.77
-32.49
-45.80
-56.22
-62.64
-64.48
-61.72
-55.01
-45.51
-34.62
-23.71
-13.82
-5.52
1.09
6.19
10.20
13.54
16.55
19.44
22.22
24.81
27.09
29.05
30.78
32.52
34.52
36.99
40.01
43.43
46.97
50.31
53.14
55.20
56.32
56.37
55.26
52.99
49.67
45.51
40.68
35.24
28.98
21.47
12.25
1.11
-11.71
-25.48
-39.17
-51.86
-62.96
-72.36
-80.21
-86.70
-91.77
-95.14
-96.50
-95.74
-93.12
-89.25
-84.84
-80.51
-76.61
-73.19
-70.06
-66.79
-62.73
-57.14
-49.35
-39.05
-26.59
-13.04
0.05
11.02
18.63
22.47
23.04
21.54
19.46
18.03
17.93
19.12
21.05
22.98
24.33
24.80
24.46
23.50
22.04
20.15
17.79
15.05
12.17
9.52
7.41
5.92
4.85
3.85
2.56
0.86
-1.10
-2.99
-4.48
-5.42
-5.84
-5.93
-5.86
-5.72
-5.48
-5.06
-4.37
-3.40
-2.18
-0.80
0.64
2.04
3.33
4.40
5.19
5.66
5.85
5.87
5.81
5.79
5.88
6.08
6.32
6.54
6.69
6.72
6.61
6.29
5.70
4.82
3.71
2.54
1.53
0.84
0.46
0.25
-0.01
-0.44
-1.09
-1.84
-2.52
-3.01
-3.27
-3.34
-3.30
-3.18
-2.99
-2.73
-2.36
-1.86
-1.19
-0.34
0.69
1.87
3.11
4.29
5.30
6.00
6.33
6.28
5.94
5.46
5.02
4.73
4.59
4.51
4.38
4.15
3.82
3.46
3.12
2.79
2.45
2.08
1.72
1.45
1.32
1.29
1.22
0.94
0.38
-0.39
-1.16
-1.65
-1.66
-1.18
-0.36
0.53
1.25
1.72
1.99
2.25
2.66
3.22
3.81
4.24
4.41
4.36
4.27
4.39
4.84
5.56
6.34
6.92
7.09
6.78
6.06
5.06
3.91
2.74
1.68
0.95
0.76
1.33
2.69
4.64
6.76
8.54
9.58
9.73
9.07
7.74
5.83
3.30
0.06
-3.91
-8.40
-13.00
-17.19
-20.50
-22.65
-23.55
-23.26
-21.93
-19.79
-17.09
-14.12
-11.11
-8.19
-5.31
-2.39
0.63
3.63
6.39
8.64
10.27
11.29
11.86
12.12
12.11
11.81
11.18
10.30
9.37
8.64
8.23
8.09
8.03
7.80
7.28
6.47
5.51
4.54
3.67
2.90
2.19
1.53
0.92
0.41
0.01
-0.27
-0.45
-0.57
-0.67
-0.81
-1.04
-1.42
-1.98
-2.69
-3.50
-4.25
-4.84
-5.16
-5.19
-4.98
-4.66
-4.35
-4.18
-4.21
-4.44
-4.78
-5.14
-5.41
-5.57
-5.64
-5.67
-5.72
-5.84
-6.02
-6.24
-6.45
-6.56
-6.44
-5.98
-5.11
-3.90
-2.50
-1.16
-0.03
0.77
1.28
1.54
1.63
1.57
1.37
1.06
0.66
0.25
-0.11
-0.38
-0.54
-0.57
-0.49
-0.32
-0.11
0.06
0.15
0.14
0.04
-0.08
-0.20
-0.31
-0.44
-0.60
-0.78
-0.93
-0.96
-0.82
-0.49
-0.04
0.50
1.04
1.55
1.98
2.26
2.31
2.03
1.38
0.37
-0.91
-2.34
-3.81
-5.24
-6.62
-7.98
-9.33
-10.56
-11.52
-12.00
-11.83
-10.97
-9.53
-7.71
-5.81
-4.00
-2.39
-0.98
0.27
1.33
2.13
2.59
2.69
2.49
2.16
1.85
1.66
1.59
1.57
1.50
1.33
1.06
0.77
0.49
0.29
0.18
0.18
0.27
0.45
0.67
0.88
1.01
1.03
0.93
0.78
0.63
0.58
0.62
0.71
0.75
0.63
0.35
-0.06
-0.42
-0.56
-0.37
0.13
0.78
1.35
1.63
1.54
1.06
0.30
-0.65
-1.73
-2.86
-3.93
-4.80
-5.26
-5.20
-4.59
-3.57
-2.34
-1.16
-0.19
0.54
1.11
1.67
2.35
3.19
4.14
5.05
5.74
6.08
6.00
5.53
4.73
3.66
2.40
1.02
-0.37
-1.62
-2.62
-3.28
-3.62
-3.70
-3.58
-3.33
-2.99
-2.60
-2.20
-1.87
-1.64
-1.54
-1.55
-1.62
-1.74
-1.93
-2.20
-2.53
-2.89
-3.18
-3.39
-3.50
-3.58
-3.67
-3.75
-3.75
-3.58
-3.19
-2.61
-1.99
-1.47
-1.16
-1.02
-0.89
-0.55
0.17
1.25
2.53
3.72
4.58
4.93
4.78
4.30
3.68
3.10
2.58
2.04
1.35
0.41
-0.75
-2.00
-3.12
-3.95
-4.42
-4.57
-4.48
-4.20
-3.74
-3.06
-2.15
-1.08
-0.00
0.93
1.56
1.84
1.80
1.55
1.20
0.88
0.65
0.49
0.37
0.21
-0.03
-0.34
-0.71
-1.07
-1.39
-1.65
-1.87
-2.04
-2.18
-2.33
-2.58
-3.04
-3.79
-4.83
-6.03
-7.19
-8.07
-8.48
-8.33
-7.62
-6.48
-5.04
-3.49
-1.95
-0.52
0.76
1.88
2.80
3.52
4.01
4.32
4.56
4.86
5.35
6.04
6.86
7.66
8.30
8.72
8.90
8.88
8.69
8.35
7.87
7.25
6.50
5.66
4.79
3.93
3.11
2.38
1.73
1.13
0.51
-0.20
-1.06
-2.08
-3.18
-4.26
-5.17
-5.85
-6.27
-6.46
-6.47
-6.34
-6.13
-5.95
-5.88
-5.99
-6.24
-6.51
-6.64
-6.48
-5.99
-5.22
-4.25
-3.14
-1.92
-0.61
0.73
1.99
3.02
3.71
4.09
4.24
4.30
4.38
4.54
4.76
5.00
5.20
5.35
5.42
5.38
5.21
4.91
4.51
4.07
3.67
3.35
3.18
3.10
3.02
2.80
2.34
1.60
0.67
-0.32
-1.24
-2.05
-2.76
-3.44
-4.11
-4.76
-5.32
-5.78
-6.15
-6.52
-6.94
-7.38
-7.72
-7.75
-7.32
-6.40
-5.07
-3.48
-1.83
-0.21
1.27
2.59
3.73
4.68
5.43
5.96
6.29
6.39
6.30
6.03
5.66
5.30
5.03
4.91
4.92
4.96
4.98
4.93
4.85
4.83
4.92
5.10
5.26
5.28
5.07
4.59
3.92
3.15
2.39
1.70
1.07
0.49
-0.06
-0.60
-1.11
-1.58
-2.01
-2.39
-2.73
-3.06
-3.43
-3.93
-4.63
-5.55
-6.60
-7.63
-8.40
-8.76
-8.63
-8.06
-7.19
-6.15
-5.01
-3.78
-2.47
-1.11
0.22
1.40
2.38
3.15
3.80
4.40
5.02
5.63
6.18
6.57
6.75
6.73
6.56
6.33
6.13
6.01
6.01
6.09
6.22
6.34
6.42
6.45
6.43
6.36
6.19
5.85
5.31
4.64
3.92
3.30
2.87
2.62
2.47
2.33
2.14
1.88
1.59
1.28
0.94
0.48
-0.13
-0.91
-1.81
-2.75
-3.66
-4.52
-5.33
-6.09
-6.78
-7.36
-7.73
-7.83
-7.60
-7.04
-6.18
-5.06
-3.77
-2.38
-1.00
0.32
1.51
2.54
3.37
4.01
4.42
4.58
4.47
4.11
3.57
2.98
2.48
2.18
2.11
2.23
2.43
2.60
2.66
2.60
2.44
2.24
2.05
1.90
1.77
1.65
1.55
1.47
1.47
1.59
1.87
2.30
2.80
3.29
3.66
3.87
3.95
3.93
3.84
3.66
3.30
2.70
1.85
0.84
-0.22
-1.16
-1.91
-2.45
-2.85
-3.17
-3.47
-3.76
-3.98
-4.08
-3.94
-3.54
-2.89
-2.08
-1.24
-0.49
0.10
0.56
0.94
1.30
1.68
1.98
2.12
2.03
1.76
1.43
1.16
1.02
0.97
0.93
0.80
0.59
0.37
0.30
0.48
0.92
1.51
2.09
2.48
2.58
2.44
2.16
1.90
1.79
1.85
2.01
2.16
2.17
1.97
1.55
0.95
0.24
-0.50
-1.21
-1.85
-2.39
-2.83
-3.18
-3.47
-3.76
-4.08
-4.44
-4.81
-5.10
-5.23
-5.11
-4.71
-4.00
-3.03
-1.85
-0.55
0.74
1.87
2.70
3.10
3.06
2.69
2.14
1.60
1.16
0.80
0.41
-0.12
-0.82
-1.65
-2.46
-3.14
-3.66
-4.06
-4.47
-5.00
-5.74
-6.66
-7.62
-8.41
-8.93
-9.19
-9.38
-9.84
-10.98
-13.29
-17.14
-22.77
-30.07
-38.64
-47.64
-55.87
-61.85
-64.18
-61.79
-54.23
-41.81
-25.43
-6.52
13.31
32.49
49.73
64.06
74.87
81.76
84.50
83.03
77.49
68.35
56.47
42.87
28.64
14.60
1.29
-10.89
-21.47
-29.71
-34.76
-36.01
-33.50
-27.99
-20.80
-13.35
-6.73
-1.46
2.41
5.09
6.76
7.42
7.01
5.52
3.12
0.19
-2.77
-5.30
-7.10
-8.12
-8.49
-8.38
-7.91
-7.08
-5.82
-4.07
-1.91
0.46
2.73
4.64
6.10
7.20
8.14
9.11
10.17
11.24
12.15
12.69
12.74
12.29
11.38
10.11
8.59
6.91
5.12
3.18
1.03
-1.43
-4.22
-7.27
-10.35
-13.18
-15.43
-16.79
-17.08
-16.20
-14.25
-11.44
-8.15
-4.80
-1.77
0.75
2.68
4.14
5.32
6.38
7.45
8.50
9.42
10.03
10.16
9.70
8.68
7.26
5.65
4.09
2.73
1.64
0.80
0.21
-0.17
-0.35
-0.35
-0.23
-0.02
0.23
0.54
0.93
1.41
1.95
2.45
2.85
3.08
3.19
3.21
3.24
3.32
3.48
3.70
3.90
3.97
3.77
3.22
2.27
1.04
-0.27
-1.40
-2.15
-2.46
-2.45
-2.37
-2.41
-2.74
-3.31
-3.97
-4.46
-4.55
-4.09
-3.05
-1.57
0.17
1.94
3.51
4.71
5.44
5.70
5.56
5.18
4.73
4.41
4.32
4.48
4.75
4.98
5.03
4.82
4.41
3.90
3.43
3.12
3.04
3.16
3.40
3.64
3.77
3.73
3.53
3.23
2.90
2.59
2.34
2.12
1.98
1.91
1.93
1.99
1.96
1.65
0.94
-0.15
-1.47
-2.70
-3.60
-4.05
-4.13
-4.04
-3.99
-4.13
-4.45
-4.85
-5.23
-5.54
-5.80
-6.09
-6.47
-6.93
-7.43
-7.82
-7.95
-7.72
-7.07
-6.04
-4.69
-3.17
-1.58
-0.10
1.15
2.10
2.73
3.07
3.24
3.33
3.37
3.37
3.26
2.98
2.51
1.87
1.08
0.25
-0.53
-1.14
-1.44
-1.39
-1.00
-0.38
0.31
0.91
1.36
1.65
1.87
2.09
2.35
2.65
2.92
3.11
3.20
3.18
3.05
2.76
2.30
1.57
0.58
-0.63
-2.00
-3.44
-4.86
-6.24
-7.61
-8.94
-10.20
-11.25
-11.95
-12.15
-11.77
-10.86
-9.49
-7.81
-5.91
-3.92
-1.90
0.06
1.83
3.34
4.50
5.31
5.75
5.86
5.64
5.16
4.49
3.76
3.07
2.47
1.93
1.35
0.65
-0.15
-0.94
-1.56
-1.93
-2.06
-2.07
-2.08
-2.16
-2.26
-2.30
-2.17
-1.84
-1.37
-0.85
-0.39
-0.11
-0.06
-0.26
-0.62
-1.06
-1.51
-1.93
-2.40
-3.00
-3.83
-4.85
-5.89
-6.71
-7.06
-6.79
-5.92
-4.55
-2.89
-1.13
0.53
1.92
2.88
3.34
3.28
2.82
2.15
1.47
0.99
0.84
1.07
1.68
2.61
3.77
5.05
6.31
7.41
8.24
8.71
8.77
8.37
7.54
6.37
5.02
3.68
2.51
1.64
1.12
0.94
1.06
1.42
1.88
2.32
2.56
2.46
1.94
0.99
-0.31
-1.85
-3.49
-5.12
-6.59
-7.75
-8.50
-8.78
-8.64
-8.15
-7.40
-6.39
-5.09
-3.46
-1.57
0.36
2.04
3.19
3.71
3.66
3.30
2.86
2.48
2.18
1.92
1.70
1.58
1.67
2.03
2.67
3.48
4.33
5.09
5.74
6.22
6.52
6.56
6.29
5.65
4.68
3.49
2.21
0.97
-0.13
-1.04
-1.68
-2.05
-2.14
-2.01
-1.71
-1.33
-0.98
-0.76
-0.77
-1.07
-1.69
-2.59
-3.71
-4.90
-6.03
-6.98
-7.64
-7.98
-7.96
-7.63
-7.03
-6.26
-5.42
-4.63
-3.96
-3.46
-3.08
-2.73
-2.30
-1.66
-0.79
0.29
1.45
2.58
3.61
4.56
5.52
6.59
7.80
9.02
10.07
10.72
10.82
10.34
9.31
7.85
6.09
4.18
2.29
0.61
-0.70
-1.58
-2.03
-2.15
-2.08
-1.94
-1.80
-1.72
-1.71
-1.76
-1.81
-1.76
-1.51
-1.01
-0.27
0.57
1.36
1.92
2.20
2.17
1.88
1.37
0.64
-0.28
-1.36
-2.53
-3.69
-4.76
-5.67
-6.41
-6.96
-7.31
-7.42
-7.24
-6.75
-5.96
-4.89
-3.61
-2.14
-0.55
1.05
2.48
3.56
4.14
4.18
3.81
3.27
2.82
2.63
2.76
3.13
3.60
4.03
4.35
4.52
4.54
4.43
4.16
3.76
3.27
2.79
2.43
2.23
2.16
2.11
1.91
1.46
0.75
-0.10
-0.94
-1.61
-2.12
-2.56
-3.11
-3.85
-4.70
-5.49
-5.96
-6.01
-5.67
-5.16
-4.78
-4.70
-4.93
-5.31
-5.57
-5.48
-4.92
-3.94
-2.70
-1.45
-0.39
0.35
0.78
1.03
1.28
1.67
2.25
2.99
3.75
4.41
4.85
5.01
4.88
4.51
3.98
3.41
2.90
2.51
2.25
2.08
1.97
1.93
2.00
2.19
2.50
2.81
2.98
2.88
2.46
1.80
1.02
0.29
-0.30
-0.73
-1.04
-1.27
-1.45
-1.56
-1.57
-1.50
-1.40
-1.39
-1.55
-1.97
-2.63
-3.46
-4.35
-5.16
-5.81
-6.27
-6.54
-6.68
-6.71
-6.60
-6.28
-5.69
-4.77
-3.57
-2.22
-0.89
0.29
1.24
1.96
2.51
2.90
3.17
3.33
3.40
3.42
3.49
3.66
3.94
4.30
4.61
4.80
4.85
4.81
4.75
4.75
4.79
4.83
4.81
4.69
4.48
4.19
3.88
3.56
3.24
2.91
2.55
2.15
1.67
1.11
0.47
-0.22
-0.92
-1.56
-2.13
-2.62
-3.06
-3.46
-3.82
-4.05
-4.10
-3.90
-3.53
-3.15
-2.96
-3.15
-3.79
-4.82
-6.02
-7.20
-8.17
-8.82
-9.08
-8.90
-8.23
-7.02
-5.28
-3.16
-0.87
1.34
3.28
4.79
5.83
6.38
6.42
5.94
5.00
3.70
2.21
0.71
-0.65
-1.77
-2.62
-3.15
-3.30
-2.97
-2.09
-0.64
1.25
3.33
5.33
6.97
8.10
8.66
8.69
8.29
7.51
6.44
5.12
3.62
2.06
0.56
-0.76
-1.79
-2.49
-2.90
-3.05
-2.99
-2.80
-2.52
-2.24
-2.05
-2.07
-2.39
-3.11
-4.26
-5.80
-7.62
-9.48
-11.12
-12.21
-12.50
-11.86
-10.29
-7.95
-5.13
-2.20
0.50
2.72
4.30
5.22
5.55
5.41
4.92
4.21
3.39
2.56
1.80
1.17
0.74
0.58
0.77
1.35
2.28
3.42
4.54
5.41
5.83
5.74
5.19
4.34
3.33
2.30
1.39
0.68
0.25
0.12
0.25
0.54
0.84
1.00
0.89
0.48
-0.19
-1.07
-2.05
-3.04
-3.94
-4.70
-5.33
-5.87
-6.41
-7.03
-7.80
-8.68
-9.54
-10.14
-10.25
-9.71
-8.53
-6.83
-4.81
-2.67
-0.51
1.62
3.66
5.58
7.27
8.64
9.61
10.16
10.30
10.04
9.34
8.18
6.58
4.63
2.50
0.37
-1.61
-3.34
-4.75
-5.83
-6.56
-6.95
-7.03
-6.83
-6.34
-5.50
-4.22
-2.43
-0.20
2.25
4.60
6.52
7.80
8.37
8.28
7.60
6.38
4.66
2.52
0.10
-2.40
-4.81
-7.00
-8.89
-10.46
-11.60
-12.20
-12.11
-11.26
-9.67
-7.48
-4.92
-2.26
0.25
2.41
4.11
5.31
6.04
6.37
6.41
6.19
5.80
5.26
4.68
4.16
3.85
3.84
4.15
4.68
5.26
5.72
5.92
5.83
5.49
4.97
4.35
3.63
2.82
1.88
0.86
-0.15
-1.03
-1.69
-2.07
-2.22
-2.27
-2.34
-2.53
-2.85
-3.25
-3.64
-3.95
-4.20
-4.49
-4.97
-5.74
-6.79
-7.92
-8.84
-9.23
-8.91
-7.88
-6.30
-4.48
-2.66
-1.03
0.41
1.68
2.82
3.85
4.74
5.48
6.14
6.78
7.44
8.09
8.58
8.78
8.63
8.21
7.69
7.27
7.04
6.97
6.94
6.80
6.47
6.00
5.44
4.87
4.36
3.92
3.53
3.21
2.92
2.65
2.37
2.05
1.67
1.20
0.67
0.05
-0.64
-1.38
-2.11
-2.79
-3.34
-3.78
-4.15
-4.52
-4.95
-5.45
-5.93
-6.26
-6.31
-6.00
-5.33
-4.40
-3.31
-2.17
-1.02
0.09
1.17
2.14
2.93
3.44
3.66
3.63
3.46
3.26
3.09
2.95
2.84
2.71
2.54
2.35
2.14
1.92
1.70
1.48
1.30
1.17
1.12
1.14
1.18
1.15
1.00
0.73
0.39
0.05
-0.18
-0.26
-0.20
-0.05
0.09
0.13
0.02
-0.28
-0.75
-1.31
-1.90
-2.41
-2.78
-3.01
-3.16
-3.40
-3.83
-4.53
-5.40
-6.27
-6.96
-7.32
-7.32
-6.98
-6.32
-5.34
-4.05
-2.49
-0.79
0.88
2.39
3.64
4.67
5.53
6.25
6.80
7.11
7.11
6.77
6.14
5.30
4.33
3.30
2.24
1.17
0.16
-0.73
-1.40
-1.76
-1.76
-1.36
-0.63
0.31
1.28
2.04
2.43
2.35
1.82
0.94
-0.18
-1.41
-2.63
-3.72
-4.57
-5.08
-5.24
-5.16
-5.02
-5.02
-5.28
-5.79
-6.38
-6.89
-7.20
-7.26
-7.09
-6.74
-6.19
-5.44
-4.50
-3.44
-2.34
-1.27
-0.30
0.58
1.40
2.19
2.99
3.79
4.57
5.34
6.06
6.66
7.08
7.26
7.20
6.98
6.69
6.40
6.12
5.83
5.47
5.01
4.49
4.00
3.58
3.26
2.96
2.62
2.17
1.60
0.94
0.24
-0.44
-1.07
-1.60
-2.01
-2.28
-2.45
-2.60
-2.84
-3.25
-3.84
-4.57
-5.28
-5.87
-6.29
-6.54
-6.71
-6.88
-7.13
-7.45
-7.78
-7.99
-7.95
-7.55
-6.74
-5.60
-4.22
-2.70
-1.12
0.45
1.97
3.34
4.44
5.19
5.55
5.60
5.49
5.36
5.32
5.40
5.57
5.77
5.95
6.06
6.03
5.84
5.47
4.95
4.36
3.81
3.40
3.19
3.18
3.31
3.47
3.50
3.33
2.94
2.39
1.80
1.24
0.72
0.12
-0.64
-1.63
-2.75
-3.80
-4.59
-5.02
-5.11
-5.03
-4.95
-4.99
-5.15
-5.36
-5.59
-5.83
-6.17
-6.67
-7.33
-8.00
-8.45
-8.40
-7.73
-6.45
-4.79
-3.07
-1.61
-0.57
0.11
0.58
1.08
1.71
2.47
3.21
3.81
4.17
4.28
4.21
4.01
3.76
3.56
3.51
3.69
4.09
4.58
4.93
4.96
4.60
3.98
3.31
2.77
2.40
2.10
1.72
1.17
0.50
-0.19
-0.76
-1.17
-1.44
-1.62
-1.75
-1.85
-1.97
-2.17
-2.54
-3.11
-3.84
-4.62
-5.29
-5.78
-6.12
-6.44
-6.87
-7.45
-8.10
-8.61
-8.74
-8.32
-7.26
-5.66
-3.70
-1.64
0.29
1.96
3.35
4.52
5.56
6.51
7.34
7.95
8.29
8.37
8.31
8.20
8.10
7.95
7.63
7.08
6.34
5.54
4.82
4.25
3.73
3.15
2.40
1.48
0.53
-0.28
-0.86
-1.22
-1.43
-1.55
-1.59
-1.50
-1.28
-1.00
-0.81
-0.85
-1.19
-1.75
-2.38
-2.94
-3.38
-3.78
-4.26
-4.90
-5.69
-6.54
-7.28
-7.77
-7.93
-7.67
-6.98
-5.81
-4.25
-2.40
-0.41
1.57
3.38
4.95
6.22
7.12
7.63
7.73
7.48
6.98
6.40
5.86
5.47
5.24
5.12
5.04
4.90
4.66
4.32
3.92
3.53
3.17
2.83
2.45
1.97
1.37
0.73
0.19
-0.13
-0.18
-0.04
0.12
0.11
-0.18
-0.81
-1.69
-2.70
-3.72
-4.65
-5.41
-5.94
-6.24
-6.35
-6.34
-6.29
-6.30
-6.46
-6.84
-7.46
-8.24
-9.03
-9.58
-9.67
-9.14
-7.97
-6.36
-4.56
-2.86
-1.45
-0.40
0.31
0.74
0.99
1.13
1.21
1.28
1.34
1.37
1.31
1.16
0.93
0.73
0.65
0.76
1.03
1.42
1.82
2.24
2.69
3.21
3.82
4.50
5.27
6.15
7.18
8.41
9.78
11.11
12.12
12.57
12.30
11.37
9.93
8.15
6.10
3.78
1.06
-2.13
-5.77
-9.66
-13.56
-17.16
-20.25
-22.65
-24.22
-24.87
-24.51
-23.11
-20.75
-17.58
-13.89
-9.96
-6.06
-2.37
1.04
4.13
6.89
9.26
11.16
12.48
13.16
13.20
12.68
11.76
10.60
9.36
8.15
7.07
6.20
5.60
5.32
5.34
5.53
5.76
5.87
5.79
5.56
5.29
5.11
5.07
5.14
5.18
5.04
4.57
3.64
2.18
0.15
-2.43
-5.42
-8.58
-11.64
-14.34
-16.53
-18.16
-19.25
-19.76
-19.63
-18.69
-16.84
-14.04
-10.39
-6.13
-1.54
3.08
7.41
11.19
14.22
16.33
17.44
17.58
16.86
15.45
13.60
11.54
9.49
7.61
6.00
4.69
3.65
2.85
2.30
2.07
2.23
2.77
3.53
4.29
4.74
4.69
4.12
3.19
2.18
1.33
0.77
0.46
0.29
0.13
-0.10
-0.38
-0.72
-1.13
-1.65
-2.35
-3.25
-4.26
-5.26
-6.15
-6.84
-7.39
-7.83
-8.21
-8.46
-8.48
-8.18
-7.49
-6.49
-5.25
-3.87
-2.36
-0.72
1.02
2.76
4.35
5.65
6.61
7.33
7.92
8.49
9.03
9.42
9.53
9.25
8.58
7.62
6.49
5.35
4.30
3.38
2.59
1.90
1.27
0.71
0.23
-0.17
-0.52
-0.88
-1.29
-1.79
-2.32
-2.84
-3.26
-3.51
-3.59
-3.54
-3.45
-3.39
-3.45
-3.66
-4.03
-4.55
-5.18
-5.85
-6.43
-6.76
-6.66
-6.01
-4.84
-3.33
-1.77
-0.40
0.65
1.46
2.19
2.97
3.77
4.43
4.78
4.74
4.42
3.98
3.61
3.39
3.28
3.20
3.12
3.04
2.99
3.00
3.05
3.10
3.09
2.95
2.66
2.18
1.52
0.68
-0.25
-1.21
-2.14
-2.98
-3.72
-4.35
-4.83
-5.16
-5.37
-5.55
-5.83
-6.35
-7.14
-8.09
-8.90
-9.25
-8.87
-7.69
-5.90
-3.87
-1.97
-0.45
0.66
1.47
2.13
2.77
3.37
3.89
4.30
4.60
4.84
5.04
5.16
5.13
4.89
4.43
3.86
3.32
2.94
2.79
2.83
2.93
2.93
2.69
2.17
1.46
0.68
-0.01
-0.52
-0.87
-1.10
-1.33
-1.64
-2.09
-2.71
-3.49
-4.39
-5.34
-6.26
-7.01
-7.44
-7.40
-6.79
-5.66
-4.13
-2.42
-0.75
0.69
1.82
2.68
3.33
3.86
4.31
4.69
4.95
5.05
4.97
4.70
4.28
3.79
3.33
3.03
2.97
3.18
3.59
4.06
4.38
4.40
4.06
3.38
2.51
1.57
0.64
-0.20
-0.91
-1.47
-1.84
-2.04
-2.16
-2.31
-2.60
-3.09
-3.74
-4.46
-5.17
-5.77
-6.19
-6.37
-6.26
-5.77
-4.93
-3.77
-2.44
-1.07
0.28
1.58
2.83
4.02
5.04
5.76
6.08
5.98
5.56
4.97
4.39
3.94
3.67
3.57
3.63
3.87
4.26
4.77
5.29
5.66
5.73
5.43
4.75
3.77
2.62
1.40
0.18
-0.99
-2.12
-3.15
-4.04
-4.68
-5.05
-5.17
-5.18
-5.26
-5.57
-6.19
-7.09
-8.19
-9.39
-10.61
-11.72
-12.58
-12.97
-12.73
-11.78
-10.23
-8.32
-6.32
-4.46
-2.75
-1.11
0.59
2.40
4.27
6.05
7.57
8.74
9.53
10.01
10.24
10.24
9.99
9.46
8.65
7.64
6.58
5.65
5.00
4.67
4.61
4.67
4.67
4.52
4.22
3.87
3.58
3.42
3.34
3.22
2.94
2.38
1.54
0.50
-0.64
-1.75
-2.73
-3.50
-4.03
-4.38
-4.63
-4.85
-5.10
-5.33
-5.50
-5.57
-5.60
-5.66
-5.78
-5.92
-5.91
-5.57
-4.84
-3.77
-2.53
-1.34
-0.30
0.58
1.38
2.19
3.02
3.78
4.33
4.57
4.48
4.14
3.68
3.19
2.73
2.33
2.02
1.86
1.88
2.08
2.37
2.65
2.84
2.93
2.97
3.03
3.13
3.20
3.14
2.85
2.28
1.46
0.48
-0.60
-1.64
-2.53
-3.17
-3.48
-3.45
-3.20
-2.87
-2.64
-2.62
-2.83
-3.19
-3.57
-3.86
-3.99
-3.95
-3.75
-3.44
-2.99
-2.39
-1.59
-0.64
0.38
1.36
2.19
2.84
3.34
3.76
4.09
4.31
4.34
4.18
3.88
3.54
3.28
3.13
3.09
3.12
3.19
3.32
3.52
3.79
4.07
4.27
4.33
4.19
3.85
3.29
2.47
1.41
0.14
-1.24
-2.56
-3.69
-4.54
-5.15
-5.60
-5.94
-6.17
-6.26
-6.16
-5.92
-5.68
-5.59
-5.74
-6.09
-6.48
-6.66
-6.41
-5.62
-4.32
-2.66
-0.87
0.81
2.18
3.16
3.76
4.04
4.16
4.22
4.27
4.30
4.24
4.07
3.80
3.50
3.24
3.09
3.05
3.09
3.22
3.48
3.89
4.39
4.85
5.05
4.83
4.12
3.08
1.94
0.94
0.25
-0.16
-0.38
-0.58
-0.85
-1.22
-1.70
-2.29
-2.98
-3.74
-4.48
-5.11
-5.56
-5.80
-5.95
-6.14
-6.49
-7.05
-7.73
-8.39
-8.83
-8.84
-8.30
-7.16
-5.52
-3.57
-1.58
0.20
1.56
2.45
2.93
3.11
3.13
3.10
3.09
3.16
3.35
3.71
4.23
4.89
5.58
6.17
6.57
6.67
6.46
6.00
5.35
4.65
3.98
3.42
2.98
2.66
2.41
2.17
1.86
1.45
0.95
0.46
0.08
-0.12
-0.16
-0.20
-0.44
-1.04
-2.02
-3.24
-4.44
-5.36
-5.87
-5.97
-5.78
-5.42
-4.99
-4.56
-4.17
-3.91
-3.86
-4.04
-4.34
-4.58
-4.51
-3.99
-2.99
-1.67
-0.24
1.08
2.13
2.87
3.34
3.61
3.77
3.84
3.82
3.71
3.50
3.25
3.01
2.84
2.77
2.72
2.63
2.42
2.06
1.61
1.13
0.68
0.26
-0.17
-0.69
-1.35
-2.17
-3.13
-4.15
-5.14
-6.02
-6.75
-7.41
-8.09
-8.99
-10.25
-11.96
-14.09
-16.49
-18.90
-21.04
-22.64
-23.44
-23.31
-22.23
-20.29
-17.67
-14.56
-11.14
-7.51
-3.75
0.08
3.93
7.68
11.18
14.21
16.58
18.19
19.04
19.24
18.97
18.43
17.73
16.91
15.93
14.80
13.54
12.21
10.85
9.51
8.16
6.82
5.52
4.29
3.26
2.45
1.88
1.46
1.07
0.59
-0.03
-0.74
-1.36
-1.68
-1.55
-0.90
0.23
1.69
3.36
5.16
7.07
9.07
11.10
13.05
14.82
16.39
17.85
19.39
21.21
23.46
26.10
29.03
32.06
35.03
37.76
40.02
41.46
41.61
39.95
36.08
29.86
21.50
11.57
0.84
-9.81
-19.57
-27.82
-34.12
-38.28
-40.31
-40.40
-38.88
-36.13
-32.56
-28.60
-24.61
-20.89
-17.63
-14.86
-12.52
-10.48
-8.68
-7.14
-5.95
-5.20
-4.85
-4.73
-4.63
-4.41
-4.06
-3.72
-3.51
-3.50
-3.63
-3.80
-3.94
-4.07
-4.30
-4.67
-5.16
-5.64
-6.01
-6.24
-6.37
-6.48
-6.57
-6.55
-6.30
-5.72
-4.84
-3.74
-2.52
-1.28
-0.05
1.19
2.35
3.35
4.05
4.35
4.23
3.78
3.14
2.45
1.81
1.22
0.65
0.06
-0.56
-1.18
-1.73
-2.15
-2.41
-2.47
-2.36
-2.07
-1.62
-1.07
-0.54
-0.19
-0.16
-0.49
-1.07
-1.74
-2.27
-2.58
-2.67
-2.68
-2.77
-3.03
-3.43
-3.89
-4.32
-4.70
-5.07
-5.44
-5.76
-5.86
-5.54
-4.71
-3.40
-1.86
-0.37
0.80
1.54
1.94
2.14
2.30
2.48
2.66
2.78
2.78
2.68
2.49
2.21
1.84
1.36
0.82
0.31
-0.01
-0.04
0.26
0.83
1.50
2.07
2.40
2.41
2.15
1.71
1.21
0.76
0.41
0.14
-0.12
-0.48
-1.02
-1.77
-2.69
-3.63
-4.42
-4.96
-5.25
-5.37
-5.47
-5.65
-5.87
-6.06
-6.05
-5.76
-5.19
-4.41
-3.52
-2.53
-1.47
-0.33
0.81
1.83
2.61
3.07
3.28
3.36
3.49
3.69
3.93
4.07
3.99
3.66
3.16
2.63
2.19
1.91
1.75
1.66
1.60
1.58
1.63
1.71
1.76
1.67
1.35
0.79
0.13
-0.52
-1.02
-1.38
-1.69
-2.10
-2.72
-3.53
-4.43
-5.27
-5.90
-6.30
-6.49
-6.53
-6.48
-6.31
-5.93
-5.26
-4.26
-3.00
-1.64
-0.34
0.77
1.65
2.37
3.03
3.69
4.32
4.86
5.22
5.34
5.22
4.92
4.56
4.23
4.03
3.97
4.06
4.25
4.48
4.67
4.78
4.74
4.55
4.20
3.72
3.17
2.58
2.00
1.40
0.78
0.09
-0.70
-1.57
-2.46
-3.31
-4.05
-4.65
-5.14
-5.55
-5.96
-6.44
-7.01
-7.65
-8.27
-8.72
-8.82
-8.46
-7.60
-6.29
-4.69
-2.96
-1.28
0.24
1.53
2.59
3.50
4.34
5.15
5.90
6.50
6.86
6.93
6.77
6.49
6.20
6.01
5.90
5.84
5.74
5.58
5.37
5.15
4.97
4.83
4.69
4.46
4.07
3.50
2.79
2.07
1.49
1.14
0.99
0.90
0.69
0.21
-0.52
-1.39
-2.19
-2.79
-3.16
-3.41
-3.68
-4.07
-4.60
-5.18
-5.73
-6.18
-6.56
-6.96
-7.38
-7.75
-7.91
-7.66
-6.85
-5.55
-3.91
-2.18
-0.59
0.75
1.87
2.82
3.69
4.47
5.11
5.55
5.78
5.82
5.70
5.50
5.27
5.04
4.87
4.80
4.87
5.07
5.32
5.57
5.71
5.72
5.57
5.30
4.93
4.50
4.01
3.49
2.93
2.32
1.67
0.96
0.24
-0.47
-1.11
-1.61
-1.95
-2.13
-2.19
-2.24
-2.36
-2.62
-3.05
-3.61
-4.25
-4.89
-5.50
-6.10
-6.74
-7.45
-8.22
-8.94
-9.45
-9.60
-9.28
-8.42
-7.07
-5.32
-3.32
-1.27
0.61
2.20
3.41
4.29
4.89
5.31
5.61
5.84
6.02
6.19
6.39
6.57
6.66
6.58
6.29
5.88
5.53
5.42
5.58
5.91
6.19
6.21
5.89
5.25
4.41
3.51
2.63
1.81
1.08
0.45
-0.06
-0.45
-0.76
-1.02
-1.29
-1.57
-1.90
-2.29
-2.78
-3.38
-4.08
-4.85
-5.58
-6.20
-6.63
-6.91
-7.09
-7.25
-7.47
-7.77
-8.16
-8.57
-8.91
-9.04
-8.82
-8.13
-6.92
-5.28
-3.40
-1.51
0.20
1.61
2.73
3.64
4.43
5.15
5.82
6.41
6.89
7.20
7.30
7.13
6.66
5.87
4.86
3.78
2.86
2.26
2.05
2.17
2.46
2.72
2.83
2.75
2.52
2.26
2.05
1.95
1.97
2.05
2.08
1.92
1.49
0.76
-0.18
-1.17
-2.07
-2.78
-3.30
-3.67
-3.94
-4.13
-4.25
-4.27
-4.19
-4.03
-3.83
-3.67
-3.63
-3.77
-4.16
-4.83
-5.73
-6.74
-7.66
-8.23
-8.21
-7.46
-6.01
-4.04
-1.87
0.22
1.99
3.38
4.39
5.13
5.71
6.21
6.68
7.07
7.36
7.46
7.31
6.86
6.15
5.30
4.43
3.70
3.18
2.92
2.85
2.89
2.93
2.88
2.69
2.39
2.05
1.74
1.50
1.31
1.09
0.78
0.31
-0.35
-1.14
-1.96
-2.75
-3.42
-3.94
-4.33
-4.64
-4.97
-5.34
-5.79
-6.27
-6.76
-7.19
-7.50
-7.60
-7.40
-6.85
-5.96
-4.84
-3.68
-2.70
-2.04
-1.72
-1.61
-1.54
-1.34
-0.93
-0.34
0.37
1.11
1.86
2.63
3.45
4.33
5.23
6.08
6.81
7.38
7.80
8.05
8.16
8.07
7.76
7.22
6.48
5.59
4.65
3.70
2.81
2.00
1.27
0.63
0.05
-0.46
-0.93
-1.42
-1.95
-2.58
-3.31
-4.15
-5.06
-6.01
-6.97
-7.89
-8.69
-9.29
-9.57
-9.47
-8.98
-8.15
-7.11
-5.97
-4.83
-3.74
-2.70
-1.67
-0.61
0.52
1.73
2.97
4.14
5.13
5.87
6.28
6.39
6.25
5.97
5.66
5.42
5.37
5.56
5.98
6.51
6.94
7.06
6.77
6.08
5.15
4.19
3.34
2.66
2.08
1.50
0.81
-0.01
-0.93
-1.89
-2.84
-3.70
-4.43
-4.96
-5.25
-5.32
-5.29
-5.30
-5.54
-6.11
-6.98
-8.04
-9.07
-9.87
-10.25
-10.07
-9.28
-7.93
-6.16
-4.23
-2.37
-0.75
0.60
1.77
2.83
3.84
4.77
5.51
6.02
6.26
6.29
6.18
5.97
5.67
5.27
4.81
4.43
4.23
4.27
4.51
4.76
4.84
4.61
4.11
3.48
2.92
2.57
2.44
2.46
2.48
2.42
2.27
2.06
1.80
1.45
0.93
0.20
-0.72
-1.72
-2.63
-3.33
-3.78
-4.03
-4.20
-4.37
-4.58
-4.78
-4.98
-5.21
-5.56
-6.09
-6.73
-7.28
-7.49
-7.11
-6.12
-4.69
-3.12
-1.65
-0.38
0.74
1.83
2.91
3.95
4.80
5.37
5.66
5.73
5.72
5.74
5.85
6.07
6.41
6.82
7.27
7.68
7.99
8.21
8.34
8.40
8.35
8.12
7.65
6.94
6.06
5.10
4.15
3.25
2.39
1.50
0.54
-0.48
-1.56
-2.63
-3.69
-4.72
-5.69
-6.60
-7.39
-8.01
-8.40
-8.55
-8.45
-8.21
-7.93
-7.70
-7.56
-7.42
-7.18
-6.73
-6.02
-5.11
-4.12
-3.13
-2.17
-1.19
-0.11
1.06
2.29
3.49
4.56
5.43
6.11
6.61
6.90
6.99
6.86
6.55
6.15
5.76
5.44
5.20
5.01
4.81
4.60
4.44
4.36
4.40
4.54
4.69
4.75
4.61
4.24
3.64
2.85
1.98
1.08
0.24
-0.51
-1.16
-1.75
-2.33
-2.97
-3.69
-4.46
-5.20
-5.85
-6.38
-6.82
-7.28
-7.85
-8.55
-9.34
-10.03
-10.43
-10.34
-9.64
-8.32
-6.50
-4.37
-2.12
0.05
1.99
3.59
4.78
5.54
5.91
5.99
5.90
5.78
5.67
5.58
5.47
5.27
4.98
4.64
4.31
4.08
3.95
3.84
3.73
3.61
3.48
3.39
3.34
3.33
3.32
3.29
3.24
3.17
3.08
2.93
2.63
2.13
1.41
0.54
-0.40
-1.32
-2.17
-2.92
-3.56
-4.08
-4.46
-4.72
-4.89
-5.01
-5.16
-5.38
-5.68
-6.05
-6.50
-7.03
-7.65
-8.36
-9.05
-9.55
-9.65
-9.14
-7.93
-6.06
-3.76
-1.35
0.82
2.51
3.57
4.03
4.00
3.66
3.17
2.68
2.33
2.18
2.30
2.67
3.25
3.97
4.68
5.26
5.57
5.55
5.18
4.55
3.79
3.04
2.38
1.82
1.35
0.94
0.66
0.59
0.79
1.22
1.71
2.05
2.03
1.60
0.84
-0.06
-0.92
-1.63
-2.21
-2.72
-3.24
-3.74
-4.19
-4.58
-4.90
-5.24
-5.66
-6.21
-6.88
-7.57
-8.21
-8.69
-8.95
-8.90
-8.54
-7.82
-6.76
-5.43
-3.94
-2.43
-1.00
0.31
1.54
2.71
3.81
4.78
5.53
5.97
6.12
6.09
6.01
5.99
6.02
6.04
5.94
5.69
5.34
5.01
4.78
4.65
4.56
4.41
4.19
3.94
3.74
3.62
3.55
3.42
3.10
2.56
1.84
1.08
0.37
-0.22
-0.71
-1.17
-1.65
-2.20
-2.76
-3.31
-3.75
-4.04
-4.16
-4.16
-4.11
-4.11
-4.20
-4.43
-4.81
-5.32
-5.95
-6.63
-7.25
-7.64
-7.63
-7.10
-6.10
-4.78
-3.36
-2.02
-0.84
0.15
0.99
1.71
2.26
2.62
2.78
2.80
2.78
2.82
2.96
3.20
3.51
3.83
4.15
4.43
4.64
4.75
4.71
4.53
4.22
3.84
3.44
3.05
2.64
2.17
1.61
0.98
0.31
-0.36
-1.00
-1.66
-2.39
-3.23
-4.15
-5.01
-5.67
-6.00
-6.02
-5.84
-5.64
-5.57
-5.72
-6.09
-6.66
-7.40
-8.26
-9.17
-9.98
-10.49
-10.49
-9.88
-8.66
-6.96
-4.99
-2.99
-1.12
0.53
1.94
3.12
4.11
4.96
5.71
6.39
7.02
7.54
7.89
8.00
7.85
7.50
7.08
6.76
6.65
6.79
7.11
7.44
7.63
7.55
7.15
6.45
5.56
4.55
3.54
2.58
1.68
0.83
0.04
-0.67
-1.26
-1.74
-2.20
-2.73
-3.41
-4.26
-5.22
-6.18
-7.05
-7.78
-8.36
-8.78
-8.99
-8.92
-8.45
-7.57
-6.31
-4.79
-3.17
-1.59
-0.18
0.98
1.88
2.55
3.09
3.61
4.20
4.88
5.62
6.35
6.98
7.48
7.86
8.18
8.47
8.76
9.01
9.18
9.21
9.07
8.73
8.16
7.36
6.33
5.08
3.63
2.03
0.35
-1.34
-2.96
-4.43
-5.73
-6.83
-7.78
-8.63
-9.42
-10.17
-10.84
-11.33
-11.54
-11.34
-10.66
-9.49
-7.89
-6.00
-4.03
-2.17
-0.56
0.71
1.67
2.37
2.88
3.21
3.35
3.25
2.88
2.23
1.39
0.45
-0.45
-1.24
-1.83
-2.18
-2.22
-1.89
-1.17
-0.08
1.26
2.69
4.00
5.02
5.67
5.96
5.96
5.72
5.27
4.61
3.74
2.65
1.34
-0.15
-1.79
-3.56
-5.39
-7.18
-8.76
-9.97
-10.68
-10.82
-10.43
-9.60
-8.43
-7.05
-5.61
-4.20
-2.94
-1.87
-1.00
-0.24
0.53
1.41
2.50
3.81
5.29
6.80
8.21
9.40
10.30
10.87
11.13
11.13
10.89
10.44
9.79
8.98
8.03
7.01
5.93
4.80
3.61
2.31
0.89
-0.65
-2.30
-4.04
-5.83
-7.57
-9.18
-10.52
-11.52
-12.19
-12.60
-12.86
-13.02
-13.05
-12.83
-12.23
-11.17
-9.62
-7.60
-5.13
-2.23
0.99
4.33
7.42
9.88
11.45
12.09
12.00
11.57
11.14
10.88
10.77
10.64
10.32
9.76
9.00
8.18
7.45
6.87
6.45
6.14
5.95
5.88
5.99
6.33
6.89
7.59
8.33
9.03
9.60
10.06
10.43
10.72
10.83
10.62
9.92
8.64
6.80
4.60
2.31
0.15
-1.69
-3.21
-4.52
-5.76
-7.08
-8.53
-10.05
-11.45
-12.54
-13.12
-13.15
-12.75
-12.12
-11.46
-10.87
-10.30
-9.57
-8.55
-7.20
-5.58
-3.84
-2.13
-0.53
0.94
2.31
3.60
4.79
5.81
6.56
7.01
7.15
7.05
6.87
6.73
6.73
6.86
7.02
7.08
6.93
6.56
6.05
5.53
5.13
4.88
4.70
4.44
3.98
3.23
2.23
1.07
-0.10
-1.18
-2.08
-2.73
-3.13
-3.26
-3.17
-2.92
-2.62
-2.40
-2.33
-2.42
-2.63
-2.88
-3.11
-3.31
-3.49
-3.74
-4.15
-4.77
-5.59
-6.50
-7.35
-7.97
-8.25
-8.16
-7.73
-7.08
-6.29
-5.42
-4.48
-3.43
-2.27
-0.99
0.39
1.79
3.10
4.22
5.05
5.54
5.71
5.67
5.59
5.61
5.85
6.29
6.85
7.34
7.56
7.35
6.69
5.65
4.47
3.38
2.62
2.25
2.20
2.25
2.18
1.86
1.25
0.51
-0.19
-0.67
-0.92
-0.99
-1.01
-1.09
-1.29
-1.64
-2.17
-2.96
-4.01
-5.28
-6.54
-7.55
-8.07
-8.07
-7.72
-7.28
-7.01
-7.01
-7.24
-7.55
-7.82
-8.02
-8.12
-8.10
-7.86
-7.30
-6.36
-5.08
-3.60
-2.11
-0.72
0.50
1.56
2.51
3.36
4.09
4.68
5.07
5.25
5.22
5.04
4.81
4.63
4.58
4.68
4.84
4.94
4.86
4.58
4.19
3.83
3.66
3.72
3.91
4.06
4.03
3.76
3.34
2.88
2.50
2.20
1.92
1.57
1.11
0.56
-0.00
-0.49
-0.89
-1.22
-1.52
-1.82
-2.16
-2.55
-3.02
-3.55
-4.12
-4.68
-5.19
-5.66
-6.08
-6.45
-6.79
-7.11
-7.44
-7.79
-8.16
-8.44
-8.46
-8.02
-7.03
-5.53
-3.77
-2.04
-0.58
0.50
1.28
1.93
2.55
3.18
3.76
4.23
4.53
4.67
4.69
4.60
4.42
4.12
3.70
3.22
2.78
2.50
2.46
2.65
3.01
3.43
3.78
3.98
3.96
3.71
3.25
2.68
2.14
1.76
1.62
1.67
1.80
1.82
1.56
1.00
0.21
-0.69
-1.58
-2.35
-3.01
-3.60
-4.15
-4.69
-5.19
-5.62
-5.97
-6.27
-6.57
-6.96
-7.46
-8.04
-8.64
-9.22
-9.71
-10.09
-10.26
-10.13
-9.60
-8.63
-7.31
-5.81
-4.31
-2.95
-1.75
-0.65
0.43
1.51
2.55
3.51
4.31
4.96
5.44
5.72
5.73
5.41
4.78
3.94
3.10
2.45
2.12
2.13
2.37
2.67
2.93
3.08
3.16
3.25
3.37
3.49
3.50
3.31
2.92
2.44
1.99
1.68
1.49
1.31
1.00
0.52
-0.07
-0.61
-0.98
-1.17
-1.26
-1.41
-1.76
-2.30
-2.98
-3.69
-4.35
-4.96
-5.50
-5.99
-6.39
-6.69
-6.86
-6.92
-6.89
-6.76
-6.46
-5.94
-5.16
-4.16
-3.03
-1.82
-0.55
0.83
2.34
3.93
5.43
6.65
7.40
7.62
7.40
6.88
6.27
5.73
5.37
5.21
5.24
5.38
5.51
5.56
5.45
5.19
4.78
4.26
3.66
3.01
2.34
1.69
1.09
0.53
-0.02
-0.56
-1.12
-1.70
-2.27
-2.86
-3.50
-4.20
-4.90
-5.45
-5.71
-5.61
-5.25
-4.80
-4.51
-4.54
-4.92
-5.57
-6.29
-6.92
-7.30
-7.34
-7.01
-6.29
-5.23
-3.90
-2.43
-0.94
0.46
1.68
2.66
3.39
3.92
4.34
4.79
5.33
6.00
6.79
7.58
8.22
8.55
8.44
7.87
6.92
5.76
4.63
3.73
3.17
2.92
2.91
3.03
3.16
3.27
3.31
3.22
3.01
2.68
2.28
1.81
1.27
0.57
-0.37
-1.53
-2.81
-4.02
-5.00
-5.70
-6.18
-6.57
-6.94
-7.31
-7.62
-7.80
-7.85
-7.82
-7.74
-7.55
-7.12
-6.30
-5.06
-3.54
-2.02
-0.76
0.07
0.57
0.91
1.32
1.90
2.64
3.41
4.09
4.66
5.16
5.66
6.21
6.79
7.28
7.55
7.53
7.23
6.76
6.24
5.76
5.34
4.92
4.45
3.90
3.38
3.00
2.85
2.91
3.04
3.02
2.70
2.03
1.10
0.09
-0.83
-1.57
-2.14
-2.61
-3.07
-3.55
-4.05
-4.56
-5.10
-5.70
-6.43
-7.32
-8.35
-9.42
-10.41
-11.17
-11.57
-11.53
-11.01
-9.97
-8.46
-6.56
-4.42
-2.25
-0.29
1.28
2.37
3.03
3.39
3.68
4.09
4.71
5.50
6.34
7.08
7.60
7.81
7.72
7.34
6.71
5.90
5.05
4.34
3.94
3.92
4.27
4.80
5.31
5.60
5.61
5.39
5.03
4.62
4.19
3.73
3.18
2.48
1.57
0.43
-0.88
-2.25
-3.52
-4.53
-5.19
-5.54
-5.71
-5.86
-6.10
-6.43
-6.82
-7.19
-7.52
-7.85
-8.24
-8.73
-9.32
-9.96
-10.51
-10.82
-10.71
-10.03
-8.74
-6.89
-4.66
-2.30
-0.04
1.94
3.55
4.77
5.65
6.25
6.64
6.88
6.97
6.94
6.83
6.70
6.63
6.64
6.77
6.96
7.17
7.35
7.46
7.49
7.40
7.16
6.74
6.19
5.60
5.09
4.75
4.58
4.50
4.34
3.99
3.44
2.71
1.94
1.22
0.63
0.19
-0.12
-0.36
-0.61
-0.96
-1.47
-2.17
-3.01
-3.91
-4.78
-5.62
-6.44
-7.27
-8.12
-8.94
-9.68
-10.33
-10.92
-11.45
-11.83
-11.84
-11.22
-9.83
-7.74
-5.23
-2.72
-0.49
1.33
2.80
4.07
5.19
6.11
6.71
6.91
6.76
6.44
6.16
6.07
6.19
6.45
6.69
6.83
6.85
6.80
6.75
6.75
6.76
6.74
6.62
6.35
5.97
5.51
5.06
4.64
4.25
3.86
3.41
2.90
2.35
1.77
1.20
0.61
-0.05
-0.79
-1.62
-2.49
-3.33
-4.06
-4.66
-5.16
-5.63
-6.15
-6.77
-7.50
-8.26
-9.00
-9.65
-10.17
-10.56
-10.77
-10.73
-10.35
-9.56
-8.33
-6.70
-4.83
-2.88
-1.03
0.61
2.02
3.22
4.24
5.11
5.80
6.26
6.45
6.38
6.08
5.62
5.08
4.53
4.08
3.81
3.80
4.09
4.62
5.20
5.60
5.62
5.18
4.38
3.41
2.47
1.66
1.00
0.45
-0.06
-0.53
-0.93
-1.28
-1.58
-1.91
-2.32
-2.80
-3.35
-3.93
-4.55
-5.27
-6.13
-7.13
-8.21
-9.24
-10.08
-10.69
-11.06
-11.24
-11.26
-11.06
-10.48
-9.36
-7.60
-5.27
-2.61
0.04
2.33
4.07
5.25
6.06
6.75
7.45
8.20
8.84
9.17
9.08
8.58
7.83
7.05
6.42
5.95
5.60
5.25
4.88
4.50
4.22
4.11
4.18
4.37
4.57
4.67
4.61
4.36
3.90
3.26
2.50
1.70
0.96
0.35
-0.12
-0.51
-0.97
-1.65
-2.58
-3.70
-4.81
-5.72
-6.28
-6.54
-6.67
-6.90
-7.39
-8.18
-9.17
-10.19
-11.07
-11.70
-11.95
-11.75
-10.96
-9.51
-7.47
-5.06
-2.55
-0.23
1.70
3.22
4.37
5.26
5.96
6.51
6.91
7.17
7.27
7.23
7.09
6.86
6.62
6.40
6.24
6.16
6.12
6.11
6.12
6.19
6.30
6.39
6.35
6.10
5.63
5.01
4.37
3.81
3.38
2.98
2.46
1.67
0.60
-0.66
-1.95
-3.14
-4.13
-4.91
-5.49
-5.91
-6.17
-6.34
-6.50
-6.76
-7.21
-7.91
-8.80
-9.73
-10.52
-10.92
-10.76
-9.93
-8.45
-6.48
-4.24
-2.01
0.05
1.88
3.52
5.04
6.48
7.76
8.77
9.37
9.50
9.17
8.53
7.77
7.04
6.48
6.10
5.90
5.81
5.76
5.68
5.57
5.48
5.42
5.43
5.49
5.51
5.44
5.16
4.63
3.84
2.83
1.67
0.46
-0.70
-1.78
-2.71
-3.54
-4.27
-4.94
-5.59
-6.21
-6.79
-7.30
-7.74
-8.12
-8.51
-9.00
-9.67
-10.60
-11.72
-12.91
-13.86
-14.29
-13.92
-12.70
-10.72
-8.27
-5.66
-3.18
-0.97
0.94
2.61
4.14
5.56
6.84
7.91
8.66
9.03
9.05
8.80
8.43
8.07
7.77
7.51
7.20
6.79
6.32
5.89
5.65
5.67
5.90
6.21
6.42
6.38
6.01
5.32
4.39
3.30
2.13
0.96
-0.15
-1.15
-2.04
-2.88
-3.71
-4.55
-5.36
-6.07
-6.61
-6.99
-7.25
-7.51
-7.89
-8.44
-9.17
-9.97
-10.73
-11.24
-11.30
-10.74
-9.51
-7.68
-5.47
-3.14
-0.92
1.05
2.76
4.27
5.66
6.97
8.16
9.15
9.86
10.22
10.22
9.90
9.35
8.67
7.98
7.34
6.82
6.38
5.97
5.55
5.09
4.63
4.23
3.96
3.86
3.89
4.02
4.22
4.49
4.83
5.22
5.61
5.92
6.05
5.95
5.62
5.08
4.31
3.25
1.79
-0.11
-2.36
-4.83
-7.29
-9.55
-11.50
-13.11
-14.46
-15.61
-16.57
-17.24
-17.48
-17.10
-16.00
-14.21
-11.84
-9.10
-6.22
-3.40
-0.81
1.43
3.27
4.69
5.75
6.57
7.27
7.93
8.56
9.08
9.44
9.59
9.57
9.45
9.31
9.19
9.09
8.96
8.77
8.45
7.96
7.22
6.20
4.91
3.41
1.82
0.27
-1.09
-2.15
-2.84
-3.12
-3.01
-2.53
-1.83
-1.10
-0.59
-0.49
-0.92
-1.82
-3.00
-4.23
-5.35
-6.30
-7.10
-7.85
-8.59
-9.34
-10.05
-10.68
-11.17
-11.44
-11.39
-10.83
-9.66
-7.86
-5.58
-3.09
-0.71
1.34
3.00
4.35
5.49
6.54
7.46
8.19
8.62
8.73
8.62
8.42
8.26
8.16
7.99
7.60
6.84
5.77
4.57
3.55
2.99
2.96
3.30
3.69
3.80
3.40
2.48
1.21
-0.11
-1.21
-1.91
-2.13
-2.02
-1.74
-1.54
-1.54
-1.76
-2.10
-2.39
-2.56
-2.63
-2.76
-3.10
-3.74
-4.64
-5.68
-6.72
-7.66
-8.43
-8.95
-9.10
-8.80
-7.97
-6.63
-4.86
-2.81
-0.66
1.39
3.17
4.52
5.39
5.87
6.11
6.31
6.59
6.96
7.31
7.52
7.50
7.28
6.95
6.57
6.20
5.86
5.53
5.26
5.13
5.12
5.23
5.30
5.19
4.80
4.13
3.27
2.37
1.58
0.97
0.55
0.24
-0.02
-0.29
-0.65
-1.12
-1.75
-2.50
-3.36
-4.22
-5.03
-5.75
-6.38
-6.95
-7.52
-8.10
-8.68
-9.26
-9.72
-9.94
-9.81
-9.18
-8.04
-6.39
-4.35
-2.12
0.07
2.01
3.54
4.60
5.26
5.62
5.84
6.03
6.17
6.18
5.94
5.42
4.69
3.95
3.38
3.12
3.17
3.46
3.82
4.19
4.48
4.70
4.86
4.90
4.76
4.33
3.54
2.41
1.09
-0.21
-1.32
-2.13
-2.73
-3.26
-3.84
-4.50
-5.14
-5.59
-5.79
-5.77
-5.71
-5.85
-6.34
-7.19
-8.30
-9.49
-10.55
-11.33
-11.66
-11.42
-10.53
-8.96
-6.83
-4.33
-1.74
0.71
2.81
4.46
5.62
6.34
6.70
6.78
6.70
6.55
6.39
6.24
6.13
6.08
6.10
6.18
6.27
6.32
6.28
6.18
6.07
6.04
6.09
6.14
6.00
5.45
4.41
2.96
1.30
-0.23
-1.38
-2.00
-2.13
-1.96
-1.77
-1.78
-2.12
-2.78
-3.64
-4.55
-5.40
-6.14
-6.80
-7.42
-8.02
-8.55
-8.96
-9.27
-9.55
-9.87
-10.26
-10.62
-10.72
-10.35
-9.38
-7.86
-6.00
-4.08
-2.34
-0.88
0.30
1.28
2.15
2.99
3.84
4.70
5.51
6.19
6.63
6.81
6.77
6.65
6.58
6.62
6.72
6.76
6.62
6.27
5.76
5.22
4.72
4.28
3.85
3.35
2.75
2.09
1.44
0.87
0.45
0.19
0.05
-0.06
-0.21
-0.50
-0.94
-1.51
-2.17
-2.89
-3.69
-4.57
-5.49
-6.38
-7.15
-7.75
-8.19
-8.62
-9.17
-9.89
-10.71
-11.38
-11.64
-11.29
-10.30
-8.84
-7.19
-5.63
-4.26
-3.07
-1.90
-0.61
0.83
2.33
3.68
4.73
5.42
5.85
6.16
6.46
6.79
7.07
7.23
7.26
7.21
7.18
7.24
7.39
7.55
7.61
7.50
7.20
6.70
6.03
5.16
4.08
2.78
1.35
-0.10
-1.42
-2.51
-3.35
-3.96
-4.37
-4.58
-4.56
-4.32
-3.94
-3.56
-3.35
-3.41
-3.76
-4.31
-4.96
-5.62
-6.24
-6.84
-7.35
-7.72
-7.85
-7.69
-7.23
-6.52
-5.59
-4.47
-3.16
-1.70
-0.15
1.37
2.80
4.04
5.06
5.83
6.38
6.71
6.83
6.78
6.62
6.39
6.14
5.91
5.70
5.53
5.39
5.27
5.14
5.01
4.89
4.75
4.54
4.18
3.63
2.85
1.90
0.88
-0.06
-0.82
-1.36
-1.67
-1.78
-1.75
-1.63
-1.42
-1.17
-0.96
-0.88
-1.02
-1.48
-2.24
-3.19
-4.14
-4.92
-5.46
-5.85
-6.28
-6.94
-7.93
-9.12
-10.25
-11.00
-11.16
-10.68
-9.66
-8.25
-6.60
-4.79
-2.88
-0.95
0.85
2.38
3.48
4.11
4.32
4.32
4.31
4.48
4.89
5.45
6.02
6.44
6.63
6.61
6.47
6.32
6.20
6.13
6.05
5.92
5.76
5.59
5.40
5.20
4.90
4.44
3.80
3.00
2.14
1.34
0.67
0.18
-0.16
-0.44
-0.83
-1.40
-2.20
-3.17
-4.16
-5.02
-5.66
-6.07
-6.35
-6.64
-7.06
-7.67
-8.43
-9.23
-10.00
-10.66
-11.13
-11.38
-11.30
-10.79
-9.74
-8.17
-6.17
-3.97
-1.82
0.04
1.50
2.58
3.39
4.08
4.72
5.33
5.81
6.12
6.23
6.18
6.05
5.90
5.78
5.67
5.55
5.40
5.23
5.07
4.95
4.92
4.95
4.99
4.97
4.77
4.30
3.57
2.65
1.72
0.99
0.59
0.56
0.78
1.01
1.04
0.72
0.07
-0.78
-1.62
-2.32
-2.80
-3.08
-3.23
-3.35
-3.53
-3.88
-4.51
-5.52
-6.90
-8.51
-10.06
-11.22
-11.70
-11.41
-10.37
-8.81
-6.93
-4.94
-2.92
-0.94
0.92
2.60
3.99
5.07
5.84
6.39
6.75
6.98
7.06
7.01
6.87
6.68
6.49
6.31
6.06
5.72
5.31
4.95
4.77
4.86
5.19
5.60
5.92
6.01
5.88
5.57
5.20
4.80
4.37
3.87
3.28
2.56
1.72
0.70
-0.55
-2.02
-3.66
-5.30
-6.76
-7.84
-8.44
-8.58
-8.45
-8.28
-8.31
-8.64
-9.23
-9.88
-10.37
-10.48
-10.12
-9.30
-8.09
-6.57
-4.82
-2.92
-0.98
0.89
2.57
3.99
5.15
6.07
6.79
7.32
7.68
7.90
8.04
8.13
8.17
8.09
7.81
7.28
6.57
5.87
5.33
5.09
5.13
5.30
5.43
5.39
5.17
4.84
4.47
4.13
3.78
3.37
2.83
2.13
1.27
0.32
-0.65
-1.56
-2.34
-2.98
-3.49
-3.95
-4.44
-5.09
-5.97
-7.10
-8.39
-9.67
-10.76
-11.46
-11.65
-11.26
-10.30
-8.86
-7.09
-5.16
-3.21
-1.36
0.35
1.87
3.18
4.27
5.18
5.91
6.47
6.86
7.09
7.16
7.14
7.13
7.22
7.49
7.89
8.27
8.41
8.13
7.33
6.03
4.39
2.64
0.99
-0.38
-1.41
-2.14
-2.67
-3.06
-3.31
-3.39
-3.22
-2.83
-2.28
-1.67
-1.11
-0.66
-0.28
0.02
0.20
0.14
-0.28
-1.14
-2.40
-3.91
-5.43
-6.71
-7.60
-8.02
-8.00
-7.61
-6.94
-6.07
-5.11
-4.12
-3.21
-2.41
-1.71
-1.05
-0.36
0.40
1.22
2.01
2.69
3.24
3.70
4.15
4.65
5.20
5.73
6.16
6.45
6.66
6.90
7.25
7.71
8.17
8.50
8.57
8.34
7.81
7.02
5.97
4.68
3.15
1.50
-0.15
-1.68
-3.03
-4.24
-5.40
-6.54
-7.61
-8.50
-9.08
-9.28
-9.14
-8.78
-8.35
-7.89
-7.35
-6.59
-5.47
-3.95
-2.12
-0.20
1.60
3.11
4.29
5.22
5.98
6.60
7.05
7.30
7.32
7.15
6.86
6.48
6.00
5.43
4.77
4.14
3.66
3.45
3.54
3.81
4.08
4.22
4.17
4.00
3.82
3.70
3.60
3.41
2.99
2.27
1.28
0.13
-1.07
-2.22
-3.30
-4.34
-5.39
-6.45
-7.50
-8.49
-9.36
-10.09
-10.68
-11.10
-11.32
-11.26
-10.83
-9.94
-8.59
-6.86
-4.90
-2.88
-0.97
0.72
2.11
3.18
3.95
4.50
4.89
5.20
5.47
5.70
5.90
6.04
6.18
6.33
6.55
6.83
7.11
7.28
7.23
6.86
6.18
5.25
4.21
3.17
2.21
1.33
0.50
-0.30
-1.06
-1.76
-2.38
-2.97
-3.58
-4.28
-5.02
-5.68
-6.13
-6.30
-6.29
-6.34
-6.64
-7.26
-8.04
-8.66
-8.76
-8.17
-6.95
-5.38
-3.77
-2.37
-1.24
-0.31
0.55
1.42
2.36
3.32
4.22
4.97
5.47
5.67
5.57
5.24
4.78
4.32
3.93
3.62
3.36
3.13
2.98
3.00
3.23
3.62
4.01
4.15
3.90
3.25
2.32
1.36
0.55
-0.05
-0.56
-1.13
-1.87
-2.79
-3.75
-4.61
-5.25
-5.68
-6.01
-6.39
-6.92
-7.58
-8.25
-8.74
-8.91
-8.63
-7.89
-6.70
-5.17
-3.43
-1.64
0.05
1.56
2.85
3.93
4.81
5.54
6.08
6.41
6.52
6.40
6.12
5.76
5.41
5.12
4.90
4.73
4.56
4.40
4.25
4.16
4.14
4.15
4.12
3.94
3.53
2.84
1.96
1.00
0.12
-0.56
-1.00
-1.27
-1.49
-1.78
-2.21
-2.77
-3.38
-3.87
-4.16
-4.18
-4.03
-3.86
-3.88
-4.22
-4.91
-5.85
-6.86
-7.77
-8.45
-8.88
-9.01
-8.76
-8.04
-6.74
-4.91
-2.73
-0.49
1.53
3.19
4.51
5.56
6.40
7.00
7.28
7.19
6.74
6.05
5.29
4.62
4.15
3.92
3.92
4.10
4.40
4.70
4.92
4.95
4.75
4.32
3.70
2.97
2.20
1.49
0.92
0.53
0.36
0.36
0.46
0.50
0.37
-0.03
-0.73
-1.67
-2.75
-3.86
-4.86
-5.65
-6.19
-6.48
-6.63
-6.79
-7.08
-7.60
-8.33
-9.17
-9.91
-10.34
-10.24
-9.47
-8.02
-6.02
-3.74
-1.53
0.37
1.81
2.87
3.69
4.40
5.04
5.57
5.92
6.12
6.21
6.28
6.36
6.39
6.29
6.01
5.61
5.22
4.96
4.88
4.90
4.87
4.65
4.16
3.47
2.70
2.04
1.57
1.29
1.11
0.91
0.58
0.07
-0.58
-1.35
-2.21
-3.15
-4.14
-5.13
-6.05
-6.84
-7.46
-7.92
-8.32
-8.71
-9.15
-9.62
-10.02
-10.19
-9.97
-9.27
-8.08
-6.50
-4.71
-2.90
-1.23
0.25
1.57
2.77
3.88
4.88
5.70
6.27
6.57
6.64
6.55
6.43
6.31
6.20
6.06
5.84
5.52
5.13
4.74
4.41
4.19
4.04
3.87
3.59
3.12
2.49
1.78
1.10
0.50
0.00
-0.50
-1.11
-1.87
-2.77
-3.66
-4.43
-4.99
-5.42
-5.82
-6.34
-7.05
-7.92
-8.81
-9.55
-9.97
-9.94
-9.44
-8.51
-7.28
-5.90
-4.49
-3.16
-1.97
-0.94
-0.05
0.76
1.55
2.38
3.28
4.23
5.17
6.00
6.60
6.90
6.87
6.56
6.02
5.38
4.75
4.23
3.90
3.75
3.72
3.73
3.74
3.69
3.57
3.33
2.91
2.26
1.37
0.29
-0.87
-2.03
-3.12
-4.18
-5.23
-6.31
-7.40
-8.41
-9.24
-9.79
-10.00
-9.80
-9.19
-8.15
-6.77
-5.13
-3.37
-1.62
0.02
1.51
2.82
3.92
4.79
5.41
5.77
5.91
5.90
5.81
5.68
5.53
5.37
5.20
5.07
4.99
4.97
5.04
5.16
5.31
5.43
5.47
5.35
5.02
4.47
3.71
2.80
1.82
0.83
-0.13
-1.03
-1.89
-2.69
-3.42
-4.07
-4.64
-5.15
-5.66
-6.16
-6.63
-7.05
-7.39
-7.60
-7.64
-7.45
-6.95
-6.12
-4.95
-3.53
-1.98
-0.42
1.05
2.42
3.67
4.80
5.77
6.49
6.86
6.81
6.33
5.49
4.42
3.32
2.41
1.87
1.84
2.35
3.32
4.55
5.78
6.76
7.33
7.43
7.09
6.40
5.45
4.31
3.06
1.78
0.56
-0.52
-1.44
-2.24
-2.99
-3.76
-4.54
-5.24
-5.82
-6.26
-6.70
-7.33
-8.32
-9.69
-11.32
-12.91
-14.15
-14.76
-14.61
-13.71
-12.15
-10.04
-7.52
-4.75
-1.91
0.83
3.28
5.34
6.93
8.02
8.66
8.88
8.82
8.59
8.35
8.15
8.02
7.94
7.87
7.87
7.99
8.31
8.80
9.35
9.74
9.81
9.44
8.62
7.42
5.95
4.32
2.67
1.12
-0.21
-1.22
-1.88
-2.19
-2.23
-2.10
-1.93
-1.84
-1.96
-2.36
-3.05
-3.94
-4.95
-5.97
-6.97
-7.94
-8.84
-9.66
-10.33
-10.79
-11.03
-11.02
-10.72
-10.05
-8.90
-7.21
-5.04
-2.64
-0.36
1.46
2.67
3.32
3.62
3.84
4.14
4.57
5.05
5.50
5.88
6.21
6.56
6.96
7.36
7.66
7.78
7.68
7.41
7.05
6.70
6.43
6.29
6.30
6.42
6.63
6.82
6.93
6.87
6.63
6.21
5.63
4.87
3.95
2.89
1.77
0.71
-0.18
-0.91
-1.54
-2.19
-2.95
-3.82
-4.70
-5.52
-6.19
-6.74
-7.28
-7.88
-8.61
-9.46
-10.39
-11.27
-11.96
-12.29
-12.08
-11.26
-9.81
-7.87
-5.62
-3.29
-1.05
0.99
2.78
4.35
5.71
6.85
7.72
8.21
8.25
7.84
7.09
6.14
5.23
4.53
4.11
4.02
4.22
4.67
5.34
6.18
7.11
8.02
8.77
9.19
9.14
8.56
7.44
5.92
4.19
2.47
0.96
-0.21
-1.03
-1.57
-1.91
-2.15
-2.33
-2.52
-2.74
-3.02
-3.35
-3.70
-4.06
-4.45
-4.93
-5.59
-6.49
-7.64
-8.99
-10.41
-11.77
-12.92
-13.71
-13.97
-13.53
-12.28
-10.28
-7.76
-5.07
-2.61
-0.65
0.75
1.69
2.34
2.89
3.42
3.96
4.47
4.94
5.34
5.64
5.82
5.87
5.79
5.67
5.56
5.52
5.56
5.64
5.73
5.81
5.91
6.04
6.14
6.15
5.95
5.50
4.82
4.02
3.22
2.54
2.01
1.56
1.10
0.54
-0.10
-0.72
-1.18
-1.41
-1.47
-1.50
-1.73
-2.29
-3.19
-4.29
-5.40
-6.39
-7.24
-8.07
-9.02
-10.17
-11.45
-12.66
-13.54
-13.84
-13.42
-12.30
-10.60
-8.48
-6.09
-3.55
-1.02
1.34
3.39
4.99
6.08
6.69
6.86
6.67
6.14
5.31
4.21
2.88
1.42
-0.06
-1.41
-2.47
-3.09
-3.20
-2.75
-1.81
-0.48
1.08
2.75
4.50
6.35
8.33
10.48
12.67
14.72
16.41
17.56
18.10
18.03
17.43
16.37
14.91
13.11
11.02
8.73
6.30
3.75
1.07
-1.72
-4.56
-7.27
-9.63
-11.45
-12.66
-13.36
-13.78
-14.13
-14.59
-15.13
-15.57
-15.62
-15.04
-13.71
-11.71
-9.27
-6.70
-4.32
-2.34
-0.87
0.09
0.59
0.70
0.53
0.17
-0.24
-0.63
-0.94
-1.15
-1.30
-1.42
-1.54
-1.59
-1.46
-1.01
-0.10
1.24
2.90
4.62
6.16
7.32
8.04
8.37
8.44
8.38
8.27
8.17
8.07
7.96
7.84
7.73
7.64
7.58
7.51
7.36
7.03
6.46
5.67
4.70
3.67
2.62
1.50
0.18
-1.55
-3.80
-6.54
-9.49
-12.22
-14.25
-15.19
-14.93
-13.58
-11.51
-9.15
-6.90
-4.95
-3.37
-2.02
-0.75
0.58
1.99
3.38
4.60
5.45
5.80
5.64
5.04
4.20
3.30
2.55
2.06
1.90
2.05
2.46
2.99
3.53
3.95
4.18
4.19
4.04
3.80
3.54
3.28
3.00
2.65
2.14
1.44
0.55
-0.44
-1.42
-2.27
-2.92
-3.37
-3.69
-3.95
-4.20
-4.48
-4.80
-5.23
-5.83
-6.68
-7.78
-9.02
-10.19
-11.04
-11.35
-11.02
-10.08
-8.71
-7.14
-5.60
-4.25
-3.13
-2.18
-1.24
-0.20
0.97
2.21
3.34
4.20
4.67
4.78
4.62
4.39
4.25
4.28
4.51
4.82
5.12
5.32
5.41
5.42
5.38
5.28
5.08
4.69
4.07
3.23
2.28
1.39
0.69
0.28
0.09
-0.05
-0.36
-0.99
-1.94
-3.07
-4.13
-4.96
-5.53
-5.99
-6.55
-7.37
-8.44
-9.63
-10.76
-11.73
-12.57
-13.31
-13.92
-14.25
-14.04
-13.10
-11.38
-9.04
-6.39
-3.80
-1.51
0.40
1.98
3.39
4.73
6.01
7.18
8.16
8.82
9.14
9.13
8.92
8.63
8.39
8.22
8.11
7.93
7.57
6.97
6.17
5.26
4.37
3.58
2.92
2.36
1.87
1.40
0.92
0.42
-0.08
-0.59
-1.13
-1.76
-2.53
-3.43
-4.41
-5.34
-6.09
-6.57
-6.76
-6.80
-6.84
-7.05
-7.49
-8.10
-8.79
-9.44
-9.96
-10.21
-10.06
-9.40
-8.16
-6.39
-4.26
-2.06
-0.07
1.52
2.68
3.52
4.18
4.80
5.37
5.83
6.04
5.89
5.36
4.57
3.74
3.08
2.76
2.79
3.07
3.44
3.80
4.09
4.36
4.59
4.76
4.74
4.42
3.74
2.77
1.61
0.41
-0.68
-1.62
-2.41
-3.09
-3.74
-4.40
-5.08
-5.77
-6.42
-7.00
-7.52
-8.01
-8.49
-8.92
-9.17
-9.05
-8.36
-6.99
-4.97
-2.52
0.12
2.67
4.90
6.70
8.05
9.01
9.66
10.11
10.43
10.64
10.70
10.56
10.20
9.64
8.97
8.22
7.44
6.66
5.91
5.23
4.71
4.42
4.33
4.35
4.30
4.08
3.68
3.19
2.73
2.41
2.21
2.07
1.91
1.64
1.27
0.77
0.12
-0.73
-1.80
-3.05
-4.37
-5.60
-6.64
-7.49
-8.28
-9.15
-10.15
-11.17
-11.97
-12.25
-11.80
-10.54
-8.57
-6.09
-3.35
-0.61
1.90
4.00
5.62
6.80
7.66
8.38
9.09
9.80
10.41
10.76
10.74
10.37
9.78
9.15
8.64
8.27
8.03
7.85
7.73
7.73
7.87
8.12
8.33
8.27
7.79
6.85
5.58
4.16
2.83
1.71
0.84
0.17
-0.41
-0.98
-1.57
-2.19
-2.77
-3.28
-3.70
-4.06
-4.47
-5.01
-5.72
-6.59
-7.54
-8.55
-9.59
-10.71
-11.87
-12.99
-13.88
-14.28
-13.96
-12.81
-10.85
-8.29
-5.42
-2.60
-0.12
1.83
3.26
4.28
5.08
5.79
6.48
7.11
7.64
8.02
8.25
8.37
8.41
8.40
8.38
8.37
8.36
8.33
8.21
7.94
7.49
6.86
6.13
5.36
4.62
3.92
3.25
2.65
2.14
1.79
1.58
1.45
1.28
0.97
0.50
-0.11
-0.77
-1.43
-2.03
-2.59
-3.12
-3.65
-4.22
-4.89
-5.67
-6.55
-7.46
-8.31
-9.09
-9.83
-10.67
-11.67
-12.80
-13.89
-14.65
-14.83
-14.26
-12.93
-10.96
-8.55
-5.93
-3.34
-0.95
1.11
2.82
4.16
5.18
5.89
6.27
6.34
6.15
5.81
5.45
5.16
5.01
5.00
5.17
5.53
6.11
6.84
7.63
8.31
8.74
8.89
8.79
8.54
8.22
7.84
7.31
6.55
5.52
4.28
2.96
1.71
0.67
-0.14
-0.70
-1.09
-1.39
-1.66
-1.97
-2.35
-2.82
-3.37
-4.00
-4.69
-5.44
-6.27
-7.19
-8.18
-9.18
-10.08
-10.80
-11.35
-11.77
-12.13
-12.43
-12.56
-12.32
-11.56
-10.21
-8.35
-6.18
-3.93
-1.73
0.34
2.26
4.02
5.56
6.84
7.86
8.63
9.19
9.58
9.76
9.69
9.35
8.74
7.95
7.06
6.15
5.32
4.62
4.10
3.79
3.69
3.71
3.81
3.91
3.99
4.04
4.06
4.00
3.81
3.43
2.85
2.13
1.35
0.51
-0.41
-1.46
-2.63
-3.87
-5.06
-6.09
-6.88
-7.44
-7.84
-8.18
-8.55
-9.02
-9.62
-10.31
-10.96
-11.33
-11.17
-10.31
-8.73
-6.60
-4.23
-1.94
0.07
1.73
3.15
4.47
5.78
7.08
8.21
8.96
9.14
8.67
7.64
6.27
4.84
3.60
2.70
2.16
1.89
1.77
1.67
1.52
1.35
1.21
1.16
1.21
1.30
1.27
0.98
0.34
-0.58
-1.62
-2.56
-3.23
-3.54
-3.57
-3.44
-3.26
-3.06
-2.80
-2.38
-1.77
-1.00
-0.20
0.51
1.01
1.25
1.19
0.84
0.18
-0.73
-1.85
-3.02
-4.07
-4.83
-5.18
-5.08
-4.62
-3.88
-3.00
-2.06
-1.09
-0.07
1.00
2.12
3.27
4.48
5.75
7.10
8.47
9.70
10.47
10.47
9.50
7.54
4.84
1.86
-0.89
-2.84
-3.57
-2.83
-0.74
2.21
5.18
7.16
7.37
5.39
1.33
-4.43
-11.48
-19.49
-28.17
-36.94
-44.81
-50.42
-52.42
-50.02
-43.36
-33.53
-22.23
-11.19
-1.71
5.59
10.64
13.72
15.17
15.30
14.45
13.02
11.46
10.26
9.73
9.93
10.65
11.49
12.06
12.13
11.71
11.00
10.29
9.77
9.55
9.55
9.59
9.48
9.08
8.36
7.41
6.40
5.49
4.81
4.37
4.06
3.73
3.21
2.47
1.56
0.60
-0.32
-1.16
-1.94
-2.71
-3.44
-4.01
-4.24
-3.99
-3.29
-2.33
-1.38
-0.65
-0.18
0.12
0.40
0.74
1.06
1.20
0.99
0.38
-0.61
-1.88
-3.37
-5.00
-6.70
-8.31
-9.52
-10.03
-9.58
-8.08
-5.69
-2.75
0.33
3.16
5.51
7.26
8.41
9.01
9.12
8.81
8.18
7.36
6.53
5.87
5.53
5.58
6.02
6.77
7.64
8.46
9.04
9.30
9.23
8.93
8.51
8.07
7.60
7.01
6.23
5.25
4.19
3.22
2.50
2.12
1.97
1.87
1.61
1.01
0.01
-1.36
-2.99
-4.69
-6.25
-7.52
-8.40
-8.91
-9.18
-9.37
-9.65
-10.07
-10.56
-10.90
-10.89
-10.30
-9.04
-7.20
-4.93
-2.53
-0.25
1.71
3.25
4.38
5.18
5.72
6.06
6.28
6.41
6.51
6.59
6.67
6.71
6.67
6.49
6.14
5.62
4.94
4.16
3.38
2.71
2.21
1.92
1.82
1.85
1.89
1.84
1.66
1.33
0.91
0.45
-0.01
-0.45
-0.90
-1.42
-2.07
-2.84
-3.65
-4.34
-4.77
-4.89
-4.78
-4.62
-4.57
-4.74
-5.09
-5.55
-5.99
-6.35
-6.54
-6.53
-6.22
-5.60
-4.69
-3.64
-2.65
-1.88
-1.38
-1.11
-0.93
-0.70
-0.33
0.19
0.84
1.58
2.46
3.51
4.84
6.54
8.56
10.78
12.93
14.73
15.94
16.48
16.36
15.69
14.56
13.01
11.04
8.71
6.13
3.48
0.93
-1.46
-3.74
-6.05
-8.48
-11.02
-13.48
-15.54
-16.97
-17.66
-17.75
-17.54
-17.37
-17.46
-17.86
-18.44
-19.01
-19.37
-19.34
-18.82
-17.72
-16.02
-13.80
-11.22
-8.53
-5.96
-3.68
-1.71
0.02
1.65
3.24
4.79
6.17
7.27
8.03
8.47
8.71
8.89
9.11
9.42
9.81
10.23
10.69
11.19
11.69
12.14
12.45
12.52
12.35
11.99
11.58
11.17
10.80
10.41
9.94
9.39
8.82
8.35
8.09
8.05
8.12
8.13
7.87
7.19
6.02
4.36
2.31
-0.04
-2.52
-4.96
-7.12
-8.78
-9.77
-10.02
-9.58
-8.62
-7.35
-6.00
-4.71
-3.58
-2.54
-1.48
-0.25
1.27
3.06
4.91
6.52
7.53
7.68
6.93
5.46
3.63
1.81
0.32
-0.68
-1.12
-1.09
-0.74
-0.29
0.05
0.15
-0.01
-0.32
-0.58
-0.56
-0.12
0.73
1.83
2.91
3.71
4.03
3.82
3.15
2.15
1.00
-0.19
-1.36
-2.48
-3.57
-4.65
-5.74
-6.85
-8.02
-9.25
-10.50
-11.68
-12.63
-13.13
-13.00
-12.14
-10.60
-8.58
-6.36
-4.22
-2.31
-0.69
0.73
2.03
3.27
4.42
5.40
6.12
6.56
6.71
6.65
6.47
6.25
6.06
5.91
5.78
5.66
5.54
5.46
5.49
5.66
5.93
6.19
6.25
6.02
5.47
4.76
4.07
3.59
3.38
3.36
3.37
3.26
2.96
2.49
1.93
1.34
0.72
-0.03
-1.00
-2.21
-3.62
-5.14
-6.69
-8.23
-9.71
-11.06
-12.17
-12.92
-13.25
-13.19
-12.86
-12.37
-11.73
-10.87
-9.67
-8.08
-6.22
-4.33
-2.65
-1.37
-0.48
0.15
0.72
1.42
2.41
3.77
5.49
7.48
9.52
11.34
12.62
13.15
12.85
11.82
10.34
8.74
7.32
6.27
5.65
5.39
5.35
5.34
5.21
4.83
4.22
3.44
2.65
2.04
1.71
1.64
1.69
1.64
1.28
0.50
-0.70
-2.19
-3.72
-5.05
-5.99
-6.47
-6.57
-6.51
-6.53
-6.89
-7.65
-8.75
-9.99
-11.19
-12.17
-12.88
-13.31
-13.41
-13.09
-12.26
-10.86
-8.99
-6.82
-4.59
-2.45
-0.47
1.39
3.18
4.93
6.56
7.93
8.91
9.39
9.41
9.11
8.67
8.30
8.12
8.15
8.29
8.39
8.29
7.95
7.41
6.81
6.28
5.89
5.62
5.36
5.03
4.60
4.14
3.76
3.53
3.40
3.21
2.81
2.12
1.16
0.11
-0.86
-1.66
-2.32
-2.93
-3.56
-4.18
-4.68
-4.94
-4.95
-4.90
-5.10
-5.81
-7.14
-8.92
-10.79
-12.34
-13.22
-13.28
-12.54
-11.13
-9.19
-6.87
-4.39
-1.97
0.13
1.76
2.94
3.82
4.63
5.51
6.47
7.33
7.90
8.05
7.80
7.27
6.65
6.06
5.54
5.13
4.84
4.75
4.91
5.27
5.67
5.91
5.80
5.30
4.49
3.56
2.69
1.97
1.45
1.10
0.85
0.63
0.34
-0.15
-0.94
-2.09
-3.48
-4.94
-6.23
-7.18
-7.76
-8.04
-8.19
-8.38
-8.72
-9.26
-9.97
-10.79
-11.59
-12.22
-12.49
-12.19
-11.20
-9.58
-7.57
-5.56
-3.90
-2.76
-2.08
-1.60
-1.03
-0.19
0.92
2.23
3.59
4.87
5.99
6.85
7.38
7.55
7.40
7.06
6.71
6.44
6.29
6.19
6.07
5.90
5.74
5.64
5.63
5.68
5.68
5.52
5.14
4.50
3.61
2.50
1.21
-0.22
-1.74
-3.21
-4.50
-5.50
-6.13
-6.37
-6.27
-5.91
-5.40
-4.86
-4.37
-4.02
-3.83
-3.79
-3.91
-4.23
-4.85
-5.84
-7.21
-8.78
-10.23
-11.16
-11.21
-10.24
-8.33
-5.74
-2.80
0.19
3.00
5.50
7.62
9.31
10.57
11.34
11.64
11.45
10.78
9.70
8.29
6.69
5.06
3.54
2.27
1.38
0.98
1.09
1.70
2.67
3.87
5.12
6.28
7.27
7.97
8.30
8.15
7.50
6.40
4.97
3.32
1.56
-0.28
-2.17
-4.01
-5.68
-7.00
-7.85
-8.21
-8.16
-7.90
-7.62
-7.50
-7.65
-8.07
-8.68
-9.35
-9.95
-10.32
-10.39
-10.08
-9.39
-8.34
-6.96
-5.38
-3.68
-1.97
-0.30
1.31
2.86
4.33
5.66
6.78
7.56
7.93
7.84
7.35
6.55
5.57
4.51
3.44
2.42
1.50
0.77
0.29
0.13
0.26
0.61
1.01
1.36
1.61
1.82
2.04
2.33
2.62
2.82
2.79
2.44
1.75
0.77
-0.38
-1.57
-2.71
-3.72
-4.59
-5.31
-5.92
-6.45
-6.93
-7.40
-7.91
-8.48
-9.05
-9.50
-9.64
-9.25
-8.19
-6.49
-4.34
-2.03
0.16
2.02
3.46
4.54
5.34
5.98
6.45
6.74
6.79
6.56
6.07
5.38
4.62
3.89
3.28
2.81
2.51
2.39
2.48
2.78
3.29
3.92
4.57
5.11
5.43
5.53
5.40
5.12
4.75
4.37
4.00
3.64
3.28
2.87
2.39
1.82
1.17
0.46
-0.31
-1.14
-2.05
-3.01
-4.00
-4.99
-5.91
-6.74
-7.43
-7.98
-8.42
-8.74
-8.93
-9.00
-8.89
-8.60
-8.09
-7.38
-6.47
-5.32
-3.91
-2.24
-0.34
1.63
3.48
5.05
6.24
7.03
7.48
7.69
7.76
7.75
7.73
7.75
7.79
7.81
7.75
7.56
7.27
6.92
6.57
6.25
5.92
5.58
5.22
4.90
4.65
4.39
3.97
3.20
2.00
0.44
-1.24
-2.77
-3.98
-4.82
-5.37
-5.75
-5.99
-6.08
-6.04
-5.91
-5.82
-5.91
-6.23
-6.70
-7.15
-7.40
-7.40
-7.28
-7.25
-7.58
-8.33
-9.37
-10.34
-10.81
-10.49
-9.28
-7.37
-5.07
-2.73
-0.55
1.41
3.16
4.77
6.17
7.29
8.04
8.38
8.35
8.07
7.64
7.11
6.52
5.90
5.29
4.77
4.39
4.17
4.04
3.90
3.66
3.34
2.97
2.70
2.62
2.73
2.95
3.12
3.12
2.88
2.42
1.85
1.27
0.72
0.17
-0.43
-1.10
-1.85
-2.63
-3.40
-4.13
-4.79
-5.36
-5.79
-6.09
-6.32
-6.56
-6.95
-7.54
-8.33
-9.21
-10.00
-10.50
-10.56
-10.05
-8.90
-7.15
-4.93
-2.48
-0.08
2.03
3.69
4.84
5.56
5.95
6.13
6.22
6.24
6.21
6.08
5.83
5.45
5.02
4.66
4.49
4.58
4.89
5.29
5.59
5.65
5.43
5.02
4.56
4.17
3.88
3.59
3.12
2.38
1.41
0.42
-0.29
-0.52
-0.28
0.18
0.50
0.40
-0.17
-1.06
-1.99
-2.71
-3.21
-3.60
-4.10
-4.86
-5.92
-7.21
-8.58
-9.91
-11.06
-11.88
-12.21
-11.89
-10.87
-9.22
-7.19
-5.05
-3.10
-1.51
-0.28
0.64
1.40
2.14
2.93
3.77
4.62
5.38
5.95
6.24
6.19
5.87
5.38
4.90
4.58
4.45
4.46
4.49
4.44
4.34
4.25
4.29
4.45
4.60
4.55
4.12
3.30
2.22
1.11
0.14
-0.60
-1.12
-1.53
-1.88
-2.25
-2.70
-3.22
-3.83
-4.49
-5.19
-5.93
-6.78
-7.84
-9.12
-10.52
-11.79
-12.56
-12.52
-11.53
-9.71
-7.37
-4.85
-2.43
-0.23
1.72
3.45
4.95
6.18
7.11
7.74
8.11
8.32
8.40
8.38
8.22
7.91
7.49
7.02
6.59
6.24
5.99
5.82
5.72
5.66
5.65
5.66
5.64
5.52
5.24
4.77
4.12
3.37
2.62
1.92
1.33
0.80
0.25
-0.41
-1.21
-2.19
-3.29
-4.46
-5.61
-6.65
-7.48
-8.05
-8.36
-8.50
-8.63
-8.84
-9.20
-9.61
-9.90
-9.85
-9.29
-8.17
-6.54
-4.56
-2.43
-0.34
1.59
3.32
4.86
6.23
7.39
8.27
8.80
8.98
8.84
8.47
7.98
7.42
6.80
6.16
5.53
5.00
4.69
4.69
4.99
5.47
5.89
6.06
5.84
5.24
4.38
3.47
2.72
2.21
1.94
1.79
1.65
1.39
0.94
0.25
-0.71
-1.92
-3.31
-4.77
-6.15
-7.37
-8.39
-9.26
-10.06
-10.86
-11.71
-12.58
-13.40
-14.05
-14.42
-14.41
-13.96
-13.08
-11.84
-10.36
-8.72
-7.01
-5.23
-3.33
-1.27
0.96
3.29
5.59
7.71
9.52
10.92
11.89
12.42
12.50
12.15
11.42
10.42
9.35
8.43
7.82
7.56
7.56
7.62
7.55
7.22
6.63
5.88
5.12
4.54
4.20
4.11
4.12
4.06
3.75
3.09
2.08
0.81
-0.57
-1.85
-2.86
-3.55
-3.91
-4.07
-4.19
-4.45
-4.96
-5.73
-6.70
-7.72
-8.65
-9.42
-10.03
-10.52
-10.97
-11.37
-11.69
-11.81
-11.61
-11.02
-9.97
-8.45
-6.49
-4.18
-1.65
0.88
3.17
5.05
6.48
7.51
8.24
8.76
9.04
9.04
8.79
8.42
8.14
8.12
8.40
8.83
9.18
9.26
9.01
8.53
7.99
7.54
7.20
6.88
6.42
5.75
4.86
3.87
2.96
2.26
1.83
1.56
1.32
0.96
0.46
-0.14
-0.73
-1.24
-1.66
-2.04
-2.48
-3.06
-3.82
-4.72
-5.74
-6.79
-7.79
-8.66
-9.35
-9.91
-10.38
-10.89
-11.45
-11.99
-12.36
-12.42
-12.05
-11.27
-10.17
-8.80
-7.22
-5.38
-3.27
-0.96
1.40
3.61
5.50
7.03
8.27
9.33
10.27
11.04
11.52
11.58
11.15
10.32
9.25
8.12
7.07
6.14
5.34
4.66
4.15
3.88
3.90
4.19
4.63
5.03
5.21
5.01
4.37
3.36
2.07
0.69
-0.65
-1.78
-2.63
-3.10
-3.23
-3.14
-2.96
-2.90
-3.10
-3.57
-4.19
-4.84
-5.38
-5.75
-5.98
-6.16
-6.34
-6.52
-6.68
-6.84
-7.04
-7.40
-8.04
-8.98
-10.13
-11.25
-12.04
-12.18
-11.48
-9.92
-7.64
-4.93
-2.07
0.63
2.94
4.74
5.97
6.64
6.84
6.75
6.52
6.35
6.39
6.67
7.14
7.70
8.23
8.61
8.81
8.80
8.56
8.10
7.46
6.75
6.11
5.66
5.41
5.30
5.16
4.85
4.36
3.80
3.37
3.23
3.40
3.74
3.99
3.90
3.32
2.28
0.91
-0.55
-1.93
-3.10
-4.04
-4.76
-5.32
-5.76
-6.12
-6.49
-6.95
-7.60
-8.49
-9.56
-10.66
-11.61
-12.31
-12.74
-12.97
-13.09
-13.08
-12.84
-12.23
-11.15
-9.63
-7.79
-5.80
-3.81
-1.88
-0.02
1.77
3.48
5.09
6.54
7.79
8.79
9.48
9.82
9.81
9.47
8.93
8.32
7.78
7.39
7.20
7.19
7.34
7.58
7.85
8.03
8.00
7.65
6.95
5.96
4.84
3.77
2.87
2.23
1.78
1.48
1.27
1.10
0.97
0.86
0.70
0.43
0.01
-0.55
-1.18
-1.83
-2.46
-3.14
-3.95
-4.97
-6.20
-7.51
-8.72
-9.67
-10.30
-10.69
-11.00
-11.37
-11.87
-12.40
-12.75
-12.70
-12.09
-10.85
-9.08
-6.92
-4.58
-2.23
0.01
2.05
3.84
5.36
6.60
7.58
8.34
8.91
9.34
9.61
9.71
9.66
9.51
9.37
9.30
9.33
9.38
9.34
9.13
8.74
8.24
7.71
7.20
6.71
6.26
5.78
5.28
4.74
4.13
3.41
2.59
1.70
0.83
0.10
-0.48
-0.93
-1.37
-1.92
-2.66
-3.60
-4.67
-5.73
-6.66
-7.39
-7.88
-8.23
-8.55
-8.97
-9.59
-10.43
-11.44
-12.49
-13.42
-14.02
-14.13
-13.57
-12.28
-10.33
-7.94
-5.38
-2.95
-0.82
1.01
2.59
4.01
5.27
6.29
6.98
7.28
7.25
7.06
6.88
6.84
6.92
7.02
7.01
6.84
6.53
6.19
5.92
5.77
5.68
5.60
5.42
5.09
4.68
4.25
3.90
3.67
3.53
3.41
3.19
2.77
2.12
1.27
0.30
-0.65
-1.49
-2.16
-2.72
-3.21
-3.70
-4.22
-4.75
-5.30
-5.84
-6.43
-7.07
-7.77
-8.51
-9.24
-9.92
-10.48
-10.91
-11.12
-11.00
-10.40
-9.23
-7.49
-5.33
-2.98
-0.73
1.24
2.82
4.04
5.00
5.77
6.40
6.88
7.15
7.17
6.99
6.75
6.68
6.97
7.71
8.81
10.06
11.16
11.88
12.17
12.06
11.68
11.09
10.24
9.03
7.36
5.25
2.84
0.39
-1.87
-3.77
-5.26
-6.37
-7.14
-7.63
-7.89
-7.94
-7.86
-7.69
-7.45
-7.13
-6.76
-6.37
-6.07
-5.98
-6.21
-6.83
-7.84
-9.15
-10.60
-11.98
-13.09
-13.72
-13.73
-13.04
-11.67
-9.70
-7.28
-4.60
-1.91
0.62
2.88
4.87
6.64
8.24
9.67
10.87
11.75
12.25
12.36
12.14
11.64
10.93
10.04
9.08
8.19
7.54
7.21
7.18
7.31
7.40
7.25
6.80
6.06
5.16
4.27
3.53
3.03
2.73
2.54
2.29
1.87
1.19
0.29
-0.75
-1.80
-2.78
-3.69
-4.57
-5.51
-6.55
-7.66
-8.79
-9.80
-10.63
-11.24
-11.74
-12.22
-12.76
-13.34
-13.80
-13.96
-13.61
-12.66
-11.18
-9.32
-7.26
-5.16
-3.09
-1.09
0.80
2.54
4.08
5.38
6.45
7.34
8.06
8.63
8.97
9.03
8.80
8.33
7.75
7.21
6.81
6.56
6.40
6.28
6.13
5.96
5.79
5.64
5.50
5.31
5.02
4.64
4.23
3.83
3.46
3.08
2.64
2.10
1.50
0.93
0.48
0.18
-0.05
-0.35
-0.87
-1.68
-2.73
-3.90
-5.06
-6.11
-7.06
-7.91
-8.73
-9.52
-10.28
-11.00
-11.64
-12.16
-12.50
-12.52
-12.05
-10.91
-9.04
-6.51
-3.60
-0.72
1.74
3.51
4.58
5.13
5.45
5.79
6.23
6.72
7.13
7.35
7.39
7.36
7.37
7.50
7.72
7.89
7.86
7.54
6.97
6.26
5.58
5.05
4.67
4.42
4.20
3.92
3.54
3.09
2.59
2.09
1.59
1.07
0.49
-0.19
-0.98
-1.91
-2.92
-3.94
-4.86
-5.69
-6.43
-7.16
-7.95
-8.80
-9.68
-10.56
-11.41
-12.25
-13.02
-13.63
-13.86
-13.49
-12.38
-10.54
-8.24
-5.79
-3.51
-1.56
0.05
1.38
2.52
3.49
4.29
4.96
5.57
6.23
6.99
7.81
8.60
9.22
9.58
9.62
9.38
8.89
8.22
7.43
6.62
5.88
5.28
4.85
4.56
4.34
4.13
3.87
3.53
3.10
2.61
2.07
1.50
0.89
0.25
-0.40
-1.00
-1.52
-1.90
-2.19
-2.46
-2.84
-3.40
-4.14
-4.94
-5.66
-6.17
-6.44
-6.49
-6.43
-6.40
-6.55
-6.99
-7.77
-8.81
-9.91
-10.78
-11.16
-10.86
-9.85
-8.23
-6.17
-3.86
-1.48
0.81
2.87
4.58
5.88
6.80
7.40
7.75
7.87
7.73
7.21
6.24
4.83
3.06
1.16
-0.59
-1.92
-2.61
-2.57
-1.83
-0.59
0.93
2.47
3.88
5.04
5.88
6.36
6.50
6.27
5.77
5.07
4.29
3.52
2.81
2.15
1.52
0.83
0.01
-0.99
-2.19
-3.51
-4.86
-6.13
-7.26
-8.24
-9.11
-9.97
-10.85
-11.77
-12.64
-13.31
-13.53
-13.06
-11.76
-9.68
-7.06
-4.29
-1.75
0.35
2.04
3.51
4.98
6.59
8.29
9.86
11.07
11.76
11.95
11.78
11.45
11.14
10.91
10.74
10.48
10.03
9.35
8.53
7.72
7.05
6.54
6.08
5.50
4.68
3.66
2.61
1.80
1.37
1.28
1.33
1.23
0.82
0.07
-0.88
-1.83
-2.66
-3.38
-4.06
-4.84
-5.81
-6.98
-8.34
-9.81
-11.29
-12.59
-13.48
-13.70
-13.06
-11.53
-9.30
-6.71
-4.16
-1.97
-0.28
0.94
1.88
2.77
3.79
4.98
6.23
7.35
8.10
8.31
7.96
7.17
6.22
5.41
4.95
4.94
5.32
5.93
6.57
7.05
7.21
7.01
6.44
5.64
4.74
3.88
3.11
2.42
1.74
1.00
0.16
-0.79
-1.81
-2.88
-3.97
-5.06
-6.12
-7.06
-7.87
-8.48
-8.87
-8.95
-8.65
-7.90
-6.70
-5.13
-3.35
-1.55
0.15
1.69
3.05
4.23
5.22
6.06
6.73
7.24
7.54
7.54
7.15
6.32
5.16
3.92
2.93
2.46
2.65
3.46
4.68
6.04
7.26
8.14
8.52
8.34
7.59
6.38
4.87
3.31
1.88
0.72
-0.12
-0.69
-1.09
-1.41
-1.73
-2.15
-2.71
-3.41
-4.22
-5.12
-6.07
-7.08
-8.11
-9.09
-9.87
-10.21
-9.90
-8.83
-7.06
-4.87
-2.57
-0.44
1.30
2.60
3.47
3.92
3.95
3.55
2.81
1.84
0.86
0.05
-0.43
-0.50
-0.18
0.49
1.38
2.39
3.36
4.14
4.60
4.61
4.09
3.01
1.41
-0.54
-2.62
-4.58
-6.23
-7.45
-8.26
-8.75
-9.08
-9.37
-9.74
-10.20
-10.74
-11.25
-11.61
-11.71
-11.47
-10.93
-10.15
-9.22
-8.20
-7.07
-5.83
-4.47
-3.07
-1.69
-0.42
0.71
1.71
2.59
3.30
3.80
4.03
4.01
3.87
3.76
3.84
4.13
4.61
5.22
5.94
6.80
7.77
8.79
9.67
10.23
10.30
9.86
9.03
7.97
6.84
5.74
4.73
3.78
2.93
2.17
1.49
0.85
0.16
-0.65
-1.64
-2.77
-3.91
-4.91
-5.59
-5.79
-5.43
-4.54
-3.20
-1.57
0.16
1.89
3.55
5.17
6.75
8.29
9.74
10.98
11.92
12.50
12.74
12.70
12.46
12.08
11.65
11.20
10.82
10.59
10.54
10.68
10.95
11.22
11.39
11.39
11.23
10.95
10.61
10.20
9.70
9.04
8.16
7.02
5.64
4.05
2.30
0.43
-1.52
-3.54
-5.58
-7.63
-9.58
-11.25
-12.40
-12.78
-12.23
-10.78
-8.67
-6.24
-3.83
-1.71
0.01
1.28
2.10
2.40
2.11
1.15
-0.47
-2.62
-5.07
-7.57
-9.94
-12.04
-13.82
-15.27
-16.30
-16.72
-16.30
-14.93
-12.66
-9.87
-7.18
-5.24
-4.54
-5.26
-7.18
-9.81
-12.51
-14.70
-16.00
-16.26
-15.59
-14.26
-12.62
-11.01
-9.66
-8.64
-7.90
-7.30
-6.72
-6.07
-5.30
-4.31
-2.98
-1.11
1.41
4.54
8.00
11.39
14.33
16.59
18.15
19.16
19.80
20.10
19.95
19.13
17.50
15.11
12.19
9.09
6.14
3.53
1.33
-0.51
-2.04
-3.30
-4.27
-4.85
-4.98
-4.62
-3.80
-2.63
-1.28
0.04
1.14
1.83
2.01
1.61
0.67
-0.66
-2.21
-3.77
-5.21
-6.49
-7.67
-8.85
-10.12
-11.50
-12.96
-14.42
-15.68
-16.52
-16.67
-15.89
-14.06
-11.24
-7.63
-3.51
0.81
5.07
9.04
12.56
15.44
17.53
18.72
18.96
18.29
16.79
14.54
11.65
8.23
4.44
0.53
-3.22
-6.55
-9.23
-11.12
-12.12
-12.23
-11.49
-10.04
-8.06
-5.81
-3.56
-1.56
-0.03
0.90
1.15
0.73
-0.31
-1.84
-3.71
-5.74
-7.72
-9.46
-10.77
-11.53
-11.66
-11.20
-10.27
-9.05
-7.70
-6.30
-4.82
-3.19
-1.30
0.90
3.32
5.79
8.03
9.76
10.82
11.19
11.00
10.47
9.80
9.05
8.21
7.20
6.01
4.69
3.38
2.25
1.45
1.03
0.98
1.25
1.78
2.54
3.46
4.47
5.44
6.21
6.68
6.81
6.67
6.34
5.86
5.20
4.18
2.64
0.49
-2.18
-5.13
-8.11
-10.90
-13.43
-15.74
-17.91
-19.93
-21.67
-22.90
-23.38
-22.94
-21.54
-19.20
-16.08
-12.37
-8.31
-4.17
-0.26
3.16
5.91
7.93
9.30
10.22
10.86
11.34
11.67
11.81
11.69
11.31
10.77
10.21
9.74
9.40
9.15
8.95
8.75
8.56
8.40
8.24
8.02
7.65
7.06
6.23
5.18
4.00
2.75
1.53
0.39
-0.67
-1.65
-2.60
-3.57
-4.59
-5.65
-6.75
-7.85
-8.96
-10.07
-11.17
-12.18
-12.90
-13.13
-12.65
-11.40
-9.45
-7.02
-4.44
-1.97
0.22
2.08
3.67
5.06
6.27
7.27
8.02
8.52
8.80
8.89
8.81
8.53
8.04
7.33
6.49
5.65
4.96
4.56
4.46
4.60
4.83
4.95
4.82
4.32
3.48
2.39
1.21
0.09
-0.92
-1.80
-2.62
-3.42
-4.21
-4.95
-5.63
-6.25
-6.86
-7.54
-8.34
-9.26
-10.20
-11.04
-11.62
-11.80
-11.44
-10.47
-8.89
-6.79
-4.34
-1.77
0.66
2.75
4.37
5.56
6.40
7.03
7.55
7.99
8.30
8.38
8.20
7.78
7.27
6.78
6.39
6.05
5.68
5.18
4.58
3.94
3.38
2.93
2.58
2.28
1.99
1.79
1.78
2.04
2.52
3.02
3.28
3.08
2.37
1.29
0.05
-1.14
-2.19
-3.09
-3.92
-4.72
-5.51
-6.23
-6.81
-7.17
-7.23
-6.87
-6.01
-4.59
-2.64
-0.31
2.18
4.56
6.64
8.26
9.41
10.10
10.41
10.42
10.18
9.73
9.10
8.33
7.46
6.56
5.66
4.79
3.96
3.22
2.66
2.36
2.30
2.39
2.41
2.18
1.56
0.61
-0.50
-1.55
-2.39
-3.01
-3.53
-4.10
-4.83
-5.74
-6.76
-7.76
-8.61
-9.23
-9.62
-9.84
-9.97
-10.08
-10.20
-10.29
-10.28
-10.07
-9.63
-8.95
-8.05
-6.97
-5.74
-4.40
-2.98
-1.50
0.05
1.71
3.52
5.46
7.40
9.18
10.56
11.42
11.69
11.38
10.60
9.46
8.06
6.57
5.15
4.00
3.30
3.10
3.35
3.88
4.48
5.01
5.38
5.64
5.81
5.88
5.80
5.46
4.76
3.70
2.35
0.83
-0.69
-2.07
-3.22
-4.10
-4.73
-5.18
-5.62
-6.15
-6.84
-7.58
-8.18
-8.36
-7.99
-7.04
-5.76
-4.47
-3.52
-3.09
-3.23
-3.82
-4.73
-5.83
-7.01
-8.19
-9.19
-9.82
-9.86
-9.18
-7.78
-5.76
-3.27
-0.49
2.38
5.20
7.75
9.82
11.20
11.79
11.57
10.66
9.23
7.47
5.57
3.71
2.09
0.89
0.26
0.25
0.84
1.86
3.11
4.40
5.52
6.38
6.89
7.03
6.78
6.14
5.09
3.65
1.90
0.01
-1.80
-3.32
-4.36
-4.91
-5.07
-5.04
-5.00
-5.07
-5.22
-5.36
-5.34
-5.08
-4.59
-3.94
-3.24
-2.59
-2.00
-1.45
-0.89
-0.31
0.24
0.70
1.08
1.44
1.88
2.51
3.32
4.19
4.93
5.38
5.44
5.17
4.75
4.40
4.28
4.46
4.90
5.47
5.99
6.34
6.42
6.17
5.53
4.48
3.06
1.35
-0.44
-2.12
-3.55
-4.70
-5.58
-6.25
-6.69
-6.82
-6.55
-5.87
-4.89
-3.80
-2.79
-1.93
-1.21
-0.58
0.02
0.55
0.94
1.12
1.07
0.84
0.54
0.29
0.15
0.12
0.12
0.07
-0.07
-0.28
-0.45
-0.49
-0.32
0.05
0.55
1.05
1.43
1.58
1.46
1.06
0.39
-0.47
-1.37
-2.20
-2.84
-3.22
-3.36
-3.38
-3.42
-3.65
-4.18
-5.03
-6.08
-7.11
-7.89
-8.24
-8.11
-7.54
-6.67
-5.58
-4.33
-3.00
-1.65
-0.44
0.51
1.16
1.56
1.89
2.27
2.73
3.13
3.31
3.14
2.62
1.94
1.33
0.98
0.94
1.14
1.43
1.68
1.84
1.88
1.82
1.66
1.38
1.00
0.58
0.19
-0.14
-0.42
-0.72
-1.14
-1.77
-2.63
-3.66
-4.77
-5.87
-6.88
-7.76
-8.49
-9.04
-9.38
-9.47
-9.26
-8.69
-7.71
-6.35
-4.73
-3.08
-1.62
-0.50
0.30
0.94
1.61
2.41
3.30
4.14
4.75
5.09
5.20
5.19
5.15
5.08
4.96
4.72
4.42
4.13
3.96
3.94
3.99
3.97
3.73
3.24
2.58
1.90
1.39
1.15
1.16
1.33
1.50
1.52
1.28
0.76
-0.01
-0.95
-1.95
-2.96
-3.95
-4.96
-6.03
-7.20
-8.42
-9.54
-10.35
-10.66
-10.35
-9.44
-8.02
-6.26
-4.30
-2.27
-0.27
1.63
3.33
4.73
5.77
6.38
6.59
6.48
6.15
5.74
5.35
5.05
4.83
4.70
4.61
4.56
4.58
4.70
4.91
5.14
5.33
5.35
5.17
4.77
4.16
3.43
2.60
1.77
0.97
0.24
-0.43
-1.09
-1.79
-2.56
-3.37
-4.19
-4.96
-5.65
-6.29
-6.93
-7.58
-8.28
-9.03
-9.86
-10.79
-11.79
-12.67
-13.17
-12.98
-11.89
-9.90
-7.25
-4.31
-1.50
0.93
2.86
4.29
5.30
5.98
6.40
6.60
6.64
6.52
6.28
5.95
5.57
5.27
5.18
5.37
5.87
6.60
7.37
8.03
8.45
8.61
8.50
8.15
7.54
6.66
5.51
4.13
2.63
1.15
-0.13
-1.14
-1.84
-2.31
-2.62
-2.88
-3.14
-3.42
-3.76
-4.17
-4.67
-5.28
-6.01
-6.86
-7.84
-8.98
-10.30
-11.75
-13.21
-14.45
-15.22
-15.26
-14.44
-12.74
-10.28
-7.30
-4.10
-1.01
1.69
3.79
5.27
6.18
6.71
7.04
7.32
7.61
7.92
8.19
8.34
8.34
8.20
8.03
7.99
8.21
8.76
9.59
10.54
11.35
11.81
11.80
11.30
10.40
9.24
8.00
6.82
5.83
5.09
4.62
4.39
4.36
4.40
4.40
4.24
3.81
3.05
1.95
0.58
-0.98
-2.61
-4.20
-5.68
-7.05
-8.31
-9.48
-10.58
-11.59
-12.48
-13.24
-13.81
-14.16
-14.20
-13.78
-12.81
-11.23
-9.12
-6.65
-4.06
-1.56
0.72
2.70
4.41
5.84
7.01
7.89
8.47
8.80
8.88
8.82
8.68
8.53
8.42
8.37
8.36
8.37
8.38
8.38
8.41
8.47
8.57
8.65
8.69
8.65
8.50
8.27
7.95
7.48
6.80
5.84
4.63
3.28
1.97
0.87
0.12
-0.28
-0.40
-0.41
-0.48
-0.81
-1.49
-2.53
-3.83
-5.16
-6.31
-7.15
-7.70
-8.13
-8.68
-9.44
-10.35
-11.14
-11.49
-11.18
-10.14
-8.53
-6.59
-4.53
-2.53
-0.66
1.03
2.48
3.65
4.56
5.20
5.64
5.91
6.05
6.07
5.97
5.75
5.44
5.07
4.69
4.37
4.16
4.11
4.24
4.45
4.61
4.58
4.31
3.83
3.26
2.68
2.15
1.66
1.19
0.76
0.43
0.26
0.21
0.14
-0.16
-0.84
-1.86
-3.03
-4.06
-4.73
-5.02
-5.05
-5.07
-5.26
-5.71
-6.40
-7.25
-8.19
-9.16
-10.08
-10.81
-11.12
-10.80
-9.72
-7.94
-5.75
-3.55
-1.74
-0.55
0.03
0.21
0.31
0.55
1.04
1.68
2.34
2.81
3.01
2.89
2.52
1.99
1.42
0.97
0.73
0.78
1.09
1.60
2.16
2.68
3.03
3.21
3.20
3.06
2.80
2.43
1.96
1.42
0.83
0.25
-0.32
-0.88
-1.47
-2.10
-2.77
-3.43
-4.04
-4.54
-4.94
-5.27
-5.59
-5.91
-6.18
-6.32
-6.20
-5.71
-4.84
-3.68
-2.39
-1.16
-0.09
0.79
1.54
2.23
2.86
3.40
3.80
4.01
4.04
3.91
3.70
3.45
3.21
3.00
2.87
2.80
2.77
2.70
2.52
2.23
1.87
1.54
1.29
1.14
1.00
0.73
0.26
-0.42
-1.22
-2.03
-2.72
-3.22
-3.53
-3.72
-3.84
-3.98
-4.22
-4.62
-5.24
-6.02
-6.84
-7.47
-7.66
-7.22
-6.11
-4.48
-2.64
-0.94
0.37
1.21
1.67
2.00
2.46
3.21
4.24
5.39
6.41
7.08
7.29
7.05
6.50
5.81
5.14
4.59
4.17
3.88
3.70
3.60
3.57
3.57
3.55
3.43
3.17
2.77
2.28
1.78
1.31
0.86
0.35
-0.30
-1.15
-2.19
-3.35
-4.55
-5.67
-6.65
-7.49
-8.20
-8.82
-9.36
-9.78
-9.97
-9.80
-9.15
-7.99
-6.42
-4.65
-2.87
-1.23
0.23
1.57
2.77
3.84
4.71
5.34
5.79
6.13
6.45
6.77
7.01
7.10
7.01
6.77
6.49
6.29
6.21
6.23
6.22
6.11
5.83
5.40
4.89
4.34
3.75
3.09
2.34
1.54
0.79
0.22
-0.08
-0.11
-0.01
0.04
-0.14
-0.60
-1.31
-2.19
-3.12
-4.04
-4.94
-5.79
-6.57
-7.29
-7.98
-8.69
-9.47
-10.30
-11.05
-11.54
-11.56
-11.03
-9.96
-8.49
-6.77
-4.95
-3.13
-1.37
0.24
1.62
2.73
3.57
4.20
4.69
5.10
5.44
5.70
5.88
5.97
5.96
5.83
5.54
5.10
4.58
4.14
3.93
4.07
4.52
5.15
5.73
6.08
6.10
5.79
5.22
4.50
3.76
3.10
2.63
2.41
2.42
2.61
2.84
2.96
2.89
2.57
2.07
1.46
0.79
0.10
-0.62
-1.37
-2.17
-2.98
-3.81
-4.64
-5.47
-6.30
-7.15
-7.99
-8.78
-9.42
-9.79
-9.70
-9.04
-7.77
-6.03
-4.07
-2.19
-0.60
0.61
1.56
2.42
3.33
4.31
5.27
6.05
6.54
6.71
6.68
6.59
6.58
6.71
6.95
7.21
7.39
7.47
7.48
7.49
7.55
7.61
7.59
7.37
6.88
6.17
5.35
4.54
3.85
3.30
2.82
2.33
1.74
1.00
0.17
-0.65
-1.37
-1.90
-2.27
-2.58
-2.98
-3.54
-4.30
-5.16
-6.04
-6.87
-7.65
-8.36
-8.98
-9.47
-9.80
-10.01
-10.22
-10.52
-10.93
-11.30
-11.37
-10.89
-9.71
-7.94
-5.78
-3.54
-1.47
0.29
1.72
2.85
3.74
4.48
5.15
5.81
6.49
7.19
7.86
8.41
8.73
8.71
8.30
7.56
6.63
5.75
5.12
4.87
4.95
5.20
5.40
5.37
5.04
4.45
3.72
2.99
2.37
1.91
1.59
1.34
1.05
0.61
0.01
-0.71
-1.43
-2.03
-2.44
-2.69
-2.91
-3.24
-3.79
-4.58
-5.60
-6.77
-7.98
-9.16
-10.26
-11.28
-12.23
-13.13
-13.93
-14.46
-14.47
-13.70
-12.02
-9.49
-6.40
-3.18
-0.23
2.18
3.96
5.15
5.85
6.16
6.19
6.04
5.86
5.76
5.81
5.99
6.20
6.30
6.18
5.84
5.37
4.95
4.74
4.87
5.32
5.96
6.54
6.83
6.68
6.10
5.27
4.38
3.61
3.01
2.55
2.18
1.84
1.52
1.20
0.88
0.47
-0.08
-0.81
-1.66
-2.49
-3.21
-3.75
-4.13
-4.42
-4.71
-5.06
-5.49
-5.98
-6.54
-7.17
-7.87
-8.62
-9.39
-10.07
-10.53
-10.63
-10.29
-9.44
-8.19
-6.69
-5.10
-3.59
-2.21
-1.00
0.06
0.96
1.67
2.17
2.47
2.62
2.70
2.83
3.06
3.44
3.95
4.54
5.13
5.61
5.90
5.95
5.81
5.57
5.36
5.27
5.34
5.55
5.83
6.07
6.18
6.04
5.57
4.75
3.65
2.45
1.33
0.40
-0.31
-0.92
-1.61
-2.49
-3.60
-4.87
-6.17
-7.34
-8.28
-8.97
-9.42
-9.70
-9.88
-10.06
-10.30
-10.59
-10.85
-10.94
-10.66
-9.88
-8.58
-6.80
-4.70
-2.47
-0.31
1.60
3.11
4.17
4.82
5.17
5.36
5.52
5.73
5.99
6.27
6.54
6.80
7.04
7.24
7.37
7.41
7.36
7.24
7.04
6.72
6.21
5.50
4.61
3.65
2.79
2.18
1.94
2.04
2.34
2.61
2.60
2.13
1.20
-0.09
-1.48
-2.70
-3.61
-4.18
-4.56
-4.93
-5.44
-6.12
-6.94
-7.79
-8.57
-9.17
-9.49
-9.42
-8.86
-7.78
-6.25
-4.47
-2.74
-1.37
-0.53
-0.20
-0.16
-0.07
0.38
1.27
2.48
3.70
4.60
4.96
4.81
4.28
3.63
3.01
2.52
2.17
1.95
1.87
1.94
2.18
2.55
2.98
3.38
3.65
3.76
3.71
3.51
3.22
2.84
2.36
1.77
1.07
0.29
-0.48
-1.18
-1.77
-2.32
-2.89
-3.60
-4.49
-5.56
-6.72
-7.88
-8.88
-9.57
-9.78
-9.38
-8.30
-6.61
-4.55
-2.41
-0.48
1.07
2.23
3.09
3.82
4.52
5.24
5.93
6.52
6.96
7.23
7.31
7.23
6.98
6.62
6.25
5.97
5.90
6.08
6.46
6.88
7.18
7.21
6.93
6.38
5.61
4.66
3.54
2.25
0.82
-0.65
-2.03
-3.18
-4.02
-4.57
-4.91
-5.18
-5.46
-5.79
-6.11
-6.32
-6.36
-6.26
-6.10
-5.97
-5.88
-5.76
-5.44
-4.76
-3.69
-2.34
-0.93
0.31
1.29
2.03
2.68
3.36
4.15
5.02
5.87
6.61
7.18
7.58
7.84
7.98
8.02
7.95
7.76
7.43
6.98
6.47
5.95
5.47
5.01
4.54
4.01
3.41
2.78
2.18
1.71
1.42
1.25
1.10
0.87
0.52
0.06
-0.45
-0.99
-1.59
-2.31
-3.21
-4.25
-5.32
-6.27
-7.06
-7.73
-8.43
-9.28
-10.28
-11.25
-11.90
-11.91
-11.13
-9.61
-7.55
-5.25
-2.95
-0.83
1.06
2.73
4.18
5.37
6.28
6.92
7.34
7.63
7.88
8.13
8.35
8.51
8.58
8.59
8.61
8.65
8.64
8.48
8.05
7.34
6.45
5.57
4.83
4.33
4.03
3.90
3.87
3.92
4.04
4.22
4.36
4.37
4.17
3.72
3.04
2.17
1.13
-0.05
-1.32
-2.64
-3.90
-5.01
-5.90
-6.58
-7.06
-7.41
-7.69
-7.97
-8.33
-8.84
-9.57
-10.51
-11.59
-12.67
-13.56
-14.12
-14.24
-13.86
-13.00
-11.69
-10.03
-8.14
-6.14
-4.15
-2.26
-0.50
1.09
2.51
3.72
4.72
5.54
6.26
6.96
7.68
8.43
9.07
9.52
9.70
9.62
9.35
8.97
8.49
7.88
7.09
6.13
5.10
4.18
3.55
3.26
3.30
3.53
3.81
4.02
4.06
3.90
3.47
2.71
1.61
0.20
-1.34
-2.80
-3.97
-4.77
-5.23
-5.49
-5.70
-5.96
-6.29
-6.65
-7.00
-7.34
-7.73
-8.21
-8.81
-9.54
-10.38
-11.33
-12.36
-13.41
-14.31
-14.79
-14.58
-13.50
-11.59
-9.07
-6.31
-3.67
-1.45
0.24
1.40
2.17
2.68
3.06
3.38
3.69
3.98
4.24
4.51
4.82
5.18
5.61
6.06
6.48
6.81
7.08
7.33
7.57
7.76
7.76
7.47
6.85
6.05
5.31
4.84
4.78
5.08
5.59
6.13
6.59
6.95
7.22
7.41
7.48
7.36
6.94
6.16
4.98
3.40
1.47
-0.70
-2.98
-5.18
-7.17
-8.87
-10.33
-11.61
-12.84
-14.06
-15.25
-16.26
-16.88
-16.93
-16.25
-14.85
-12.85
-10.48
-8.01
-5.66
-3.50
-1.54
0.34
2.18
3.97
5.61
6.95
7.89
8.43
8.64
8.68
8.63
8.53
8.33
8.02
7.62
7.20
6.88
6.68
6.59
6.44
6.12
5.57
4.87
4.20
3.72
3.53
3.57
3.67
3.65
3.37
2.80
1.99
0.97
-0.18
-1.42
-2.65
-3.73
-4.56
-5.07
-5.37
-5.68
-6.19
-7.02
-8.15
-9.44
-10.72
-11.86
-12.79
-13.43
-13.67
-13.37
-12.41
-10.81
-8.71
-6.36
-4.03
-1.91
-0.07
1.52
2.89
4.09
5.13
6.00
6.70
7.24
7.63
7.87
8.00
8.00
7.90
7.70
7.47
7.29
7.26
7.42
7.76
8.18
8.52
8.63
8.44
7.94
7.22
6.40
5.57
4.81
4.16
3.59
3.11
2.64
2.13
1.55
0.90
0.22
-0.45
-1.07
-1.68
-2.31
-2.98
-3.69
-4.41
-5.13
-5.88
-6.75
-7.81
-9.10
-10.54
-11.99
-13.23
-14.01
-14.09
-13.32
-11.72
-9.40
-6.67
-3.92
-1.46
0.50
1.96
3.02
3.82
4.40
4.77
4.86
4.71
4.43
4.18
4.12
4.28
4.58
4.90
5.17
5.41
5.78
6.41
7.31
8.36
9.28
9.81
9.78
9.22
8.27
7.16
6.10
5.20
4.47
3.89
3.41
2.96
2.52
2.01
1.38
0.62
-0.26
-1.21
-2.16
-3.10
-4.05
-5.07
-6.20
-7.45
-8.78
-10.13
-11.45
-12.67
-13.80
-14.80
-15.65
-16.26
-16.48
-16.11
-14.99
-13.04
-10.35
-7.19
-3.89
-0.78
1.90
4.08
5.75
7.00
7.88
8.41
8.64
8.58
8.32
7.90
7.41
6.91
6.44
6.07
5.83
5.72
5.69
5.66
5.56
5.37
5.15
5.01
5.07
5.44
6.12
7.01
7.92
8.67
9.11
9.19
8.92
8.36
7.63
6.79
5.90
4.97
3.96
2.83
1.54
0.10
-1.44
-3.00
-4.46
-5.77
-6.91
-7.87
-8.66
-9.28
-9.75
-10.11
-10.39
-10.60
-10.67
-10.46
-9.83
-8.73
-7.22
-5.49
-3.79
-2.34
-1.21
-0.38
0.26
0.83
1.45
2.15
2.87
3.50
3.94
4.09
3.97
3.71
3.45
3.30
3.31
3.44
3.64
3.90
4.24
4.67
5.16
5.59
5.84
5.79
5.42
4.82
4.10
3.34
2.55
1.65
0.56
-0.76
-2.24
-3.73
-5.07
-6.15
-6.94
-7.49
-7.87
-8.13
-8.31
-8.42
-8.49
-8.52
-8.50
-8.37
-8.05
-7.44
-6.49
-5.17
-3.54
-1.70
0.22
2.07
3.67
4.92
5.78
6.32
6.66
6.95
7.26
7.54
7.67
7.56
7.16
6.59
6.02
5.61
5.43
5.42
5.46
5.37
5.10
4.64
4.09
3.56
3.13
2.79
2.44
2.01
1.49
0.98
0.58
0.41
0.42
0.44
0.22
-0.39
-1.38
-2.60
-3.81
-4.80
-5.50
-5.91
-6.12
-6.19
-6.21
-6.27
-6.51
-7.06
-7.98
-9.15
-10.29
-11.04
-11.09
-10.27
-8.67
-6.54
-4.23
-2.09
-0.31
1.01
1.95
2.65
3.29
3.95
4.66
5.30
5.74
5.89
5.76
5.49
5.22
5.08
5.07
5.18
5.35
5.57
5.85
6.17
6.47
6.64
6.58
6.26
5.73
5.10
4.49
4.01
3.69
3.48
3.29
3.04
2.65
2.09
1.42
0.72
0.06
-0.50
-0.96
-1.36
-1.76
-2.21
-2.76
-3.52
-4.56
-5.91
-7.47
-9.04
-10.40
-11.41
-12.07
-12.52
-12.88
-13.21
-13.40
-13.22
-12.45
-11.01
-9.06
-6.93
-4.96
-3.41
-2.28
-1.44
-0.65
0.28
1.35
2.49
3.49
4.21
4.60
4.72
4.70
4.67
4.74
4.93
5.20
5.50
5.80
6.08
6.35
6.57
6.68
6.59
6.22
5.60
4.82
4.05
3.45
3.05
2.78
2.50
2.05
1.42
0.65
-0.13
-0.79
-1.28
-1.66
-2.00
-2.38
-2.80
-3.18
-3.46
-3.60
-3.69
-3.84
-4.14
-4.62
-5.19
-5.68
-5.98
-6.02
-5.87
-5.66
-5.57
-5.71
-6.08
-6.59
-7.10
-7.42
-7.48
-7.26
-6.85
-6.30
-5.62
-4.75
-3.60
-2.14
-0.43
1.34
2.99
4.32
5.25
5.80
6.01
5.98
5.82
5.63
5.49
5.44
5.49
5.63
5.85
6.09
6.31
6.43
6.38
6.13
5.74
5.32
5.00
4.87
4.85
4.80
4.60
4.19
3.62
3.00
2.42
1.90
1.44
0.98
0.54
0.12
-0.28
-0.68
-1.10
-1.61
-2.23
-2.97
-3.82
-4.73
-5.65
-6.46
-7.10
-7.52
-7.76
-7.92
-8.12
-8.42
-8.82
-9.26
-9.63
-9.80
-9.63
-8.98
-7.80
-6.15
-4.15
-2.07
-0.13
1.55
2.90
3.95
4.70
5.18
5.40
5.45
5.45
5.54
5.77
6.08
6.34
6.42
6.33
6.16
6.03
6.04
6.15
6.23
6.16
5.90
5.49
5.06
4.66
4.31
3.93
3.43
2.77
2.02
1.27
0.65
0.21
-0.08
-0.28
-0.47
-0.75
-1.10
-1.51
-1.96
-2.47
-3.05
-3.76
-4.57
-5.39
-6.14
-6.72
-7.15
-7.50
-7.90
-8.46
-9.23
-10.12
-10.98
-11.61
-11.83
-11.53
-10.68
-9.34
-7.68
-5.86
-4.06
-2.40
-0.99
0.18
1.12
1.93
2.74
3.62
4.63
5.70
6.70
7.44
7.83
7.83
7.53
7.04
6.45
5.84
5.26
4.74
4.36
4.13
4.05
4.07
4.13
4.21
4.32
4.49
4.71
4.88
4.88
4.59
3.99
3.15
2.22
1.37
0.69
0.17
-0.26
-0.72
-1.35
-2.20
-3.21
-4.29
-5.25
-6.02
-6.58
-7.05
-7.57
-8.25
-9.10
-10.05
-10.97
-11.76
-12.36
-12.72
-12.79
-12.45
-11.63
-10.32
-8.61
-6.68
-4.74
-2.94
-1.39
-0.06
1.10
2.21
3.34
4.52
5.71
6.85
7.92
8.94
10.04
11.29
12.72
14.22
15.56
16.48
16.79
16.40
15.39
13.88
12.03
9.96
7.84
5.83
4.07
2.71
1.81
1.37
1.36
1.72
2.36
3.21
4.17
5.09
5.84
6.30
6.38
6.04
5.22
3.90
2.05
-0.32
-3.08
-5.98
-8.73
-11.06
-12.84
-14.06
-14.84
-15.27
-15.39
-15.16
-14.50
-13.39
-11.83
-9.91
-7.69
-5.23
-2.61
0.03
2.45
4.42
5.72
6.33
6.36
6.04
5.60
5.18
4.82
4.52
4.29
4.17
4.28
4.62
5.13
5.64
6.00
6.06
5.85
5.43
4.91
4.37
3.82
3.26
2.70
2.20
1.83
1.59
1.43
1.25
1.01
0.72
0.50
0.44
0.60
0.91
1.24
1.43
1.32
0.88
0.13
-0.81
-1.79
-2.66
-3.32
-3.74
-4.01
-4.29
-4.76
-5.53
-6.60
-7.87
-9.17
-10.30
-11.14
-11.55
-11.44
-10.71
-9.32
-7.33
-4.89
-2.29
0.18
2.29
3.96
5.19
6.08
6.70
7.09
7.21
7.06
6.67
6.14
5.61
5.20
5.02
5.06
5.29
5.64
6.00
6.30
6.46
6.41
6.11
5.53
4.71
3.76
2.81
2.00
1.43
1.13
1.10
1.27
1.55
1.86
2.10
2.19
2.04
1.61
0.83
-0.28
-1.64
-3.10
-4.45
-5.53
-6.25
-6.69
-6.98
-7.29
-7.66
-8.05
-8.27
-8.13
-7.56
-6.56
-5.22
-3.68
-2.06
-0.44
1.08
2.43
3.52
4.30
4.76
4.94
4.91
4.73
4.50
4.27
4.12
4.13
4.28
4.52
4.76
4.87
4.78
4.49
4.07
3.64
3.29
3.05
2.87
2.64
2.27
1.73
1.10
0.47
-0.06
-0.43
-0.68
-0.89
-1.14
-1.46
-1.79
-2.07
-2.29
-2.50
-2.82
-3.38
-4.21
-5.24
-6.31
-7.27
-8.03
-8.60
-9.02
-9.32
-9.43
-9.28
-8.77
-7.88
-6.69
-5.34
-3.98
-2.75
-1.67
-0.68
0.28
1.31
2.43
3.62
4.81
5.85
6.60
6.93
6.82
6.29
5.50
4.66
3.99
3.67
3.69
3.99
4.39
4.75
4.96
5.05
5.05
4.98
4.81
4.52
4.11
3.58
3.02
2.46
1.93
1.40
0.84
0.25
-0.32
-0.85
-1.34
-1.84
-2.42
-3.15
-4.01
-4.95
-5.84
-6.59
-7.17
-7.60
-8.02
-8.51
-9.18
-10.00
-10.84
-11.52
-11.85
-11.71
-11.08
-10.02
-8.61
-6.95
-5.12
-3.22
-1.40
0.20
1.50
2.51
3.32
4.06
4.76
5.37
5.75
5.77
5.40
4.77
4.10
3.64
3.56
3.89
4.49
5.18
5.76
6.14
6.31
6.33
6.27
6.11
5.80
5.29
4.59
3.80
3.03
2.37
1.82
1.32
0.80
0.27
-0.19
-0.48
-0.57
-0.54
-0.54
-0.77
-1.33
-2.23
-3.37
-4.58
-5.69
-6.61
-7.29
-7.79
-8.17
-8.51
-8.89
-9.37
-9.96
-10.65
-11.35
-11.93
-12.17
-11.93
-11.13
-9.83
-8.22
-6.47
-4.73
-3.04
-1.39
0.22
1.79
3.21
4.38
5.25
5.78
6.08
6.24
6.37
6.53
6.70
6.82
6.86
6.82
6.78
6.80
6.95
7.18
7.37
7.39
7.14
6.66
6.07
5.53
5.12
4.84
4.58
4.25
3.76
3.13
2.40
1.68
1.08
0.67
0.44
0.34
0.21
-0.09
-0.66
-1.52
-2.56
-3.64
-4.61
-5.36
-5.88
-6.27
-6.62
-7.06
-7.65
-8.36
-9.09
-9.62
-9.70
-9.17
-8.00
-6.33
-4.40
-2.50
-0.81
0.57
1.64
2.45
3.08
3.59
4.06
4.53
4.99
5.43
5.79
6.02
6.14
6.15
6.14
6.14
6.17
6.19
6.15
6.02
5.80
5.54
5.28
5.04
4.82
4.54
4.16
3.69
3.15
2.63
2.17
1.79
1.42
1.00
0.47
-0.14
-0.77
-1.31
-1.71
-1.98
-2.22
-2.54
-3.05
-3.79
-4.72
-5.77
-6.84
-7.85
-8.78
-9.62
-10.38
-11.06
-11.70
-12.30
-12.82
-13.20
-13.28
-12.90
-11.95
-10.37
-8.30
-5.92
-3.49
-1.19
0.84
2.60
4.13
5.47
6.67
7.71
8.54
9.11
9.39
9.44
9.34
9.19
9.08
9.06
9.12
9.23
9.33
9.35
9.24
8.98
8.63
8.25
7.90
7.59
7.23
6.71
5.93
4.90
3.69
2.48
1.40
0.47
-0.32
-1.05
-1.74
-2.38
-2.92
-3.32
-3.61
-3.87
-4.18
-4.61
-5.15
-5.74
-6.32
-6.82
-7.26
-7.69
-8.19
-8.84
-9.61
-10.42
-11.08
-11.38
-11.12
-10.23
-8.74
-6.86
-4.81
-2.81
-0.99
0.60
1.96
3.11
4.05
4.79
5.36
5.83
6.21
6.49
6.62
6.50
6.16
5.69
5.26
5.01
4.96
5.00
4.99
4.84
4.58
4.31
4.14
4.12
4.17
4.20
4.10
3.84
3.46
3.06
2.67
2.27
1.77
1.10
0.23
-0.74
-1.63
-2.30
-2.69
-2.89
-3.10
-3.46
-4.02
-4.66
-5.18
-5.46
-5.50
-5.44
-5.51
-5.88
-6.60
-7.64
-8.87
-10.09
-11.03
-11.42
-11.06
-9.85
-7.89
-5.43
-2.80
-0.30
1.85
3.56
4.80
5.65
6.20
6.57
6.85
7.10
7.31
7.44
7.39
7.18
6.85
6.50
6.24
6.10
6.06
6.06
6.06
6.01
5.93
5.85
5.73
5.54
5.22
4.71
4.04
3.27
2.47
1.76
1.20
0.77
0.46
0.19
-0.10
-0.47
-0.96
-1.57
-2.27
-3.01
-3.71
-4.29
-4.72
-5.05
-5.36
-5.77
-6.38
-7.18
-8.10
-8.93
-9.41
-9.34
-8.58
-7.14
-5.18
-2.98
-0.84
1.01
2.42
3.37
3.92
4.22
4.41
4.58
4.78
4.98
5.13
5.20
5.16
5.05
4.93
4.81
4.70
4.54
4.30
3.98
3.65
3.42
3.36
3.48
3.63
3.65
3.41
2.86
2.05
1.11
0.16
-0.70
-1.41
-2.02
-2.60
-3.24
-4.01
-4.91
-5.84
-6.70
-7.34
-7.73
-7.87
-7.88
-7.86
-7.88
-8.01
-8.30
-8.77
-9.42
-10.15
-10.73
-10.89
-10.40
-9.16
-7.31
-5.13
-2.93
-0.97
0.68
2.04
3.23
4.35
5.45
6.52
7.51
8.39
9.11
9.67
10.03
10.17
10.06
9.73
9.24
8.70
8.18
7.69
7.23
6.75
6.30
5.95
5.77
5.73
5.73
5.58
5.16
4.48
3.66
2.91
2.35
1.96
1.64
1.22
0.61
-0.20
-1.17
-2.21
-3.25
-4.19
-4.98
-5.58
-6.01
-6.37
-6.80
-7.38
-8.09
-8.82
-9.35
-9.48
-9.14
-8.36
-7.25
-5.96
-4.62
-3.30
-2.03
-0.81
0.37
1.53
2.65
3.69
4.57
5.22
5.57
5.65
5.56
5.44
5.40
5.48
5.64
5.81
5.91
5.93
5.91
5.88
5.86
5.81
5.66
5.39
4.99
4.50
3.98
3.47
2.96
2.43
1.87
1.26
0.65
0.06
-0.51
-1.10
-1.74
-2.40
-3.00
-3.41
-3.61
-3.62
-3.61
-3.78
-4.27
-5.08
-6.12
-7.28
-8.46
-9.65
-10.79
-11.74
-12.24
-12.01
-10.88
-8.88
-6.32
-3.61
-1.14
0.89
2.48
3.75
4.84
5.82
6.70
7.40
7.88
8.14
8.21
8.14
7.93
7.60
7.17
6.69
6.18
5.73
5.38
5.16
5.07
5.10
5.26
5.50
5.78
5.99
6.00
5.71
5.02
3.99
2.74
1.47
0.34
-0.55
-1.22
-1.77
-2.31
-2.92
-3.62
-4.38
-5.14
-5.86
-6.52
-7.06
-7.47
-7.72
-7.85
-7.88
-7.89
-7.93
-8.05
-8.28
-8.55
-8.78
-8.81
-8.55
-7.91
-6.91
-5.62
-4.14
-2.59
-1.05
0.37
1.59
2.53
3.19
3.64
3.99
4.33
4.68
5.00
5.25
5.41
5.52
5.64
5.79
5.91
5.93
5.79
5.53
5.23
4.96
4.73
4.48
4.16
3.78
3.38
3.04
2.76
2.49
2.11
1.57
0.88
0.16
-0.49
-1.02
-1.45
-1.87
-2.33
-2.82
-3.28
-3.60
-3.77
-3.83
-3.85
-3.92
-4.07
-4.32
-4.69
-5.22
-5.95
-6.92
-8.07
-9.23
-10.21
-10.75
-10.74
-10.14
-9.05
-7.62
-6.00
-4.33
-2.67
-1.11
0.31
1.56
2.63
3.58
4.46
5.27
5.96
6.40
6.51
6.28
5.82
5.31
4.90
4.68
4.66
4.75
4.93
5.15
5.40
5.61
5.71
5.61
5.27
4.73
4.11
3.52
3.05
2.67
2.32
1.94
1.49
0.96
0.42
-0.09
-0.52
-0.88
-1.20
-1.52
-1.88
-2.31
-2.79
-3.33
-3.94
-4.65
-5.47
-6.37
-7.25
-7.97
-8.38
-8.38
-7.91
-6.99
-5.70
-4.17
-2.55
-1.02
0.29
1.28
1.96
2.40
2.71
3.03
3.41
3.83
4.20
4.38
4.30
3.97
3.49
3.01
2.68
2.54
2.60
2.75
2.89
2.94
2.87
2.72
2.47
2.15
1.75
1.29
0.81
0.36
-0.00
-0.24
-0.34
-0.37
-0.40
-0.54
-0.88
-1.51
-2.44
-3.58
-4.75
-5.74
-6.42
-6.81
-7.08
-7.47
-8.17
-9.22
-10.45
-11.60
-12.44
-12.83
-12.77
-12.28
-11.40
-10.11
-8.40
-6.35
-4.14
-2.02
-0.23
1.09
1.93
2.43
2.81
3.23
3.80
4.52
5.33
6.09
6.71
7.14
7.40
7.55
7.65
7.76
7.88
8.07
8.33
8.66
9.01
9.28
9.33
9.05
8.38
7.26
5.73
3.85
1.78
-0.31
-2.16
-3.58
-4.47
-4.87
-4.93
-4.84
-4.73
-4.65
-4.56
-4.43
-4.24
-4.00
-3.73
-3.53
-3.52
-3.88
-4.73
-6.07
-7.68
-9.16
-10.08
-10.13
-9.29
-7.79
-6.05
-4.38
-2.88
-1.45
0.07
1.78
3.61
5.39
6.92
8.11
9.00
9.67
10.22
10.59
10.68
10.40
9.73
8.80
7.80
6.92
6.24
5.75
5.41
5.14
4.95
4.85
4.84
4.84
4.82
4.70
4.44
4.07
3.58
2.92
2.01
0.85
-0.52
-1.91
-3.10
-3.96
-4.47
-4.78
-5.10
-5.61
-6.38
-7.34
-8.36
-9.28
-9.99
-10.45
-10.66
-10.62
-10.30
-9.65
-8.65
-7.37
-5.90
-4.42
-3.06
-1.90
-0.92
-0.02
0.89
1.89
2.98
4.08
5.09
5.91
6.48
6.84
7.04
7.15
7.21
7.23
7.20
7.15
7.08
7.01
6.87
6.55
5.97
5.13
4.15
3.23
2.56
2.25
2.27
2.48
2.71
2.80
2.68
2.29
1.62
0.74
-0.29
-1.33
-2.33
-3.27
-4.25
-5.35
-6.62
-7.99
-9.29
-10.35
-11.05
-11.40
-11.50
-11.48
-11.41
-11.23
-10.84
-10.11
-8.98
-7.50
-5.80
-4.07
-2.50
-1.25
-0.35
0.26
0.72
1.16
1.72
2.43
3.22
3.98
4.59
5.02
5.27
5.44
5.62
5.90
6.34
6.93
7.64
8.41
9.14
9.72
10.01
9.94
9.50
8.73
7.77
6.75
5.77
4.89
4.12
3.44
2.81
2.22
1.65
1.06
0.43
-0.29
-1.04
-1.76
-2.35
-2.75
-3.02
-3.26
-3.61
-4.14
-4.78
-5.36
-5.73
-5.81
-5.69
-5.55
-5.56
-5.83
-6.29
-6.79
-7.15
-7.19
-6.81
-5.98
-4.73
-3.17
-1.46
0.24
1.78
3.04
3.99
4.68
5.17
5.52
5.78
5.93
5.99
5.97
5.85
5.65
5.36
4.98
4.51
4.01
3.56
3.24
3.08
3.06
3.09
3.09
3.00
2.82
2.60
2.40
2.23
2.04
1.74
1.27
0.62
-0.11
-0.82
-1.39
-1.81
-2.17
-2.59
-3.16
-3.86
-4.58
-5.18
-5.53
-5.63
-5.61
-5.64
-5.90
-6.45
-7.22
-8.02
-8.59
-8.71
-8.27
-7.27
-5.85
-4.20
-2.54
-1.03
0.23
1.21
1.92
2.41
2.75
3.05
3.39
3.84
4.41
5.01
5.55
5.87
5.90
5.60
5.07
4.43
3.80
3.27
2.90
2.71
2.68
2.79
2.96
3.08
3.04
2.77
2.28
1.65
1.00
0.44
0.01
-0.33
-0.71
-1.24
-1.97
-2.88
-3.88
-4.84
-5.66
-6.27
-6.69
-6.96
-7.16
-7.32
-7.46
-7.57
-7.67
-7.78
-7.93
-8.13
-8.33
-8.40
-8.20
-7.60
-6.55
-5.16
-3.60
-2.10
-0.80
0.29
1.24
2.17
3.10
3.98
4.70
5.15
5.34
5.33
5.25
5.16
5.09
5.03
4.97
4.94
4.98
5.11
5.30
5.50
5.60
5.58
5.39
5.04
4.55
3.90
3.14
2.32
1.53
0.82
0.23
-0.26
-0.69
-1.12
-1.54
-1.95
-2.33
-2.65
-2.92
-3.16
-3.40
-3.70
-4.06
-4.49
-4.94
-5.42
-5.89
-6.38
-6.86
-7.31
-7.63
-7.67
-7.33
-6.54
-5.35
-3.90
-2.35
-0.88
0.43
1.55
2.52
3.32
3.96
4.36
4.49
4.34
4.00
3.63
3.36
3.28
3.35
3.47
3.49
3.38
3.18
3.01
3.00
3.15
3.38
3.53
3.52
3.32
3.06
2.90
2.93
3.16
3.49
3.75
3.86
3.79
3.57
3.25
2.83
2.25
1.48
0.48
-0.69
-1.95
-3.16
-4.22
-5.07
-5.69
-6.13
-6.48
-6.83
-7.24
-7.68
-8.08
-8.25
-8.04
-7.34
-6.15
-4.57
-2.76
-0.92
0.80
2.27
3.43
4.25
4.79
5.13
5.38
5.63
5.87
6.04
6.08
5.94
5.67
5.35
5.09
4.89
4.74
4.55
4.27
3.93
3.63
3.46
3.47
3.62
3.78
3.80
3.52
2.91
1.99
0.89
-0.25
-1.28
-2.12
-2.75
-3.22
-3.63
-4.07
-4.62
-5.34
-6.25
-7.32
-8.47
-9.60
-10.57
-11.33
-11.86
-12.20
-12.43
-12.55
-12.54
-12.32
-11.78
-10.86
-9.58
-7.97
-6.12
-4.09
-1.96
0.19
2.22
4.01
5.42
6.36
6.87
7.04
7.02
6.92
6.85
6.82
6.85
6.93
7.08
7.29
7.51
7.68
7.70
7.50
7.10
6.55
5.94
5.33
4.73
4.13
3.55
3.09
2.83
2.82
2.99
3.13
3.06
2.67
1.98
1.15
0.32
-0.44
-1.16
-1.90
-2.67
-3.39
-3.97
-4.33
-4.54
-4.80
-5.28
-6.02
-6.88
-7.55
-7.76
-7.34
-6.35
-4.96
-3.45
-1.98
-0.63
0.62
1.79
2.87
3.81
4.52
4.94
5.07
4.96
4.66
4.28
3.88
3.51
3.20
2.93
2.69
2.51
2.44
2.52
2.78
3.18
3.64
4.05
4.37
4.60
4.82
5.09
5.47
5.93
6.40
6.78
7.00
7.00
6.73
6.15
5.25
4.04
2.58
0.99
-0.64
-2.21
-3.69
-5.07
-6.36
-7.58
-8.74
-9.78
-10.65
-11.29
-11.58
-11.46
-10.83
-9.66
-8.01
-5.99
-3.80
-1.61
0.42
2.20
3.71
4.93
5.86
6.48
6.77
6.77
6.56
6.27
6.02
5.89
5.92
6.07
6.29
6.50
6.66
6.76
6.83
6.88
6.89
6.83
6.65
6.32
5.81
5.16
4.41
3.60
2.73
1.86
1.04
0.38
-0.02
-0.14
-0.03
0.18
0.31
0.24
-0.08
-0.62
-1.28
-1.96
-2.61
-3.24
-3.94
-4.81
-5.94
-7.39
-9.09
-10.89
-12.53
-13.74
-14.30
-14.13
-13.34
-12.14
-10.79
-9.45
-8.18
-6.90
-5.54
-4.05
-2.49
-0.95
0.48
1.74
2.81
3.69
4.34
4.76
5.00
5.15
5.35
5.69
6.20
6.79
7.36
7.85
8.29
8.78
9.39
10.13
10.89
11.53
11.95
12.15
12.22
12.24
12.20
11.97
11.35
10.16
8.33
5.92
3.05
-0.19
-3.76
-7.75
-12.26
-17.31
-22.79
-28.46
-33.93
-38.84
-42.83
-45.67
-47.20
-47.31
-45.87
-42.75
-37.88
-31.35
-23.45
-14.70
-5.77
2.64
9.97
15.83
20.00
22.48
23.36
22.87
21.31
19.07
16.58
14.23
12.32
11.06
10.49
10.52
10.92
11.41
11.74
11.73
11.29
10.51
9.49
8.32
7.07
5.76
4.46
3.28
2.37
1.82
1.64
1.75
1.99
2.22
2.31
2.20
1.78
0.93
-0.49
-2.55
-5.14
-8.04
-10.92
-13.48
-15.51
-16.97
-17.86
-18.22
-18.07
-17.33
-15.98
-14.03
-11.59
-8.81
-5.85
-2.84
0.10
2.83
5.20
7.02
8.16
8.62
8.52
8.10
7.63
7.27
7.05
6.90
6.73
6.49
6.26
6.21
6.50
7.22
8.31
9.61
10.94
12.13
13.13
13.93
14.52
14.83
14.70
13.97
12.51
10.36
7.69
4.80
1.96
-0.63
-2.92
-4.95
-6.79
-8.46
-9.87
-10.88
-11.35
-11.23
-10.60
-9.65
-8.57
-7.49
-6.50
-5.60
-4.79
-4.06
-3.42
-2.87
-2.37
-1.87
-1.30
-0.69
-0.10
0.33
0.52
0.44
0.17
-0.19
-0.52
-0.73
-0.79
-0.66
-0.34
0.21
0.99
1.97
3.07
4.20
5.28
6.31
7.39
8.64
10.14
11.86
13.67
15.34
16.66
17.51
17.82
17.65
17.08
16.21
15.11
13.79
12.22
10.39
8.31
6.07
3.80
1.62
-0.29
-1.82
-2.87
-3.45
-3.61
-3.45
-3.17
-2.94
-2.90
-3.07
-3.34
-3.50
-3.37
-2.85
-1.98
-0.96
-0.07
0.47
0.55
0.24
-0.29
-0.83
-1.21
-1.35
-1.25
-0.97
-0.57
-0.11
0.38
0.91
1.50
2.13
2.78
3.43
4.02
4.54
5.05
5.56
6.09
6.54
6.73
6.50
5.84
4.86
3.80
2.89
2.21
1.69
1.14
0.37
-0.67
-1.91
-3.17
-4.32
-5.30
-6.18
-7.06
-8.01
-8.99
-9.88
-10.49
-10.67
-10.33
-9.50
-8.30
-6.84
-5.27
-3.70
-2.23
-0.96
0.03
0.71
1.14
1.42
1.69
2.06
2.54
3.09
3.61
4.01
4.27
4.36
4.32
4.18
3.97
3.76
3.57
3.45
3.35
3.22
2.92
2.39
1.58
0.53
-0.67
-1.86
-2.91
-3.72
-4.26
-4.59
-4.83
-5.12
-5.54
-6.11
-6.72
-7.25
-7.63
-7.83
-7.93
-7.99
-8.01
-7.90
-7.51
-6.74
-5.64
-4.36
-3.11
-2.06
-1.24
-0.56
0.10
0.83
1.60
2.32
2.89
3.29
3.53
3.68
3.76
3.78
3.73
3.62
3.51
3.51
3.64
3.89
4.11
4.20
4.11
3.87
3.55
3.21
2.88
2.48
2.00
1.42
0.80
0.19
-0.38
-0.96
-1.60
-2.37
-3.29
-4.32
-5.40
-6.46
-7.47
-8.40
-9.23
-9.93
-10.43
-10.68
-10.55
-9.98
-8.94
-7.51
-5.86
-4.19
-2.67
-1.37
-0.27
0.73
1.72
2.73
3.66
4.36
4.69
4.65
4.37
4.10
4.10
4.45
5.06
5.65
5.93
5.72
5.08
4.28
3.64
3.37
3.48
3.77
4.02
4.05
3.88
3.60
3.38
3.30
3.31
3.29
3.08
2.56
1.72
0.60
-0.71
-2.09
-3.46
-4.73
-5.83
-6.73
-7.42
-7.91
-8.25
-8.49
-8.66
-8.80
-8.93
-9.06
-9.17
-9.20
-9.07
-8.67
-7.93
-6.83
-5.44
-3.93
-2.47
-1.25
-0.35
0.20
0.48
0.61
0.76
1.03
1.44
1.97
2.55
3.15
3.77
4.45
5.21
6.01
6.75
7.28
7.48
7.34
6.92
6.35
5.75
5.15
4.51
3.76
2.85
1.82
0.79
-0.12
-0.83
-1.32
-1.71
-2.12
-2.65
-3.30
-3.99
-4.57
-4.97
-5.19
-5.30
-5.41
-5.58
-5.81
-6.03
-6.16
-6.12
-5.83
-5.25
-4.34
-3.15
-1.74
-0.28
1.10
2.28
3.17
3.77
4.11
4.21
4.13
3.96
3.73
3.50
3.30
3.16
3.11
3.23
3.60
4.20
4.96
5.68
6.19
6.35
6.12
5.54
4.70
3.70
2.59
1.42
0.23
-0.91
-1.94
-2.81
-3.46
-3.87
-4.03
-3.98
-3.76
-3.49
-3.26
-3.18
-3.33
-3.70
-4.26
-4.89
-5.49
-5.96
-6.33
-6.68
-7.17
-7.94
-8.99
-10.16
-11.15
-11.65
-11.46
-10.60
-9.24
-7.62
-5.94
-4.30
-2.77
-1.39
-0.24
0.61
1.18
1.54
1.80
2.05
2.30
2.47
2.53
2.53
2.57
2.76
3.08
3.41
3.61
3.60
3.45
3.32
3.36
3.60
3.92
4.18
4.25
4.13
3.91
3.68
3.50
3.32
3.04
2.61
2.04
1.39
0.75
0.13
-0.47
-1.13
-1.91
-2.83
-3.87
-4.94
-5.96
-6.89
-7.77
-8.66
-9.63
-10.67
-11.65
-12.36
-12.56
-12.06
-10.81
-8.89
-6.51
-3.93
-1.37
1.03
3.18
5.05
6.60
7.79
8.59
9.04
9.18
9.10
8.91
8.69
8.54
8.51
8.59
8.73
8.85
8.84
8.63
8.20
7.57
6.81
6.02
5.24
4.47
3.70
2.91
2.09
1.29
0.58
0.01
-0.42
-0.77
-1.16
-1.68
-2.38
-3.20
-4.02
-4.70
-5.14
-5.35
-5.41
-5.46
-5.65
-6.04
-6.64
-7.40
-8.14
-8.70
-8.88
-8.52
-7.58
-6.15
-4.40
-2.54
-0.77
0.76
2.00
2.92
3.50
3.80
3.88
3.86
3.82
3.81
3.81
3.78
3.65
3.43
3.17
2.89
2.63
2.38
2.18
2.11
2.27
2.72
3.40
4.14
4.70
4.89
4.63
4.03
3.28
2.60
2.11
1.82
1.63
1.35
0.84
0.02
-1.05
-2.21
-3.28
-4.14
-4.78
-5.25
-5.69
-6.19
-6.75
-7.31
-7.78
-8.11
-8.26
-8.20
-7.85
-7.15
-6.05
-4.57
-2.86
-1.10
0.49
1.78
2.75
3.48
4.08
4.64
5.17
5.61
5.88
5.95
5.88
5.77
5.79
6.03
6.49
7.08
7.64
8.07
8.29
8.31
8.15
7.85
7.44
6.97
6.44
5.86
5.22
4.52
3.78
3.06
2.41
1.86
1.40
0.99
0.57
0.09
-0.46
-1.05
-1.68
-2.36
-3.11
-3.94
-4.81
-5.68
-6.51
-7.30
-8.08
-8.82
-9.49
-9.97
-10.09
-9.73
-8.85
-7.53
-5.91
-4.18
-2.52
-0.98
0.43
1.76
3.04
4.28
5.40
6.30
6.89
7.16
7.15
6.97
6.75
6.57
6.47
6.42
6.38
6.24
6.01
5.69
5.36
5.08
4.85
4.60
4.25
3.74
3.13
2.54
2.13
1.98
2.07
2.25
2.35
2.22
1.83
1.20
0.38
-0.55
-1.52
-2.47
-3.34
-4.13
-4.86
-5.59
-6.41
-7.36
-8.45
-9.62
-10.79
-11.79
-12.44
-12.54
-11.97
-10.70
-8.87
-6.73
-4.60
-2.72
-1.22
-0.04
0.94
1.85
2.74
3.55
4.18
4.52
4.56
4.38
4.15
3.97
3.95
4.08
4.27
4.52
4.83
5.23
5.77
6.40
6.97
7.32
7.30
6.87
6.08
5.10
4.11
3.21
2.42
1.63
0.76
-0.27
-1.39
-2.45
-3.25
-3.67
-3.73
-3.56
-3.36
-3.31
-3.46
-3.75
-4.08
-4.40
-4.73
-5.11
-5.57
-6.04
-6.34
-6.26
-5.68
-4.63
-3.30
-1.95
-0.80
0.09
0.77
1.38
2.05
2.79
3.51
4.10
4.49
4.65
4.70
4.73
4.86
5.13
5.48
5.83
6.08
6.13
5.97
5.66
5.29
4.98
4.77
4.59
4.34
3.90
3.23
2.44
1.70
1.19
0.94
0.83
0.64
0.18
-0.56
-1.46
-2.29
-2.85
-3.14
-3.28
-3.44
-3.79
-4.38
-5.14
-5.93
-6.61
-7.11
-7.34
-7.27
-6.83
-5.96
-4.68
-3.07
-1.31
0.38
1.79
2.78
3.33
3.48
3.34
3.02
2.67
2.38
2.19
2.14
2.21
2.32
2.39
2.38
2.37
2.44
2.69
3.17
3.81
4.45
4.87
4.93
4.56
3.83
2.86
1.79
0.73
-0.30
-1.30
-2.26
-3.12
-3.84
-4.36
-4.71
-5.00
-5.35
-5.82
-6.37
-6.86
-7.17
-7.31
-7.40
-7.63
-8.12
-8.82
-9.50
-9.85
-9.63
-8.80
-7.53
-6.04
-4.56
-3.17
-1.86
-0.61
0.62
1.78
2.80
3.63
4.30
4.86
5.39
5.91
6.40
6.79
7.03
7.11
7.07
6.96
6.80
6.62
6.43
6.23
6.05
5.90
5.82
5.82
5.86
5.87
5.78
5.54
5.19
4.77
4.36
3.98
3.61
3.16
2.55
1.75
0.74
-0.36
-1.46
-2.50
-3.42
-4.22
-4.87
-5.32
-5.56
-5.62
-5.59
-5.63
-5.83
-6.17
-6.47
-6.48
-5.98
-4.91
-3.38
-1.63
0.06
1.51
2.64
3.45
4.01
4.38
4.60
4.69
4.67
4.57
4.43
4.28
4.11
3.95
3.79
3.67
3.60
3.58
3.62
3.66
3.69
3.67
3.58
3.39
3.15
2.83
2.43
1.93
1.37
0.79
0.26
-0.16
-0.48
-0.72
-0.98
-1.35
-1.88
-2.54
-3.29
-4.08
-4.82
-5.47
-5.96
-6.27
-6.39
-6.38
-6.40
-6.59
-7.13
-8.05
-9.23
-10.42
-11.29
-11.61
-11.24
-10.28
-8.89
-7.31
-5.70
-4.17
-2.77
-1.55
-0.54
0.25
0.88
1.46
2.11
2.88
3.72
4.50
5.05
5.28
5.22
4.96
4.67
4.44
4.29
4.19
4.11
4.04
3.97
3.87
3.67
3.31
2.77
2.11
1.50
1.07
0.87
0.82
0.78
0.58
0.19
-0.32
-0.84
-1.28
-1.67
-2.11
-2.69
-3.41
-4.17
-4.81
-5.19
-5.29
-5.21
-5.10
-5.14
-5.45
-6.08
-6.98
-8.07
-9.21
-10.21
-10.87
-11.02
-10.56
-9.49
-7.91
-5.99
-3.95
-1.99
-0.28
1.08
2.08
2.78
3.28
3.69
4.07
4.40
4.68
4.89
5.07
5.22
5.36
5.39
5.24
4.88
4.40
3.98
3.76
3.78
3.97
4.17
4.23
4.10
3.85
3.57
3.35
3.18
3.06
2.94
2.78
2.53
2.14
1.57
0.78
-0.16
-1.15
-2.07
-2.82
-3.36
-3.72
-3.93
-4.04
-4.10
-4.12
-4.16
-4.30
-4.61
-5.16
-5.93
-6.80
-7.56
-7.98
-7.87
-7.15
-5.93
-4.42
-2.88
-1.50
-0.36
0.56
1.32
1.98
2.52
2.90
3.06
2.99
2.68
2.21
1.66
1.13
0.66
0.32
0.14
0.16
0.39
0.83
1.41
2.04
2.61
3.05
3.33
3.50
3.62
3.72
3.77
3.69
3.46
3.11
2.73
2.39
2.11
1.80
1.37
0.77
0.05
-0.70
-1.35
-1.86
-2.26
-2.64
-3.06
-3.53
-4.04
-4.56
-5.10
-5.66
-6.22
-6.71
-6.99
-6.93
-6.43
-5.51
-4.30
-2.98
-1.72
-0.58
0.41
1.34
2.26
3.22
4.18
5.13
6.02
6.81
7.50
8.02
8.36
8.51
8.49
8.37
8.23
8.09
7.91
7.63
7.16
6.48
5.63
4.65
3.64
2.67
1.81
1.15
0.72
0.51
0.51
0.64
0.81
0.96
1.01
0.91
0.65
0.24
-0.31
-0.99
-1.83
-2.85
-4.02
-5.30
-6.58
-7.71
-8.59
-9.13
-9.30
-9.05
-8.32
-7.03
-5.21
-2.98
-0.55
1.77
3.74
5.25
6.29
6.95
7.37
7.66
7.89
8.13
8.37
8.60
8.82
8.98
9.04
8.96
8.68
8.22
7.62
7.00
6.48
6.15
5.99
5.93
5.82
5.56
5.05
4.29
3.30
2.18
1.00
-0.10
-1.02
-1.67
-2.05
-2.26
-2.44
-2.77
-3.35
-4.15
-5.11
-6.10
-7.02
-7.80
-8.46
-9.04
-9.59
-10.18
-10.86
-11.65
-12.45
-13.10
-13.41
-13.20
-12.40
-11.04
-9.24
-7.14
-4.90
-2.65
-0.55
1.28
2.71
3.71
4.30
4.62
4.78
4.89
4.99
5.00
4.87
4.54
4.07
3.56
3.15
2.96
2.98
3.14
3.31
3.42
3.44
3.46
3.51
3.60
3.61
3.41
2.92
2.18
1.38
0.71
0.30
0.14
0.05
-0.21
-0.80
-1.75
-2.92
-4.09
-5.11
-5.96
-6.70
-7.47
-8.33
-9.30
-10.30
-11.26
-12.17
-13.04
-13.81
-14.35
-14.41
-13.73
-12.20
-9.87
-7.03
-4.07
-1.32
1.00
2.90
4.51
5.98
7.37
8.62
9.54
10.00
9.93
9.44
8.74
8.07
7.62
7.44
7.48
7.66
7.85
8.00
8.08
8.06
7.95
7.72
7.34
6.81
6.16
5.43
4.73
4.18
3.83
3.66
3.54
3.36
2.97
2.36
1.55
0.68
-0.18
-0.96
-1.67
-2.33
-2.92
-3.43
-3.81
-4.12
-4.38
-4.67
-4.99
-5.26
-5.40
-5.29
-4.92
-4.26
-3.36
-2.23
-0.95
0.40
1.70
2.76
3.48
3.85
3.97
3.96
3.91
3.86
3.74
3.49
3.13
2.72
2.40
2.29
2.41
2.72
3.09
3.36
3.40
3.17
2.69
2.02
1.27
0.49
-0.27
-1.00
-1.68
-2.24
-2.62
-2.77
-2.72
-2.56
-2.39
-2.33
-2.43
-2.67
-3.00
-3.35
-3.69
-3.99
-4.25
-4.44
-4.55
-4.55
-4.45
-4.21
-3.84
-3.29
-2.51
-1.45
-0.10
1.43
3.02
4.44
5.51
6.13
6.29
6.12
5.77
5.42
5.14
4.95
4.80
4.64
4.50
4.46
4.64
5.10
5.78
6.53
7.15
7.49
7.56
7.46
7.33
7.23
7.08
6.72
6.00
4.94
3.69
2.46
1.44
0.67
0.02
-0.66
-1.46
-2.34
-3.12
-3.64
-3.79
-3.64
-3.30
-2.96
-2.70
-2.54
-2.45
-2.37
-2.32
-2.31
-2.35
-2.40
-2.32
-2.01
-1.45
-0.72
0.01
0.56
0.87
1.01
1.03
0.98
0.81
0.37
-0.48
-1.71
-3.15
-4.45
-5.29
-5.45
-4.92
-3.84
-2.44
-0.93
0.53
1.86
3.01
3.95
4.67
5.18
5.53
5.79
6.00
6.16
6.17
5.89
5.23
4.17
2.86
1.47
0.16
-0.97
-1.89
-2.65
-3.25
-3.69
-3.98
-4.18
-4.45
-4.93
-5.72
-6.70
-7.63
-8.21
-8.24
-7.68
-6.69
-5.56
-4.49
-3.59
-2.83
-2.11
-1.36
-0.56
0.22
0.88
1.34
1.62
1.74
1.82
1.90
2.03
2.14
2.15
2.02
1.79
1.62
1.67
2.05
2.70
3.41
3.94
4.12
3.93
3.50
2.99
2.48
2.00
1.48
0.85
0.11
-0.69
-1.44
-2.09
-2.65
-3.15
-3.65
-4.19
-4.78
-5.35
-5.86
-6.24
-6.45
-6.46
-6.26
-5.85
-5.25
-4.47
-3.55
-2.51
-1.42
-0.39
0.51
1.17
1.59
1.82
1.94
2.05
2.17
2.29
2.34
2.28
2.08
1.84
1.66
1.67
1.89
2.25
2.61
2.85
2.90
2.81
2.65
2.49
2.35
2.13
1.75
1.12
0.24
-0.78
-1.82
-2.74
-3.45
-3.92
-4.20
-4.41
-4.70
-5.23
-6.07
-7.13
-8.22
-9.07
-9.47
-9.31
-8.59
-7.36
-5.72
-3.80
-1.75
0.18
1.76
2.85
3.40
3.54
3.45
3.27
3.10
2.96
2.79
2.59
2.38
2.19
2.05
1.95
1.85
1.73
1.59
1.44
1.32
1.21
1.10
0.95
0.74
0.48
0.20
-0.08
-0.31
-0.52
-0.71
-0.94
-1.19
-1.43
-1.60
-1.66
-1.62
-1.54
-1.53
-1.66
-1.94
-2.33
-2.72
-2.98
-3.06
-2.89
-2.46
-1.78
-0.95
-0.09
0.64
1.13
1.34
1.35
1.29
1.30
1.45
1.69
1.95
2.13
2.20
2.18
2.10
2.00
1.88
1.71
1.45
1.07
0.54
-0.11
-0.85
-1.64
-2.40
-3.09
-3.66
-4.06
-4.32
-4.45
-4.49
-4.46
-4.35
-4.17
-3.93
-3.66
-3.41
-3.24
-3.17
-3.21
-3.34
-3.55
-3.84
-4.15
-4.41
-4.53
-4.40
-3.97
-3.32
-2.58
-1.87
-1.25
-0.70
-0.14
0.48
1.17
1.86
2.50
3.03
3.47
3.82
4.08
4.20
4.10
3.75
3.16
2.49
1.86
1.43
1.22
1.20
1.23
1.17
0.92
0.46
-0.12
-0.73
-1.32
-1.89
-2.49
-3.15
-3.87
-4.58
-5.22
-5.75
-6.16
-6.52
-6.86
-7.21
-7.51
-7.70
-7.72
-7.53
-7.14
-6.52
-5.67
-4.54
-3.15
-1.61
-0.07
1.20
1.91
1.82
0.79
-1.22
-4.14
-7.84
-12.18
-16.99
-22.01
-26.92
-31.35
-34.89
-37.24
-38.19
-37.70
-35.85
-32.74
-28.51
-23.31
-17.30
-10.77
-4.06
2.44
8.40
13.53
17.60
20.50
22.16
22.65
22.09
20.73
18.88
16.86
14.98
13.51
12.64
12.53
13.18
14.41
15.82
16.88
17.11
16.23
14.33
11.88
9.50
7.80
7.11
7.51
8.79
10.68
12.86
15.03
16.90
18.16
18.55
17.93
16.39
14.15
11.57
8.95
6.53
4.43
2.69
1.34
0.32
-0.44
-1.10
-1.84
-2.85
-4.23
-6.00
-8.10
-10.42
-12.87
-15.35
-17.70
-19.69
-21.00
-21.27
-20.18
-17.65
-13.81
-9.01
-3.72
1.55
6.50
11.01
15.13
18.98
22.62
26.02
28.99
31.34
32.81
33.22
32.53
30.77
28.09
24.66
20.66
16.26
11.69
7.19
3.07
-0.38
-3.02
-4.84
-6.06
-6.96
-7.80
-8.71
-9.75
-10.83
-11.89
-12.91
-13.84
-14.61
-15.15
-15.34
-15.12
-14.48
-13.49
-12.27
-10.94
-9.50
-7.89
-6.07
-4.02
-1.82
0.37
2.37
4.04
5.33
6.23
6.81
7.08
7.04
6.65
5.90
4.84
3.59
2.29
1.13
0.19
-0.56
-1.26
-2.05
-3.00
-4.05
-4.99
-5.59
-5.68
-5.23
-4.33
-3.03
-1.39
0.57
2.78
5.07
7.17
8.80
9.84
10.33
10.42
10.20
9.56
8.16
5.67
1.86
-3.16
-9.06
-15.38
-21.75
-28.04
-34.29
-40.62
-47.02
-53.29
-59.10
-64.05
-67.75
-69.81
-69.84
-67.47
-62.47
-54.87
-45.02
-33.58
-21.25
-8.63
3.94
16.34
28.44
39.85
49.88
57.62
62.32
63.69
61.99
57.91
52.36
46.16
39.91
33.97
28.56
23.82
19.85
16.65
14.13
12.14
10.53
9.23
8.19
7.43
6.92
6.64
6.57
6.67
6.94
7.38
7.99
8.71
9.45
10.09
10.56
10.77
10.69
10.40
9.94
9.41
8.87
8.33
7.77
7.19
6.58
5.95
5.35
4.75
4.15
3.49
2.77
2.01
1.30
0.68
0.19
-0.15
-0.42
-0.66
-0.95
-1.34
-1.87
-2.52
-3.28
-4.07
-4.80
-5.38
-5.78
-6.07
-6.36
-6.77
-7.33
-7.98
-8.53
-8.76
-8.47
-7.54
-6.05
-4.20
-2.24
-0.41
1.10
2.22
2.93
3.30
3.46
3.54
3.71
4.02
4.46
4.90
5.16
5.15
4.88
4.50
4.18
4.04
4.07
4.17
4.22
4.16
4.00
3.81
3.60
3.35
3.02
2.59
2.08
1.59
1.22
1.04
1.01
1.04
1.01
0.85
0.55
0.20
-0.08
-0.18
-0.02
0.35
0.81
1.16
1.28
1.09
0.63
0.08
-0.40
-0.63
-0.54
-0.12
0.53
1.33
2.16
2.98
3.77
4.56
5.35
6.15
6.93
7.64
8.25
8.68
8.91
8.90
8.71
8.39
8.04
7.72
7.50
7.37
7.25
7.06
6.73
6.24
5.63
4.95
4.30
3.71
3.20
2.74
2.28
1.76
1.17
0.50
-0.23
-0.98
-1.74
-2.50
-3.25
-3.96
-4.60
-5.13
-5.52
-5.76
-5.87
-5.90
-5.94
-6.06
-6.34
-6.79
-7.34
-7.86
-8.20
-8.23
-7.92
-7.30
-6.41
-5.31
-4.04
-2.66
-1.27
-0.04
0.85
1.32
1.39
1.24
1.04
0.87
0.72
0.46
-0.02
-0.67
-1.37
-1.86
-1.99
-1.72
-1.21
-0.65
-0.24
-0.04
-0.01
-0.09
-0.27
-0.55
-0.98
-1.52
-2.05
-2.39
-2.40
-2.08
-1.57
-1.08
-0.76
-0.68
-0.81
-1.08
-1.49
-2.04
-2.71
-3.45
-4.11
-4.55
-4.71
-4.70
-4.71
-4.94
-5.46
-6.14
-6.78
-7.20
-7.27
-7.01
-6.55
-5.98
-5.36
-4.68
-3.92
-3.08
-2.22
-1.41
-0.73
-0.21
0.20
0.57
0.96
1.39
1.81
2.18
2.46
2.66
2.78
2.85
2.84
2.73
2.49
2.14
1.75
1.40
1.12
0.88
0.61
0.23
-0.25
-0.73
-1.08
-1.19
-1.03
-0.68
-0.28
0.03
0.19
0.19
0.12
0.08
0.08
0.06
-0.09
-0.45
-1.04
-1.75
-2.44
-2.93
-3.15
-3.15
-3.09
-3.15
-3.47
-4.02
-4.68
-5.23
-5.48
-5.30
-4.68
-3.70
-2.49
-1.23
-0.03
0.98
1.71
2.15
2.33
2.35
2.35
2.42
2.62
2.96
3.41
3.90
4.33
4.64
4.73
4.61
4.29
3.83
3.33
2.81
2.27
1.72
1.13
0.56
0.08
-0.23
-0.35
-0.31
-0.22
-0.21
-0.37
-0.76
-1.36
-2.12
-2.93
-3.75
-4.48
-5.08
-5.51
-5.75
-5.84
-5.82
-5.73
-5.62
-5.45
-5.24
-4.98
-4.71
-4.51
-4.45
-4.53
-4.71
-4.90
-4.99
-4.93
-4.70
-4.30
-3.74
-3.04
-2.26
-1.45
-0.72
-0.11
0.38
0.80
1.17
1.54
1.89
2.19
2.40
2.50
2.50
2.40
2.18
1.87
1.49
1.12
0.85
0.69
0.63
0.63
0.64
0.61
0.54
0.45
0.34
0.22
0.10
-0.04
-0.21
-0.44
-0.72
-1.03
-1.33
-1.61
-1.88
-2.20
-2.60
-3.12
-3.70
-4.23
-4.63
-4.83
-4.88
-4.83
-4.78
-4.79
-4.86
-4.92
-4.90
-4.73
-4.37
-3.82
-3.08
-2.22
-1.29
-0.41
0.33
0.85
1.11
1.13
0.99
0.78
0.57
0.41
0.30
0.22
0.18
0.14
0.16
0.23
0.35
0.45
0.52
0.52
0.46
0.44
0.49
0.64
0.85
1.09
1.27
1.38
1.43
1.45
1.43
1.33
1.08
0.60
-0.06
-0.78
-1.40
-1.80
-1.99
-2.06
-2.16
-2.35
-2.68
-3.10
-3.54
-3.99
-4.46
-4.88
-5.13
-5.09
-4.64
-3.84
-2.84
-1.85
-1.01
-0.33
0.29
0.96
1.74
2.55
3.26
3.74
3.94
3.97
3.90
3.84
3.79
3.64
3.33
2.85
2.29
1.82
1.59
1.63
1.84
2.02
2.00
1.68
1.15
0.58
0.13
-0.12
-0.22
-0.31
-0.52
-0.85
-1.25
-1.61
-1.85
-1.97
-2.02
-2.09
-2.17
-2.26
-2.28
-2.22
-2.11
-2.05
-2.15
-2.47
-2.93
-3.38
-3.59
-3.33
-2.54
-1.33
0.10
1.45
2.55
3.37
3.97
4.47
4.95
5.35
5.57
5.55
5.33
5.02
4.76
4.58
4.40
4.09
3.55
2.83
2.10
1.57
1.37
1.48
1.77
2.05
2.19
2.18
2.06
1.96
1.92
1.92
1.91
1.83
1.63
1.37
1.07
0.79
0.52
0.25
-0.07
-0.45
-0.90
-1.42
-1.96
-2.46
-2.89
-3.22
-3.41
-3.42
-3.23
-2.76
-1.94
-0.79
0.61
2.09
3.42
4.40
4.97
5.13
5.01
4.75
4.45
4.21
4.07
4.04
4.10
4.20
4.27
4.23
4.08
3.84
3.60
3.44
3.41
3.49
3.62
3.72
3.73
3.66
3.52
3.36
3.21
3.05
2.86
2.59
2.21
1.75
1.24
0.76
0.36
0.08
-0.07
-0.13
-0.11
-0.06
-0.00
0.02
0.01
-0.05
-0.12
-0.22
-0.36
-0.55
-0.84
-1.22
-1.62
-1.99
-2.21
-2.18
-1.80
-1.06
0.02
1.31
2.61
3.70
4.43
4.78
4.87
4.90
5.03
5.30
5.61
5.81
5.77
5.49
5.07
4.70
4.46
4.38
4.39
4.38
4.33
4.26
4.25
4.34
4.46
4.46
4.20
3.62
2.82
2.01
1.42
1.17
1.26
1.51
1.74
1.79
1.60
1.25
0.87
0.59
0.48
0.54
0.69
0.84
0.91
0.85
0.67
0.36
-0.05
-0.56
-1.15
-1.74
-2.25
-2.61
-2.77
-2.75
-2.66
-2.58
-2.56
-2.61
-2.68
-2.76
-2.88
-3.08
-3.37
-3.70
-3.91
-3.83
-3.35
-2.49
-1.42
-0.34
0.55
1.21
1.67
2.04
2.38
2.70
3.00
3.23
3.41
3.54
3.61
3.56
3.33
2.88
2.28
1.65
1.11
0.73
0.47
0.28
0.06
-0.17
-0.38
-0.55
-0.67
-0.82
-1.06
-1.43
-1.89
-2.35
-2.73
-3.02
-3.29
-3.60
-4.00
-4.43
-4.81
-5.01
-4.99
-4.76
-4.39
-3.97
-3.53
-3.13
-2.75
-2.43
-2.19
-2.06
-2.01
-1.94
-1.78
-1.46
-1.04
-0.64
-0.45
-0.56
-0.96
-1.54
-2.11
-2.54
-2.75
-2.74
-2.57
-2.31
-1.99
-1.58
-1.04
-0.36
0.45
1.34
2.21
2.96
3.53
3.91
4.17
4.36
4.53
4.66
4.70
4.60
4.37
4.05
3.67
3.28
2.87
2.46
2.02
1.60
1.27
1.14
1.27
1.68
2.29
2.89
3.29
3.34
3.00
2.41
1.71
1.04
0.40
-0.24
-0.94
-1.67
-2.32
-2.80
-3.10
-3.31
-3.58
-3.95
-4.36
-4.67
-4.72
-4.49
-4.08
-3.70
-3.53
-3.63
-4.01
-4.58
-5.21
-5.82
-6.36
-6.81
-7.21
-7.58
-7.91
-8.18
-8.37
-8.47
-8.46
-8.33
-8.06
-7.60
-6.91
-5.99
-4.90
-3.76
-2.72
-1.88
-1.26
-0.78
-0.33
0.23
0.93
1.71
2.44
2.97
3.19
3.10
2.81
2.47
2.17
1.94
1.74
1.49
1.16
0.78
0.39
0.08
-0.16
-0.35
-0.52
-0.65
-0.69
-0.60
-0.40
-0.19
-0.08
-0.18
-0.51
-1.00
-1.50
-1.90
-2.16
-2.30
-2.40
-2.51
-2.62
-2.67
-2.60
-2.36
-2.03
-1.70
-1.52
-1.59
-1.89
-2.36
-2.87
-3.33
-3.72
-4.05
-4.39
-4.83
-5.36
-5.94
-6.47
-6.81
-6.83
-6.45
-5.66
-4.52
-3.12
-1.60
-0.05
1.42
2.72
3.76
4.49
4.91
5.06
5.00
4.74
4.28
3.64
2.86
2.11
1.56
1.31
1.37
1.59
1.78
1.83
1.78
1.79
2.03
2.50
3.05
3.44
3.51
3.20
2.68
2.11
1.69
1.45
1.32
1.16
0.91
0.57
0.16
-0.28
-0.77
-1.38
-2.06
-2.79
-3.45
-3.95
-4.30
-4.60
-4.99
-5.56
-6.28
-6.99
-7.52
-7.76
-7.72
-7.51
-7.28
-7.08
-6.94
-6.81
-6.68
-6.58
-6.55
-6.61
-6.72
-6.76
-6.57
-6.07
-5.30
-4.37
-3.47
-2.68
-2.00
-1.34
-0.59
0.28
1.16
1.88
2.31
2.43
2.33
2.19
2.17
2.31
2.62
2.96
3.20
3.28
3.12
2.79
2.35
1.92
1.61
1.44
1.39
1.38
1.33
1.21
1.02
0.82
0.60
0.36
0.06
-0.32
-0.77
-1.22
-1.56
-1.69
-1.55
-1.22
-0.82
-0.53
-0.46
-0.63
-0.95
-1.29
-1.56
-1.74
-1.92
-2.18
-2.54
-2.98
-3.42
-3.76
-3.96
-3.99
-3.86
-3.56
-3.07
-2.38
-1.50
-0.49
0.57
1.59
2.47
3.16
3.64
3.94
4.09
4.14
4.14
4.09
4.01
3.90
3.81
3.77
3.82
3.95
4.14
4.34
4.48
4.52
4.46
4.34
4.20
4.07
3.94
3.76
3.52
3.20
2.88
2.63
2.51
2.48
2.43
2.24
1.81
1.16
0.38
-0.37
-1.00
-1.45
-1.73
-1.88
-1.98
-2.09
-2.28
-2.60
-3.03
-3.48
-3.80
-3.78
-3.29
-2.30
-0.95
0.55
1.96
3.16
4.09
4.80
5.34
5.70
5.87
5.79
5.47
5.00
4.50
4.11
3.87
3.78
3.77
3.76
3.73
3.68
3.69
3.81
4.03
4.29
4.48
4.53
4.42
4.21
4.04
3.99
4.10
4.29
4.48
4.56
4.48
4.21
3.77
3.16
2.39
1.49
0.51
-0.43
-1.26
-1.91
-2.41
-2.79
-3.12
-3.41
-3.63
-3.76
-3.74
-3.59
-3.29
-2.84
-2.23
-1.44
-0.51
0.50
1.48
2.30
2.83
3.03
2.95
2.70
2.46
2.35
2.44
2.65
2.87
2.99
2.97
2.84
2.72
2.71
2.85
3.14
3.46
3.69
3.76
3.62
3.33
2.98
2.64
2.36
2.11
1.84
1.47
0.96
0.33
-0.33
-0.90
-1.29
-1.48
-1.52
-1.52
-1.55
-1.64
-1.76
-1.83
-1.83
-1.79
-1.80
-1.90
-2.05
-2.16
-2.13
-1.97
-1.77
-1.67
-1.80
-2.09
-2.39
-2.52
-2.32
-1.78
-0.99
-0.05
0.95
1.95
2.93
3.83
4.60
5.21
5.63
5.86
5.93
5.90
5.81
5.70
5.56
5.34
4.99
4.51
3.92
3.35
2.90
2.64
2.57
2.62
2.71
2.79
2.83
2.79
2.63
2.28
1.74
1.06
0.37
-0.19
-0.51
-0.61
-0.57
-0.53
-0.58
-0.76
-1.04
-1.35
-1.63
-1.81
-1.86
-1.75
-1.52
-1.18
-0.80
-0.41
-0.10
0.11
0.17
0.08
-0.18
-0.55
-0.92
-1.18
-1.23
-1.12
-0.94
-0.85
-0.97
-1.33
-1.86
-2.42
-2.90
-3.21
-3.32
-3.20
-2.80
-2.12
-1.20
-0.17
0.79
1.52
1.94
2.09
2.12
2.21
2.46
2.88
3.40
3.88
4.22
4.37
4.35
4.26
4.19
4.25
4.44
4.76
5.10
5.32
5.33
5.07
4.57
3.95
3.31
2.78
2.40
2.16
2.01
1.87
1.65
1.29
0.76
0.10
-0.59
-1.16
-1.50
-1.54
-1.32
-0.99
-0.74
-0.72
-1.00
-1.54
-2.25
-3.03
-3.81
-4.52
-5.10
-5.49
-5.66
-5.62
-5.41
-5.11
-4.78
-4.45
-4.15
-3.89
-3.68
-3.54
-3.51
-3.60
-3.78
-3.98
-4.13
-4.15
-4.00
-3.64
-3.10
-2.42
-1.65
-0.81
0.10
1.10
2.12
3.03
3.73
4.15
4.32
4.39
4.44
4.50
4.45
4.17
3.60
2.84
2.12
1.62
1.41
1.39
1.38
1.22
0.88
0.41
-0.10
-0.56
-0.95
-1.28
-1.56
-1.80
-2.01
-2.15
-2.23
-2.26
-2.23
-2.15
-2.05
-1.97
-1.90
-1.86
-1.81
-1.70
-1.50
-1.24
-1.00
-0.87
-0.91
-1.13
-1.51
-1.93
-2.32
-2.61
-2.79
-2.88
-2.91
-2.91
-2.92
-3.01
-3.26
-3.71
-4.38
-5.23
-6.12
-6.92
-7.49
-7.74
-7.67
-7.38
-6.98
-6.62
-6.34
-6.07
-5.67
-5.03
-4.07
-2.88
-1.61
-0.43
0.57
1.37
2.01
2.51
2.88
3.12
3.19
3.06
2.71
2.17
1.47
0.73
0.06
-0.43
-0.70
-0.83
-0.90
-0.99
-1.06
-1.07
-0.98
-0.88
-0.94
-1.29
-1.96
-2.76
-3.39
-3.64
-3.46
-2.94
-2.26
-1.61
-1.05
-0.61
-0.32
-0.24
-0.45
-0.97
-1.67
-2.34
-2.82
-2.98
-2.90
-2.79
-2.85
-3.22
-3.91
-4.79
-5.67
-6.41
-6.86
-7.00
-6.88
-6.57
-6.20
-5.83
-5.55
-5.39
-5.39
-5.50
-5.66
-5.73
-5.55
-5.07
-4.33
-3.47
-2.66
-2.00
-1.51
-1.13
-0.79
-0.43
-0.07
0.22
0.42
0.58
0.73
0.99
1.36
1.82
2.29
2.67
2.88
2.90
2.75
2.46
2.10
1.74
1.41
1.16
0.97
0.81
0.61
0.31
-0.09
-0.54
-0.95
-1.21
-1.26
-1.10
-0.78
-0.42
-0.16
-0.06
-0.13
-0.34
-0.66
-1.04
-1.49
-2.00
-2.51
-2.98
-3.33
-3.54
-3.64
-3.74
-3.92
-4.23
-4.60
-4.88
-4.95
-4.73
-4.19
-3.39
-2.35
-1.08
0.31
1.68
2.80
3.44
3.49
3.03
2.33
1.67
1.26
1.10
1.03
0.91
0.66
0.35
0.13
0.11
0.33
0.69
1.07
1.39
1.63
1.85
2.08
2.27
2.33
2.16
1.76
1.24
0.79
0.57
0.60
0.79
0.94
0.87
0.51
-0.08
-0.79
-1.48
-2.10
-2.65
-3.09
-3.38
-3.43
-3.24
-2.89
-2.57
-2.44
-2.56
-2.81
-2.98
-2.90
-2.47
-1.78
-0.94
-0.10
0.69
1.42
2.09
2.64
3.03
3.22
3.24
3.18
3.10
3.05
2.98
2.83
2.57
2.21
1.82
1.48
1.29
1.28
1.46
1.79
2.22
2.66
3.03
3.24
3.24
3.00
2.61
2.17
1.81
1.62
1.60
1.70
1.82
1.85
1.72
1.40
0.93
0.36
-0.25
-0.84
-1.35
-1.77
-2.10
-2.38
-2.62
-2.81
-2.88
-2.73
-2.30
-1.61
-0.75
0.16
1.04
1.85
2.61
3.36
4.09
4.72
5.17
5.40
5.42
5.28
5.05
4.78
4.48
4.17
3.87
3.65
3.55
3.58
3.69
3.84
3.96
4.01
4.03
4.05
4.11
4.18
4.25
4.30
4.32
4.30
4.23
4.12
3.93
3.62
3.10
2.37
1.46
0.47
-0.49
-1.30
-1.86
-2.19
-2.30
-2.27
-2.17
-2.05
-1.93
-1.79
-1.58
-1.23
-0.71
-0.02
0.79
1.67
2.52
3.25
3.78
4.10
4.23
4.24
4.24
4.32
4.50
4.75
4.97
5.04
4.93
4.64
4.25
3.85
3.54
3.33
3.25
3.28
3.37
3.44
3.37
3.10
2.60
1.93
1.20
0.56
0.07
-0.24
-0.43
-0.58
-0.72
-0.90
-1.07
-1.21
-1.28
-1.29
-1.28
-1.28
-1.33
-1.46
-1.67
-1.92
-2.20
-2.43
-2.54
-2.51
-2.34
-2.09
-1.84
-1.65
-1.52
-1.41
-1.20
-0.81
-0.23
0.51
1.31
2.02
2.56
2.90
3.05
3.13
3.19
3.25
3.29
3.28
3.22
3.21
3.35
3.71
4.23
4.74
5.08
5.16
5.02
4.79
4.62
4.53
4.47
4.32
3.98
3.43
2.76
2.09
1.55
1.20
1.06
1.06
1.11
1.10
0.97
0.70
0.35
-0.01
-0.31
-0.57
-0.82
-1.10
-1.41
-1.66
-1.77
-1.65
-1.31
-0.88
-0.53
-0.41
-0.60
-1.10
-1.77
-2.45
-2.96
-3.22
-3.21
-3.03
-2.85
-2.81
-2.93
-3.16
-3.38
-3.44
-3.24
-2.78
-2.09
-1.25
-0.32
0.63
1.53
2.31
2.95
3.48
3.96
4.40
4.76
4.94
4.84
4.42
3.74
2.96
2.23
1.69
1.39
1.29
1.31
1.40
1.48
1.56
1.61
1.61
1.56
1.51
1.48
1.52
1.64
1.81
1.98
2.10
2.18
2.25
2.36
2.52
2.68
2.76
2.69
2.46
2.15
1.85
1.63
1.50
1.43
1.29
1.03
0.54
-0.16
-1.03
-1.95
-2.79
-3.48
-3.96
-4.27
-4.46
-4.63
-4.79
-4.98
-5.19
-5.41
-5.65
-5.90
-6.11
-6.22
-6.18
-5.95
-5.48
-4.76
-3.79
-2.62
-1.35
-0.11
0.96
1.77
2.30
2.57
2.65
2.61
2.52
2.42
2.37
2.40
2.52
2.71
2.89
2.95
2.87
2.63
2.32
2.03
1.83
1.71
1.63
1.53
1.35
1.11
0.82
0.52
0.19
-0.18
-0.60
-1.04
-1.43
-1.66
-1.67
-1.47
-1.14
-0.78
-0.47
-0.26
-0.16
-0.14
-0.19
-0.27
-0.41
-0.58
-0.77
-0.94
-1.07
-1.16
-1.22
-1.30
-1.46
-1.74
-2.15
-2.69
-3.27
-3.82
-4.28
-4.62
-4.85
-4.99
-5.03
-4.96
-4.77
-4.44
-3.98
-3.40
-2.69
-1.85
-0.87
0.21
1.34
2.37
3.17
3.65
3.76
3.55
3.08
2.44
1.70
0.93
0.21
-0.35
-0.72
-0.97
-1.17
-1.45
-1.87
-2.37
-2.85
-3.18
-3.27
-3.10
-2.74
-2.26
-1.80
-1.45
-1.29
-1.35
-1.69
-2.25
-2.93
-3.61
-4.14
-4.48
-4.61
-4.55
-4.39
-4.20
-3.99
-3.81
-3.68
-3.62
-3.69
-3.88
-4.17
-4.47
-4.74
-4.96
-5.17
-5.42
-5.71
-6.00
-6.25
-6.40
-6.45
-6.40
-6.25
-5.98
-5.55
-4.85
-3.88
-2.70
-1.43
-0.24
0.69
1.25
1.39
1.21
0.88
0.55
0.30
0.15
-0.00
-0.24
-0.56
-0.90
-1.16
-1.26
-1.19
-0.99
-0.74
-0.50
-0.30
-0.15
-0.07
-0.09
-0.20
-0.37
-0.55
-0.69
-0.75
-0.76
-0.74
-0.72
-0.75
-0.81
-0.94
-1.13
-1.42
-1.81
-2.28
-2.74
-3.13
-3.39
-3.49
-3.49
-3.45
-3.43
-3.45
-3.55
-3.72
-3.98
-4.33
-4.77
-5.23
-5.66
-6.07
-6.48
-6.91
-7.38
-7.81
-8.06
-8.00
-7.54
-6.70
-5.63
-4.45
-3.27
-2.15
-1.06
0.02
1.03
1.91
2.51
2.78
2.79
2.65
2.50
2.48
2.57
2.68
2.71
2.59
2.31
2.01
1.79
1.69
1.71
1.78
1.80
1.75
1.71
1.72
1.87
2.13
2.39
2.54
2.41
2.00
1.34
0.54
-0.30
-1.13
-1.92
-2.62
-3.17
-3.49
-3.51
-3.24
-2.80
-2.38
-2.14
-2.14
-2.37
-2.72
-3.11
-3.52
-3.91
-4.30
-4.61
-4.77
-4.63
-4.16
-3.34
-2.32
-1.26
-0.32
0.42
0.97
1.35
1.66
1.93
2.19
2.44
2.68
2.94
3.23
3.55
3.87
4.16
4.36
4.47
4.50
4.47
4.44
4.38
4.32
4.23
4.12
3.99
3.86
3.74
3.59
3.41
3.14
2.79
2.33
1.79
1.18
0.57
0.04
-0.32
-0.45
-0.36
-0.15
0.03
0.02
-0.28
-0.84
-1.52
-2.14
-2.50
-2.54
-2.27
-1.79
-1.20
-0.57
0.10
0.79
1.49
2.12
2.63
2.98
3.22
3.43
3.73
4.17
4.70
5.21
5.55
5.60
5.32
4.75
4.03
3.32
2.81
2.58
2.66
2.95
3.29
3.54
3.64
3.59
3.49
3.42
3.37
3.33
3.18
2.86
2.39
1.86
1.37
1.02
0.76
0.49
0.11
-0.42
-0.98
-1.43
-1.61
-1.50
-1.23
-0.99
-0.94
-1.09
-1.29
-1.32
-1.07
-0.50
0.25
1.02
1.69
2.25
2.75
3.26
3.78
4.31
4.80
5.27
5.74
6.19
6.56
6.73
6.59
6.09
5.35
4.53
3.85
3.47
3.41
3.61
3.95
4.24
4.37
4.34
4.20
4.05
4.00
4.05
4.13
4.13
3.96
3.59
3.07
2.47
1.84
1.21
0.57
-0.09
-0.69
-1.16
-1.44
-1.52
-1.49
-1.48
-1.56
-1.76
-2.02
-2.22
-2.32
-2.29
-2.13
-1.86
-1.48
-0.95
-0.26
0.57
1.44
2.22
2.81
3.20
3.44
3.61
3.76
3.87
3.90
3.80
3.53
3.13
2.66
2.21
1.85
1.62
1.52
1.51
1.53
1.52
1.50
1.47
1.47
1.53
1.64
1.73
1.75
1.70
1.65
1.70
1.89
2.16
2.37
2.36
2.03
1.40
0.59
-0.25
-1.00
-1.61
-2.09
-2.46
-2.77
-2.99
-3.12
-3.14
-3.06
-2.90
-2.71
-2.51
-2.34
-2.22
-2.16
-2.15
-2.16
-2.18
-2.20
-2.22
-2.21
-2.09
-1.78
-1.21
-0.39
0.61
1.60
2.37
2.80
2.90
2.79
2.62
2.57
2.66
2.88
3.12
3.29
3.38
3.39
3.37
3.36
3.37
3.40
3.40
3.35
3.27
3.15
3.02
2.88
2.69
