1564676025.00
64.000000
-0.00
-0.00
-0.00
-0.00
-0.00
-0.00
-0.00
-0.00
-0.00
-0.00
0.00
0.01
0.01
-0.00
-0.03
-0.05
-0.05
0.00
0.13
0.36
0.66
1.01
1.37
1.72
2.06
2.40
2.79
3.24
3.80
4.42
5.06
5.68
6.23
6.73
7.24
7.83
8.55
9.52
10.65
11.82
12.93
13.92
14.83
15.82
17.12
18.86
21.28
24.17
27.28
30.30
33.07
35.66
38.39
41.70
45.92
51.44
57.92
64.84
71.62
77.89
83.74
89.65
96.36
104.42
114.39
125.79
137.83
149.62
160.57
170.70
180.67
191.85
202.98
216.39
232.69
252.01
273.12
293.06
307.46
311.69
302.43
278.87
243.46
200.09
153.11
105.71
59.34
14.18
-29.89
-72.56
-112.97
-149.67
-181.84
-209.06
-231.29
-248.35
-260.24
-266.65
-267.22
-261.99
-251.35
-236.53
-219.08
-200.60
-182.34
-164.95
-148.50
-132.69
-117.24
-102.00
-87.30
-73.26
-60.23
-48.51
-38.18
-29.08
-20.92
-13.41
-6.41
0.03
5.74
10.44
13.91
16.09
17.08
17.10
16.39
15.19
13.64
11.88
9.94
7.86
5.66
3.39
1.08
-1.25
-3.59
-5.89
-8.10
-10.21
-12.26
-14.32
-16.52
-19.04
-22.04
-25.58
-29.71
-34.36
-39.49
-45.03
-50.92
-57.13
-63.56
-70.14
-76.82
-83.67
-90.84
-98.67
-107.43
-117.25
-128.02
-139.47
-151.48
-164.45
-179.44
-197.63
-219.55
-244.17
-268.60
-288.98
-301.86
-305.54
-300.41
-288.31
-271.24
-250.50
-226.74
-200.77
-174.52
-151.03
-133.47
-123.46
-120.10
-120.40
-121.07
-120.59
-120.24
-123.49
-133.86
-152.94
-179.18
-208.68
-237.04
-261.04
-279.09
-290.27
-292.97
-284.12
-260.66
-221.93
-171.78
-118.69
-73.21
-43.78
-33.08
-36.99
-45.30
-47.21
-34.78
-5.07
40.21
96.62
159.32
224.35
288.73
349.63
403.67
447.33
477.83
494.02
496.81
488.84
473.58
454.13
432.53
409.44
384.65
357.77
328.87
298.70
268.62
240.13
214.31
191.52
171.32
152.91
135.47
118.57
102.22
86.79
72.74
60.40
49.82
40.78
32.98
26.16
20.14
14.78
9.98
5.61
1.60
-2.06
-5.16
-7.42
-8.53
-8.39
-7.31
-5.89
-4.83
-4.63
-5.32
-6.30
-6.66
-5.55
-2.63
1.66
6.19
9.73
11.47
11.40
10.67
10.57
12.00
15.02
18.50
20.61
19.66
14.53
4.64
-9.99
-29.09
-51.50
-74.59
-94.29
-106.08
-106.79
-95.84
-77.11
-56.73
-40.59
-32.10
-31.43
-36.22
-43.60
-51.33
-58.30
-64.02
-67.45
-66.73
-59.49
-44.16
-21.39
5.15
29.65
45.62
48.70
38.93
21.08
2.88
-8.28
-8.29
1.87
17.45
32.74
43.97
50.48
53.97
56.23
57.78
57.60
54.07
46.29
34.74
21.17
7.75
-3.86
-13.03
-20.20
-26.30
-32.06
-37.47
-41.77
-43.76
-42.39
-37.32
-29.13
-18.97
-8.54
0.77
8.25
13.87
18.05
21.26
23.83
25.76
26.84
26.86
25.87
24.16
22.22
20.45
19.03
17.91
16.83
15.47
13.63
11.36
8.83
6.28
3.80
1.33
-1.34
-4.31
-7.52
-10.61
-13.02
-14.22
-14.03
-12.77
-11.22
-10.37
-10.97
-13.38
-17.29
-21.89
-26.24
-29.60
-31.84
-33.31
-34.72
-36.61
-39.45
-43.45
-48.43
-53.71
-57.86
-58.87
-54.63
-44.10
-28.29
-11.03
2.38
7.53
3.19
-7.80
-19.85
-27.28
-26.86
-18.40
-4.32
12.26
28.98
44.34
57.06
65.43
67.74
62.06
50.52
37.52
27.83
24.51
27.81
35.63
44.99
53.46
59.71
63.69
65.70
66.10
65.28
63.78
62.14
60.76
59.64
58.08
55.39
50.85
44.17
35.70
26.50
17.27
8.74
1.17
-6.06
-13.41
-21.02
-28.44
-34.64
-38.38
-38.77
-35.62
-29.64
-22.93
-17.13
-13.03
-10.28
-7.68
-4.02
1.42
8.30
15.21
19.15
17.76
9.38
-6.91
-31.13
-61.95
-96.06
-128.23
-146.28
-144.61
-123.66
-89.76
-52.55
-21.12
-0.61
9.02
11.57
11.75
11.65
11.46
10.29
7.67
4.38
2.15
2.49
5.77
11.00
15.70
17.82
16.78
13.36
9.29
6.38
5.78
7.56
10.83
13.78
15.08
14.32
11.97
9.18
7.06
6.32
7.01
8.64
10.17
10.85
10.44
9.16
7.60
6.30
5.64
5.63
6.05
6.47
6.54
6.18
5.46
4.70
4.10
3.84
3.93
4.28
4.69
4.96
5.00
4.52
3.78
2.97
2.21
1.55
0.95
0.23
-0.77
-2.20
-4.08
-6.25
-8.47
-10.54
-12.34
-13.98
-15.82
-18.24
-21.54
-25.74
-30.47
-35.12
-39.19
-42.39
-44.99
-47.78
-51.70
-57.46
-65.06
-73.71
-82.07
-88.96
-93.76
-96.99
-100.27
-105.50
-113.93
-125.36
-137.79
-147.85
-152.30
-148.88
-137.30
-119.26
-97.45
-73.62
-47.84
-18.43
17.17
60.53
111.85
169.11
227.31
279.91
319.22
337.17
327.23
288.47
224.29
144.81
64.48
-2.80
-48.45
-72.16
-80.55
-82.96
-86.53
-93.68
-101.11
-102.73
-93.68
-72.79
-43.77
-13.55
10.98
25.44
29.67
26.86
22.77
22.19
26.81
34.65
42.04
46.24
46.99
46.33
46.98
50.27
54.84
57.64
56.10
49.22
38.64
27.68
19.73
16.60
17.95
21.56
24.49
24.52
21.02
15.09
8.80
4.17
2.28
2.97
5.04
6.88
7.29
5.87
3.13
0.06
-2.35
-3.59
-3.68
-3.11
-2.53
-2.41
-2.93
-3.90
-4.95
-5.76
-6.13
-6.10
-5.80
-5.45
-5.20
-5.11
-5.14
-5.22
-5.25
-5.21
-5.11
-4.96
-4.79
-4.62
-4.47
-4.33
-4.20
-4.07
-3.95
-3.83
-3.72
-3.60
-3.50
-3.39
-3.28
-3.17
-3.05
-2.93
-2.79
-2.65
-2.49
-2.33
-2.16
-1.99
-1.80
-1.61
-1.40
-1.20
-0.99
-0.81
-0.66
-0.55
-0.46
-0.39
-0.28
-0.14
0.04
0.24
0.45
0.65
0.82
0.99
1.20
1.48
1.85
2.33
2.87
3.44
4.02
4.58
5.18
5.87
6.73
7.79
9.03
10.36
11.66
12.80
13.77
14.64
15.57
16.81
18.42
20.38
22.49
24.45
26.05
27.18
28.05
28.97
30.37
32.35
34.78
37.17
38.86
39.16
37.65
34.30
29.34
23.12
15.70
6.89
-3.63
-16.13
-30.64
-46.90
-64.50
-82.83
-100.51
-116.34
-128.27
-133.98
-131.78
-121.51
-104.90
-84.92
-65.02
-46.50
-29.56
-13.29
3.31
20.47
37.57
53.58
68.02
81.08
93.60
105.72
116.80
124.66
126.94
122.04
109.82
91.87
70.72
49.16
29.36
12.81
0.00
-9.11
-15.01
-18.83
-22.18
-26.96
-34.33
-44.15
-54.58
-62.87
-66.45
-64.23
-57.62
-48.97
-41.30
-36.62
-35.40
-36.41
-37.98
-38.77
-38.31
-37.09
-35.79
-34.84
-34.14
-33.62
-33.78
-35.63
-40.12
-46.91
-53.75
-56.95
-53.24
-41.57
-24.10
-5.45
9.44
17.50
18.71
15.42
10.66
6.31
2.70
-0.90
-5.19
-10.09
-14.84
-18.63
-21.24
-23.10
-25.18
-28.38
-33.12
-39.09
-45.49
-51.46
-56.44
-60.23
-63.21
-65.95
-68.80
-71.57
-73.57
-73.71
-70.84
-64.13
-53.17
-38.00
-19.10
2.76
26.74
52.04
77.85
103.36
126.99
148.08
165.86
179.72
189.37
194.78
196.08
193.61
188.19
179.68
168.82
155.20
138.85
119.97
98.95
76.33
52.81
29.17
5.76
-16.08
-35.71
-52.67
-66.70
-77.80
-86.17
-92.15
-96.29
-99.02
-100.64
-101.68
-102.40
-103.00
-103.67
-104.54
-105.67
-107.11
-108.90
-110.89
-113.15
-115.52
-117.77
-119.69
-120.90
-120.96
-119.34
-115.47
-108.79
-98.95
-85.72
-68.85
-48.54
-25.33
-0.06
26.18
52.25
77.00
98.56
116.27
129.82
139.05
144.07
145.17
142.83
137.59
130.54
122.32
112.99
102.79
91.97
80.78
69.45
58.22
47.33
36.97
27.25
18.37
10.56
3.86
-1.64
-6.02
-9.36
-11.80
-13.46
-14.47
-14.88
-14.73
-14.07
-12.89
-11.33
-9.54
-7.63
-5.70
-3.83
-2.02
-0.14
1.95
4.59
7.87
11.90
16.77
22.50
28.98
35.96
43.11
49.87
55.82
60.16
62.12
61.11
56.75
48.94
37.92
24.16
7.11
-11.51
-30.18
-47.73
-63.35
-76.59
-87.33
-95.65
-101.82
-106.22
-109.06
-110.77
-111.78
-112.29
-112.34
-111.86
-110.64
-108.48
-105.16
-100.36
-94.15
-86.83
-78.53
-69.41
-59.81
-50.11
-40.76
-32.18
-24.68
-18.65
-14.44
-12.25
-12.03
-13.63
-16.80
-21.24
-26.67
-32.78
-39.38
-46.43
-53.90
-61.55
-69.20
-76.67
-83.87
-90.72
-97.24
-103.55
-109.89
-116.50
-123.19
-129.68
-135.57
-140.36
-143.48
-144.38
-142.54
-137.29
-130.53
-122.94
-114.76
-105.87
-95.96
-84.76
-72.27
-58.85
-45.19
-32.03
-19.51
-7.39
4.92
18.24
33.27
50.22
68.71
87.95
106.99
125.44
143.30
161.01
179.28
198.98
221.05
246.22
274.55
304.71
333.91
357.90
372.19
373.63
361.69
338.66
308.77
276.48
245.07
216.08
189.61
165.26
142.91
122.84
105.43
90.62
77.75
65.86
54.20
42.58
31.36
21.31
13.07
6.84
2.22
-1.55
-5.35
-9.72
-14.77
-20.08
-25.00
-28.95
-31.60
-33.03
-33.62
-33.81
-33.93
-34.09
-34.16
-33.90
-33.15
-31.90
-30.34
-28.78
-27.56
-26.91
-26.91
-27.51
-28.55
-29.84
-31.26
-32.69
-34.08
-35.40
-36.58
-37.55
-38.26
-38.68
-38.80
-38.64
-38.29
-37.79
-37.21
-36.60
-35.94
-35.22
-34.38
-33.34
-32.00
-30.25
-28.02
-25.28
-22.03
-18.36
-14.40
-10.32
-6.32
-2.60
0.65
3.29
5.24
6.48
7.03
6.99
6.48
5.65
4.65
3.62
2.67
1.89
1.32
0.98
0.86
0.95
1.19
1.53
1.88
2.18
2.35
2.35
2.14
1.72
1.09
0.31
-0.57
-1.52
-2.48
-3.42
-4.30
-5.11
-5.84
-6.49
-7.06
-7.53
-7.89
-8.10
-8.11
-7.89
-7.39
-6.60
-5.52
-4.18
-2.63
-0.94
0.79
2.49
4.06
5.43
6.53
7.32
7.80
7.94
7.78
7.33
6.63
5.68
4.54
3.23
1.80
0.32
-1.16
-2.56
-3.82
-4.92
-5.81
-6.48
-6.95
-7.24
-7.39
-7.45
-7.44
-7.36
-7.21
-6.97
-6.63
-6.19
-5.66
-5.04
-4.34
-3.55
-2.68
-1.76
-0.82
0.08
0.89
1.59
2.15
2.56
2.81
2.92
2.87
2.69
2.40
2.02
1.59
1.16
0.76
0.43
0.21
0.12
0.17
0.38
0.74
1.23
1.82
2.47
3.14
3.79
4.39
4.94
5.46
6.00
6.61
7.39
8.38
9.63
11.13
12.83
14.61
16.31
17.71
18.60
18.79
18.12
16.54
14.07
10.80
6.92
2.61
-1.88
-6.36
-10.66
-14.67
-18.31
-21.57
-24.44
-26.91
-28.96
-30.51
-31.46
-31.67
-31.01
-29.32
-26.53
-22.60
-17.60
-11.72
-5.26
1.36
7.64
13.09
17.29
19.96
20.99
20.44
18.48
15.34
11.29
6.57
1.49
-3.60
-8.26
-11.94
-14.12
-14.38
-12.55
-8.72
-3.20
3.55
11.16
19.44
28.43
38.28
48.95
60.13
71.07
80.79
88.28
92.94
94.84
94.75
93.79
92.91
92.40
91.66
89.38
84.09
74.87
61.96
46.75
31.31
17.55
6.42
-2.21
-9.52
-17.12
-26.30
-37.47
-49.81
-61.49
-69.95
-72.54
-67.00
-52.26
-29.24
-1.36
26.54
50.04
67.00
78.05
85.94
94.17
104.76
117.02
127.25
129.77
118.96
91.66
48.76
-4.45
-59.66
-109.04
-147.64
-174.17
-190.14
-197.86
-199.11
-194.99
-188.39
-180.63
-173.30
-167.45
-162.35
-155.19
-141.77
-118.64
-85.20
-44.34
-1.34
37.57
67.63
87.16
97.62
102.84
106.49
109.75
110.77
105.37
88.23
55.45
7.20
-51.71
-111.94
-158.92
-180.29
-169.28
-127.13
-63.66
5.40
63.04
93.59
91.72
61.42
13.50
-37.65
-78.21
-99.26
-98.67
-77.00
-41.13
0.06
38.92
71.15
95.85
113.47
123.10
121.59
104.95
69.64
15.94
-51.84
-126.99
-202.74
-274.29
-338.97
-396.43
-442.36
-468.84
-466.29
-428.73
-358.08
-265.38
-167.87
-83.14
-23.26
8.70
17.40
12.21
2.60
-4.84
-7.15
-3.95
5.05
20.01
41.24
68.48
100.43
134.42
167.31
196.53
221.07
241.72
260.19
277.82
294.79
309.69
319.84
322.10
313.71
293.31
262.21
226.14
192.01
167.11
156.66
161.31
176.52
194.03
204.07
200.23
181.15
150.08
112.82
74.69
38.77
6.07
-23.29
-48.77
-68.99
-82.64
-89.60
-91.13
-89.59
-87.73
-87.48
-89.49
-93.14
-96.93
-99.52
-100.49
-100.34
-100.34
-101.92
-106.01
-112.86
-121.96
-132.37
-143.26
-154.35
-165.87
-178.51
-193.01
-209.76
-228.64
-249.05
-269.83
-289.61
-306.97
-320.52
-329.07
-332.07
-328.81
-318.74
-301.55
-277.31
-246.53
-210.18
-169.63
-126.66
-83.27
-41.38
-2.79
31.23
60.14
84.17
104.18
121.27
136.36
149.79
161.37
170.45
176.44
179.29
179.71
179.11
179.00
180.41
183.37
187.04
190.02
191.15
190.18
187.94
186.02
186.28
190.18
198.41
210.84
226.20
242.08
254.91
260.46
255.09
237.07
207.64
171.00
133.14
99.61
73.74
55.60
42.64
31.33
19.05
5.30
-8.57
-20.52
-29.35
-35.54
-41.01
-47.80
-56.47
-65.47
-71.69
-72.27
-66.35
-56.04
-45.48
-38.88
-38.27
-42.43
-47.66
-49.90
-47.03
-40.00
-32.34
-28.03
-29.27
-35.27
-42.61
-47.28
-46.95
-42.08
-35.62
-31.03
-30.28
-32.65
-35.33
-35.09
-30.35
-22.09
-13.34
-7.55
-6.55
-9.64
-13.90
-15.82
-13.26
-6.60
1.41
7.26
8.48
5.00
-0.93
-6.15
-8.41
-7.62
-5.77
-5.59
-8.65
-14.36
-20.17
-23.03
-21.24
-15.33
-7.87
-1.89
0.80
0.51
-0.74
-0.60
2.04
6.29
9.83
10.36
7.16
1.57
-3.68
-6.17
-5.16
-2.03
0.48
0.04
-3.97
-10.10
-15.65
-18.24
-17.09
-13.33
-9.26
-7.08
-7.63
-10.11
-12.59
-13.17
-11.01
-6.80
-2.23
0.97
2.08
1.73
1.41
2.43
5.07
8.37
10.73
11.01
9.25
6.66
4.88
4.98
6.80
9.11
10.19
8.84
4.98
-0.31
-5.32
-8.53
-9.34
-8.35
-6.98
-6.67
-8.08
-10.72
-13.27
-14.38
-13.53
-11.37
-9.25
-8.33
-8.76
-9.41
-8.53
-4.82
1.61
9.13
15.20
17.65
15.66
10.12
3.20
-2.75
-6.23
-7.12
-6.43
-5.58
-5.44
-5.96
-6.22
-5.18
-2.39
1.64
5.61
8.16
8.68
7.68
6.48
6.43
8.06
10.63
12.58
12.43
9.71
5.36
1.26
-0.82
-0.20
2.28
4.76
5.44
3.62
0.04
-3.60
-5.71
-5.73
-4.41
-3.19
-3.24
-4.54
-5.80
-5.32
-2.09
3.33
9.01
12.52
12.38
8.98
4.36
1.08
0.64
2.65
5.00
5.22
2.00
-3.93
-10.16
-14.01
-14.21
-11.59
-8.52
-7.53
-9.67
-13.91
-17.74
-18.69
-15.80
-10.19
-4.39
-0.91
-0.86
-3.35
-6.06
-6.51
-3.48
2.35
8.81
13.41
14.64
12.82
9.88
8.21
9.34
12.99
17.14
19.24
17.70
12.87
7.07
3.25
3.23
6.60
10.97
13.34
11.96
7.43
2.18
-1.05
-1.11
0.81
1.89
-0.41
-6.61
-14.61
-20.93
-22.66
-19.21
-12.79
-7.13
-5.40
-8.35
-14.07
-18.90
-19.53
-14.87
-6.53
2.01
7.33
7.86
4.64
0.62
-1.08
1.00
5.71
9.92
10.31
5.24
-4.08
-14.14
-20.94
-22.11
-17.97
-11.28
-5.42
-2.42
-1.80
-1.10
2.38
9.55
18.75
26.39
29.03
25.62
18.01
10.07
5.36
4.88
6.50
6.38
1.38
-8.58
-20.00
-27.50
-26.65
-16.49
-0.25
16.18
27.35
30.91
28.34
23.69
20.64
20.24
20.38
17.33
8.56
-5.43
-20.80
-32.40
-36.40
-32.57
-24.30
-16.78
-14.20
-17.30
-23.18
-26.79
-23.94
-13.66
0.97
14.58
22.08
21.78
16.16
10.42
9.43
14.65
23.21
29.47
28.44
18.82
3.91
-10.09
-17.65
-16.95
-10.78
-4.92
-4.44
-10.60
-19.94
-26.34
-24.55
-13.47
3.08
18.34
26.44
25.76
19.54
13.81
13.40
18.88
26.14
28.92
22.82
8.21
-9.78
-24.07
-29.70
-26.55
-19.22
-14.03
-15.14
-21.91
-29.27
-30.85
-22.97
-7.24
10.14
21.42
21.58
11.12
-4.37
-17.27
-22.05
-18.13
-9.73
-3.03
-2.45
-7.80
-14.49
-16.45
-9.96
3.88
19.43
29.56
29.92
21.48
9.93
2.38
3.00
10.47
18.63
20.37
11.70
-5.40
-24.17
-36.56
-37.58
-27.97
-13.26
-0.74
4.82
3.49
-0.22
-0.56
5.90
17.99
30.64
38.00
36.95
29.04
19.64
14.62
16.50
22.93
28.00
25.77
14.04
-3.98
-21.44
-31.39
-30.67
-21.45
-9.93
-2.64
-2.89
-8.83
-14.88
-15.07
-6.66
7.98
22.64
30.32
27.19
14.34
-2.72
-17.30
-24.94
-25.56
-22.80
-21.49
-24.15
-29.50
-33.12
-30.12
-18.58
-0.92
16.97
28.81
31.43
26.45
19.09
15.06
16.86
22.20
25.45
21.13
7.79
-10.55
-26.14
-31.67
-24.40
-7.76
10.34
21.80
22.46
13.99
2.49
-5.21
-5.46
0.45
7.33
9.37
3.69
-8.09
-20.72
-28.45
-28.55
-22.65
-15.64
-12.60
-15.32
-21.27
-24.97
-21.55
-10.06
5.56
18.69
23.83
20.17
12.10
6.63
8.93
19.06
31.61
38.69
34.69
19.55
-1.01
-18.71
-27.23
-25.52
-17.84
-10.93
-9.80
-14.86
-22.03
-25.46
-21.12
-9.37
5.22
16.48
20.12
16.32
9.54
5.89
9.51
19.92
32.14
39.36
36.88
24.80
8.02
-6.37
-13.23
-11.95
-6.66
-3.44
-6.81
-16.88
-29.45
-38.24
-38.66
-30.36
-17.45
-6.13
-1.20
-3.07
-7.58
-8.51
-1.34
13.69
31.24
43.66
45.10
34.76
17.49
0.90
-8.77
-9.82
-5.38
-1.09
-1.25
-6.39
-13.36
-17.60
-16.38
-10.71
-4.85
-3.39
-8.48
-17.95
-26.31
-27.62
-18.93
-2.04
17.25
32.10
38.14
35.57
28.78
23.45
23.10
26.92
30.21
27.51
16.06
-1.96
-20.28
-31.69
-32.09
-22.87
-10.33
-2.19
-3.42
-13.44
-26.56
-35.46
-35.28
-26.50
-14.61
-6.66
-7.24
-15.53
-26.08
-31.84
-28.64
-17.63
-4.64
3.15
1.46
-8.62
-21.10
-28.61
-26.36
-14.86
0.54
12.87
17.52
14.85
9.63
8.01
13.47
24.79
36.71
43.26
41.30
32.56
22.59
17.37
19.89
28.30
37.10
40.50
35.70
24.62
12.52
5.08
5.00
10.57
16.72
17.94
11.39
-1.35
-15.34
-25.00
-27.51
-24.28
-19.95
-19.47
-24.67
-33.06
-39.11
-37.53
-26.54
-9.15
8.24
19.30
21.11
15.68
8.59
5.60
9.19
17.17
23.92
23.84
14.78
-0.57
-16.10
-25.57
-26.16
-19.73
-11.63
-7.24
-9.01
-15.02
-20.58
-20.98
-14.44
-2.99
8.84
16.61
18.66
16.83
15.25
17.74
25.21
35.05
42.25
42.52
34.86
22.42
10.86
5.22
6.96
13.01
17.39
14.58
2.67
-15.27
-32.92
-43.87
-45.12
-38.49
-29.59
-24.55
-26.64
-34.46
-42.83
-46.03
-41.05
-29.47
-16.39
-7.34
-4.92
-7.21
-9.30
-6.35
3.21
16.62
28.32
33.28
29.82
20.36
9.91
2.99
1.31
3.09
4.68
2.98
-2.34
-8.47
-11.23
-7.33
3.26
17.01
28.61
33.82
31.70
25.30
19.81
19.29
24.15
30.54
32.45
25.39
9.31
-10.75
-27.26
-34.31
-31.11
-22.16
-14.68
-14.15
-21.02
-30.61
-35.91
-31.96
-18.86
-1.77
12.11
17.43
13.71
5.22
-1.78
-2.52
3.83
13.87
22.28
25.02
21.28
13.87
7.18
4.37
5.36
7.03
5.23
-2.31
-14.23
-26.04
-32.38
-30.19
-20.71
-8.68
0.10
2.24
-1.17
-5.29
-4.44
4.54
19.96
36.10
46.12
45.45
34.40
17.83
2.45
-6.82
-9.26
-8.30
-9.28
-15.71
-27.27
-39.60
-46.97
-45.45
-35.34
-20.83
-7.76
-0.22
1.71
1.66
4.48
13.15
26.48
39.62
46.72
44.39
33.85
20.54
11.01
9.35
14.59
21.15
22.08
13.19
-4.22
-23.70
-37.23
-39.81
-32.31
-20.85
-13.35
-14.88
-24.90
-37.83
-46.41
-45.89
-36.60
-23.32
-12.28
-7.29
-7.58
-8.54
-4.95
5.67
21.16
35.85
43.94
43.08
35.73
27.83
25.25
30.14
39.62
47.45
47.43
37.29
19.69
1.18
-11.73
-15.82
-12.93
-8.54
-8.44
-15.29
-27.02
-38.16
-43.23
-39.99
-30.72
-20.67
-14.79
-14.69
-17.71
-18.73
-13.50
-1.30
14.34
27.61
33.41
30.63
22.41
14.60
12.32
16.96
25.41
31.63
30.21
19.48
2.54
-14.20
-24.60
-25.92
-20.09
-12.17
-7.28
-7.60
-11.27
-13.73
-10.76
-1.19
11.93
22.77
25.70
18.51
3.86
-12.14
-22.96
-25.21
-19.99
-12.07
-6.69
-6.21
-8.97
-10.36
-6.24
4.03
16.64
25.10
23.98
12.24
-5.80
-22.47
-30.74
-27.89
-16.68
-3.62
5.05
6.76
3.97
2.14
6.00
16.33
29.18
38.15
38.26
28.94
14.51
1.55
-4.90
-4.26
-0.38
0.95
-4.05
-14.78
-26.30
-32.13
-28.18
-15.25
1.03
13.18
15.77
8.22
-4.84
-16.21
-20.05
-14.90
-4.26
5.63
9.55
6.54
0.33
-3.09
0.62
11.24
23.72
30.89
27.91
14.97
-2.54
-17.17
-23.60
-21.45
-15.13
-10.96
-13.04
-20.80
-29.40
-32.48
-26.15
-11.34
6.49
20.33
25.37
21.51
13.25
6.82
6.41
11.67
17.84
18.92
11.18
-4.09
-21.09
-32.55
-33.76
-25.05
-11.40
0.32
5.44
3.69
-0.84
-2.65
1.77
11.70
22.87
29.87
29.60
23.01
14.33
8.29
6.96
8.50
8.37
2.53
-9.51
-23.60
-32.97
-31.89
-19.15
0.90
20.31
31.67
31.88
23.56
13.32
7.97
10.64
19.13
27.35
28.80
20.34
3.93
-14.40
-27.85
-32.52
-29.44
-23.62
-20.93
-24.58
-33.05
-40.95
-42.23
-33.83
-17.71
0.16
13.01
17.12
13.71
8.03
6.08
11.04
21.37
31.77
36.27
31.83
19.77
5.06
-6.80
-12.68
-13.28
-12.18
-13.17
-17.81
-24.24
-28.42
-26.55
-17.55
-3.92
9.24
17.20
17.90
13.08
7.15
4.55
7.01
12.50
16.47
14.51
5.52
-7.41
-18.39
-22.10
-16.74
-4.95
7.77
16.34
18.80
16.98
14.98
16.12
20.75
25.80
26.63
20.06
6.52
-9.73
-22.60
-27.48
-23.54
-14.27
-5.52
-2.01
-4.71
-10.20
-12.67
-7.61
5.34
21.76
34.59
37.90
30.03
14.51
-1.95
-13.13
-16.59
-14.57
-12.35
-14.75
-23.19
-34.58
-43.13
-43.47
-33.74
-16.79
1.11
13.44
16.77
12.36
5.17
0.75
2.05
7.62
12.52
11.46
2.17
-12.75
-26.84
-33.37
-29.08
-16.06
-0.61
10.51
13.83
10.90
6.96
7.37
14.16
24.84
34.01
36.80
31.94
22.78
15.05
13.33
17.88
24.11
25.38
16.87
-1.00
-22.46
-39.37
-45.88
-41.69
-32.09
-24.68
-24.59
-31.69
-40.66
-44.54
-39.06
-25.18
-8.55
4.02
8.37
5.51
0.70
0.31
7.86
21.93
36.68
45.39
44.19
34.41
22.01
14.02
14.70
23.11
33.73
39.86
37.40
27.32
14.85
6.42
5.72
11.86
19.88
23.83
20.52
11.16
0.78
-4.77
-2.47
5.96
14.91
17.89
11.15
-3.99
-21.85
-35.25
-39.47
-34.49
-25.14
-18.05
-17.90
-24.88
-34.38
-39.72
-36.06
-23.31
-6.39
7.44
12.60
8.46
-0.48
-7.33
-7.17
0.13
9.75
14.95
11.37
-0.34
-14.94
-25.68
-28.32
-23.63
-16.32
-12.15
-14.02
-20.22
-25.57
-24.70
-15.57
-0.62
14.33
23.63
25.20
21.52
18.33
20.91
30.80
44.44
54.90
55.65
44.33
24.36
3.36
-10.80
-14.22
-8.90
-1.47
0.76
-6.12
-20.32
-35.88
-46.08
-47.17
-40.40
-30.66
-23.34
-21.05
-22.34
-22.72
-17.89
-6.58
8.59
22.30
29.44
28.26
21.19
13.68
11.12
15.79
25.35
34.12
36.21
28.88
14.35
-1.16
-10.83
-10.86
-2.46
8.90
16.79
17.41
11.67
4.21
0.26
2.39
8.66
13.91
13.04
4.10
-10.38
-24.63
-32.94
-32.95
-26.89
-20.27
-18.70
-24.45
-35.16
-45.04
-48.13
-41.63
-27.71
-12.30
-1.77
0.59
-3.62
-8.86
-9.13
-1.52
11.93
25.43
32.97
31.86
24.30
16.02
12.82
17.22
27.01
36.63
40.67
36.97
27.86
18.77
14.80
17.74
25.01
31.45
32.54
27.21
18.53
11.89
11.55
17.92
26.96
32.29
28.84
15.89
-2.53
-19.66
-29.78
-31.14
-26.68
-21.94
-21.47
-26.37
-33.59
-38.13
-36.21
-27.76
-16.57
-8.27
-6.94
-12.75
-21.88
-28.70
-29.06
-22.62
-13.24
-6.61
-7.07
-14.96
-26.29
-34.87
-35.79
-28.28
-16.24
-6.05
-2.90
-7.72
-16.73
-23.65
-23.32
-14.46
-0.35
13.13
21.14
22.16
18.79
15.86
17.22
23.48
31.58
36.53
34.60
25.75
14.03
5.53
4.96
12.74
24.40
33.10
33.29
24.28
10.40
-1.63
-6.79
-4.80
-0.06
1.17
-5.12
-18.17
-32.67
-41.92
-41.64
-32.22
-18.44
-6.75
-1.66
-3.64
-9.02
-12.21
-9.11
0.59
13.21
22.98
25.46
20.22
11.23
4.63
5.18
13.29
24.70
32.90
33.03
24.92
13.27
4.90
4.72
12.78
24.38
32.61
32.48
23.66
10.55
-0.27
-3.93
0.14
8.08
13.97
13.51
6.46
-3.33
-10.38
-11.14
-6.44
-0.98
-0.63
-8.53
-22.82
-37.44
-45.64
-44.07
-34.72
-23.73
-17.83
-20.08
-28.30
-36.23
-37.36
-28.61
-12.32
5.22
17.02
19.33
13.31
4.28
-1.52
-0.63
5.68
12.41
13.81
6.93
-6.28
-20.12
-28.17
-26.94
-17.62
-5.26
4.32
8.05
6.98
5.51
8.18
16.56
27.94
36.57
36.98
27.24
10.44
-6.76
-17.48
-18.30
-11.01
-1.27
4.77
4.16
-1.20
-6.00
-4.96
3.65
16.68
27.75
31.01
24.26
10.36
-4.78
-15.44
-19.31
-18.09
-15.96
-16.51
-20.20
-24.16
-23.93
-16.45
-2.18
14.72
28.47
34.61
32.47
25.55
19.48
18.87
24.57
33.08
38.63
36.34
25.20
8.67
-7.01
-16.36
-17.63
-13.66
-10.08
-11.94
-20.51
-32.42
-41.50
-42.21
-32.94
-17.07
-1.20
8.38
8.94
2.54
-5.32
-9.30
-7.14
-1.06
3.80
2.38
-7.06
-21.90
-36.33
-44.56
-43.75
-35.35
-23.85
-14.17
-8.72
-6.49
-4.00
2.15
12.93
25.98
36.93
41.62
38.74
30.57
21.80
16.84
17.31
20.90
22.62
18.03
6.07
-9.58
-22.12
-25.43
-17.55
-2.23
12.93
20.39
16.86
4.69
-9.68
-19.74
-22.49
-19.66
-16.10
-16.19
-20.66
-26.13
-27.12
-19.72
-4.36
13.84
27.96
32.75
27.89
17.97
9.90
8.67
14.69
23.53
28.65
25.58
14.52
0.56
-9.39
-10.50
-2.98
8.21
16.32
16.90
10.52
2.33
-1.08
4.01
15.93
28.42
34.10
28.76
13.95
-3.59
-15.82
-17.60
-9.64
2.01
9.32
6.63
-6.21
-24.06
-39.23
-45.85
-42.60
-33.30
-24.20
-20.24
-22.18
-26.21
-26.76
-19.88
-6.08
9.95
21.65
24.62
18.92
8.95
0.74
-1.73
1.33
5.68
6.06
-0.47
-12.40
-24.31
-30.13
-26.54
-15.16
-1.58
7.55
8.71
3.28
-3.05
-3.83
4.21
19.05
34.19
42.48
40.14
29.28
16.58
9.21
10.47
17.67
24.00
22.49
10.70
-7.91
-25.67
-35.27
-33.80
-24.11
-12.81
-6.18
-6.49
-11.06
-14.08
-10.45
1.08
17.02
31.11
37.76
35.25
26.70
18.31
15.81
20.99
30.60
38.08
37.39
26.59
9.02
-8.49
-19.55
-21.69
-17.58
-13.19
-13.99
-21.55
-32.79
-41.68
-43.14
-36.16
-24.44
-14.27
-10.80
-14.89
-22.77
-28.08
-25.74
-14.88
0.40
13.38
18.30
13.77
3.67
-5.00
-5.91
2.97
18.29
32.89
39.89
36.10
23.82
9.33
-0.91
-3.75
-0.89
2.71
2.01
-4.71
-14.96
-23.67
-26.39
-22.15
-13.95
-7.06
-5.62
-10.44
-18.22
-23.69
-22.50
-13.85
-0.98
10.65
16.22
14.35
7.62
1.26
0.04
5.66
15.74
24.96
28.32
23.77
13.64
3.14
-2.64
-1.87
2.82
6.19
3.63
-5.60
-17.58
-25.80
-25.00
-14.46
1.36
15.19
21.12
17.77
9.04
1.33
-0.29
4.63
11.66
14.20
7.62
-7.68
-26.19
-40.07
-43.68
-36.52
-23.42
-11.58
-6.33
-8.28
-13.21
-14.96
-9.23
3.63
18.69
29.46
31.39
24.66
13.81
5.03
2.54
6.03
10.99
11.67
4.67
-8.68
-22.76
-30.95
-29.31
-18.79
-4.59
6.79
11.44
9.87
6.41
6.33
12.44
23.31
34.10
39.47
36.68
27.49
17.07
11.17
12.79
20.38
28.69
31.97
26.94
14.86
0.74
-9.62
-12.94
-10.01
-5.29
-3.98
-8.89
-18.89
-29.49
-35.50
-34.09
-26.46
-16.96
-10.52
-9.48
-12.11
-13.52
-8.87
3.45
20.15
34.33
39.30
32.17
15.71
-3.16
-17.03
-21.93
-18.98
-13.51
-11.34
-15.44
-24.34
-33.15
-36.63
-32.33
-21.61
-8.82
1.31
6.51
7.94
9.23
14.15
24.12
37.04
48.11
52.53
47.98
36.22
22.30
11.75
7.64
8.82
10.63
7.87
-1.98
-16.86
-31.04
-38.34
-35.89
-25.90
-14.85
-9.68
-13.85
-25.34
-37.79
-44.23
-41.07
-30.04
-17.00
-8.41
-7.34
-12.04
-17.25
-17.72
-11.51
-1.11
8.02
11.12
7.00
-1.18
-7.71
-7.83
-0.63
10.36
19.35
21.72
16.87
8.53
2.74
4.32
14.13
28.42
40.72
45.41
40.47
28.76
16.48
9.55
10.48
17.02
23.32
23.35
14.51
-0.70
-16.02
-25.05
-25.12
-18.71
-11.94
-10.58
-16.37
-25.90
-32.77
-31.56
-21.14
-5.38
9.16
17.01
16.95
12.32
8.89
11.24
20.19
32.10
41.09
42.42
35.15
22.83
11.63
6.71
9.22
15.61
19.42
15.34
2.36
-15.30
-30.44
-37.04
-33.70
-24.35
-15.88
-14.00
-19.91
-29.75
-37.18
-37.40
-30.26
-20.22
-13.53
-14.19
-21.15
-28.81
-30.37
-22.05
-5.57
12.65
25.03
27.35
21.09
12.50
8.94
14.37
27.02
40.35
46.58
41.45
26.29
7.66
-6.57
-11.63
-8.41
-2.78
-1.96
-10.00
-25.22
-41.05
-49.66
-46.47
-32.80
-14.85
-0.25
6.28
5.30
1.99
2.48
10.15
23.37
36.60
43.48
40.78
30.36
18.07
10.53
11.16
18.21
25.85
27.42
19.69
4.39
-12.31
-23.67
-25.97
-20.47
-12.37
-7.56
-8.81
-14.24
-18.53
-16.28
-5.61
10.31
24.77
31.12
26.43
12.98
-2.82
-14.13
-17.17
-13.08
-6.95
-4.71
-9.60
-20.37
-32.08
-39.23
-38.96
-32.62
-24.79
-20.40
-21.47
-26.02
-29.08
-25.86
-14.78
1.31
16.54
25.17
24.94
18.15
10.39
7.25
11.30
20.65
30.15
34.53
31.54
23.19
14.72
11.14
14.25
21.27
26.46
24.67
14.73
0.30
-12.11
-17.12
-13.86
-6.55
-2.12
-5.80
-17.87
-33.09
-43.80
-44.28
-34.17
-18.71
-5.69
-1.05
-5.66
-15.05
-22.26
-21.81
-12.66
1.47
14.43
21.12
20.19
14.34
8.46
6.50
9.39
14.76
18.43
17.20
10.84
2.26
-4.03
-4.50
1.45
11.15
20.12
24.60
23.44
18.83
14.75
14.60
19.08
25.68
29.92
28.19
20.18
9.50
1.86
1.86
10.15
22.54
32.26
33.45
24.65
9.57
-5.09
-13.58
-14.29
-10.33
-7.49
-10.16
-18.56
-28.47
-33.66
-29.78
-17.11
-0.76
12.04
15.80
9.75
-1.83
-12.01
-15.28
-10.78
-2.69
2.26
-1.08
-13.05
-28.73
-40.80
-43.76
-37.09
-25.57
-16.15
-13.90
-18.99
-26.69
-30.63
-27.03
-17.05
-6.09
-0.62
-3.85
-13.98
-25.10
-30.58
-26.75
-14.88
-0.25
10.97
15.09
12.97
9.02
8.61
14.78
26.32
38.44
45.44
44.02
35.20
24.01
16.57
16.63
23.37
31.81
35.77
31.59
20.28
7.09
-1.70
-2.67
2.85
9.60
11.61
6.18
-4.60
-14.99
-19.29
-15.41
-6.50
1.01
1.14
-7.80
-22.08
-34.62
-39.03
-33.27
-20.87
-8.80
-3.64
-7.90
-18.84
-30.14
-35.43
-32.00
-21.92
-10.67
-3.73
-3.20
-6.77
-9.17
-5.55
5.31
19.96
32.23
36.60
31.52
20.42
9.91
6.03
11.12
22.36
33.58
38.56
34.64
24.05
12.78
6.98
9.45
18.02
26.88
30.19
25.74
16.56
8.85
8.20
15.65
26.65
33.56
30.11
15.39
-5.30
-23.34
-31.69
-28.62
-18.50
-9.07
-6.69
-12.84
-23.64
-32.51
-34.39
-28.73
-19.75
-13.58
-14.58
-22.63
-33.27
-40.20
-39.03
-29.77
-16.89
-6.75
-4.00
-9.10
-18.03
-24.67
-24.19
-15.65
-2.33
10.39
18.13
19.87
18.56
18.93
24.27
34.17
44.54
49.78
46.29
34.88
20.59
9.93
7.18
11.85
18.80
21.25
14.69
-0.43
-18.74
-32.98
-37.81
-32.72
-22.20
-13.20
-11.07
-16.90
-26.82
-34.50
-34.74
-26.45
-13.10
-0.55
6.57
7.47
5.74
6.79
14.17
27.06
40.45
47.89
45.19
33.10
17.01
3.97
-1.19
1.50
7.41
10.01
4.81
-7.99
-23.60
-35.34
-38.46
-32.76
-22.76
-14.89
-13.79
-19.56
-27.57
-31.28
-25.99
-11.67
6.87
22.53
29.90
28.02
20.96
15.06
15.22
21.84
30.70
35.68
32.51
21.72
8.43
-0.74
-1.78
4.03
10.88
11.75
3.03
-13.18
-29.82
-39.11
-36.85
-24.97
-10.45
-1.42
-2.66
-13.12
-26.84
-36.52
-37.68
-30.80
-20.53
-12.55
-10.02
-12.09
-14.40
-12.20
-3.19
10.88
25.25
34.72
36.72
32.66
26.98
24.54
27.36
33.21
36.80
32.76
19.18
-0.87
-20.36
-32.10
-32.49
-23.72
-12.37
-5.83
-7.99
-17.41
-28.26
-33.87
-30.61
-19.64
-6.02
4.22
7.55
4.60
-0.66
-3.50
-1.43
4.35
9.79
10.76
6.15
-1.20
-5.76
-2.51
9.66
26.88
41.95
48.18
43.00
29.50
14.76
5.97
6.61
14.60
23.67
26.84
20.44
5.68
-11.92
-25.75
-31.61
-29.84
-24.42
-20.39
-20.60
-23.90
-26.22
-23.24
-13.42
0.85
14.38
22.27
22.66
17.80
12.60
11.56
16.02
23.12
27.36
23.78
11.16
-7.04
-24.20
-33.88
-33.44
-25.45
-16.19
-11.93
-15.13
-23.11
-29.49
-28.34
-17.57
-0.49
16.22
26.35
27.64
22.81
17.53
16.74
21.37
27.90
30.47
24.63
10.14
-8.51
-24.42
-31.93
-29.53
-20.49
-10.67
-5.20
-5.46
-8.59
-9.52
-4.38
6.83
19.69
27.83
26.46
15.20
-1.42
-16.20
-23.13
-20.44
-11.30
-1.75
2.98
1.53
-3.02
-5.35
-1.38
8.67
20.08
26.26
22.58
9.35
-7.98
-21.73
-26.08
-20.06
-7.82
3.90
9.68
8.20
2.48
-2.57
-3.50
-0.61
2.25
0.33
-8.66
-22.72
-36.08
-42.27
-37.51
-22.85
-3.63
13.27
23.07
25.22
23.41
22.71
26.44
33.82
40.54
41.07
32.33
15.68
-3.44
-18.16
-23.86
-20.61
-12.57
-5.58
-3.31
-5.45
-8.02
-6.35
1.81
14.72
27.33
33.99
31.72
21.55
8.21
-2.68
-7.52
-6.68
-3.85
-4.05
-10.19
-21.44
-33.39
-40.68
-40.05
-32.63
-23.14
-17.31
-17.98
-23.30
-27.56
-24.83
-12.92
4.70
20.46
26.76
20.47
4.79
-12.24
-21.96
-19.73
-6.98
9.83
22.95
27.52
23.51
15.18
8.00
5.30
6.53
8.14
6.06
-1.26
-11.51
-19.54
-20.29
-11.70
3.70
19.85
30.29
31.64
25.07
15.53
8.58
7.11
9.87
12.39
9.96
0.84
-12.30
-23.82
-28.19
-23.39
-12.06
-0.20
6.67
6.52
2.13
-0.72
2.85
13.54
27.10
36.33
35.34
22.99
3.88
-14.17
-24.37
-24.54
-17.85
-10.49
-7.84
-11.01
-16.53
-18.56
-12.71
1.00
17.78
30.58
33.88
26.66
13.14
0.15
-6.43
-4.95
1.40
6.34
4.54
-5.49
-20.37
-33.54
-39.05
-34.72
-23.08
-10.00
-1.07
1.26
-1.04
-3.19
-0.54
8.22
20.20
29.63
31.05
22.46
6.49
-10.77
-23.03
-26.75
-22.74
-15.07
-8.38
-5.22
-4.63
-3.41
1.55
10.60
20.91
27.59
26.91
18.52
6.01
-4.87
-9.53
-7.14
-1.06
3.01
0.72
-8.37
-20.16
-28.38
-28.07
-18.71
-4.29
8.59
14.85
13.38
7.44
2.30
1.73
5.80
10.79
11.84
6.01
-5.50
-17.66
-24.12
-20.90
-8.59
8.01
21.90
28.10
25.61
17.99
10.82
8.33
10.68
14.19
13.49
5.22
-9.37
-24.69
-33.55
-31.14
-17.80
0.88
16.95
24.38
21.87
13.27
4.81
1.33
3.36
7.28
7.83
1.88
-9.24
-20.49
-25.79
-22.04
-11.05
1.53
9.43
9.82
4.85
0.37
2.19
12.30
27.07
39.05
41.01
30.05
9.62
-12.35
-27.37
-31.16
-25.35
-16.40
-11.54
-14.56
-24.13
-34.58
-39.38
-34.73
-21.72
-5.35
8.00
14.27
13.75
10.60
10.13
15.36
25.07
34.23
37.04
30.69
17.18
2.55
-6.63
-7.20
-1.36
4.68
4.48
-4.61
-19.64
-33.76
-39.86
-34.74
-20.56
-3.58
9.44
14.96
14.10
11.70
12.74
19.13
28.17
34.06
31.33
18.53
-0.63
-18.70
-28.49
-26.99
-16.82
-4.76
2.18
0.96
-6.19
-13.00
-13.32
-4.90
9.01
21.44
25.76
19.51
5.82
-8.44
-16.72
-16.61
-11.02
-5.98
-6.67
-13.83
-23.29
-28.20
-23.53
-9.03
10.25
26.44
33.12
28.69
16.89
4.60
-2.31
-2.30
1.24
2.32
-3.80
-17.20
-33.16
-44.35
-45.03
-34.31
-16.92
-0.41
8.71
8.56
2.63
-2.55
-1.33
7.76
21.12
32.27
35.31
28.30
14.13
-1.08
-11.41
-14.37
-11.88
-8.72
-9.10
-13.76
-19.33
-20.34
-12.87
2.69
21.43
36.24
41.83
37.58
27.40
17.31
11.65
10.86
11.43
8.81
0.43
-12.27
-24.29
-29.77
-25.14
-11.27
6.86
22.64
31.01
31.07
26.18
21.68
21.36
24.91
28.08
25.17
12.98
-6.72
-27.50
-41.65
-44.44
-36.98
-25.44
-17.64
-18.45
-26.98
-37.16
-41.36
-34.81
-18.27
2.16
18.66
25.78
23.34
16.28
11.49
13.59
22.10
31.87
36.25
31.56
19.32
5.72
-2.12
-0.53
8.46
18.29
21.81
15.43
1.30
-14.04
-23.63
-24.12
-17.76
-10.88
-10.04
-18.13
-32.57
-46.41
-52.31
-46.59
-31.23
-12.87
0.96
5.95
3.10
-2.09
-3.17
3.38
15.98
29.05
36.27
34.45
25.23
14.29
7.88
9.27
16.85
25.10
27.91
22.03
9.10
-5.39
-15.36
-17.71
-14.28
-10.54
-12.08
-20.85
-33.71
-43.99
-45.29
-35.30
-17.34
1.54
14.18
17.39
13.20
7.49
6.34
12.61
24.56
37.09
44.78
44.96
39.03
31.34
26.22
25.13
25.59
22.82
13.09
-3.37
-21.76
-35.29
-39.00
-32.76
-21.46
-12.20
-10.23
-16.18
-25.94
-33.31
-33.60
-26.07
-14.05
-2.82
3.33
3.34
-0.56
-4.16
-4.12
0.01
5.37
7.52
3.01
-8.26
-22.65
-34.58
-39.64
-37.05
-30.02
-23.53
-21.42
-23.89
-27.59
-28.04
-22.67
-12.88
-3.72
-1.30
-9.37
-27.09
-49.35
-69.11
-80.94
-83.36
-79.00
-72.90
-69.59
-71.12
-76.78
-84.03
-90.24
-93.82
-94.32
-91.64
-85.21
-73.60
-55.11
-28.63
5.56
45.48
87.87
129.10
165.95
196.27
219.08
234.42
242.86
245.10
241.72
233.11
219.78
202.44
182.16
160.26
138.08
116.70
96.86
78.85
62.64
48.15
35.29
24.05
14.51
6.71
0.59
-3.93
-7.04
-8.88
-9.55
-9.09
-7.67
-5.49
-2.89
-0.13
2.66
5.66
9.22
13.80
19.71
26.66
33.92
40.32
44.63
46.11
44.85
41.21
35.75
28.58
18.91
5.17
-14.20
-39.64
-69.24
-99.45
-126.57
-147.94
-163.08
-173.77
-183.03
-193.83
-208.13
-226.60
-248.42
-271.36
-291.25
-302.09
-297.33
-272.09
-225.82
-164.10
-98.58
-41.75
-4.01
10.18
3.86
-13.75
-31.02
-38.00
-30.04
-8.17
22.83
56.98
89.65
118.31
141.95
160.06
172.04
177.23
175.93
169.92
161.81
154.21
148.98
146.47
145.82
145.67
144.75
142.64
139.75
136.68
133.79
130.96
127.61
122.94
116.45
107.43
95.57
80.71
62.66
41.34
16.66
-11.52
-43.44
-78.40
-114.67
-148.43
-173.80
-184.58
-176.74
-150.84
-112.49
-70.54
-34.07
-8.33
5.96
11.67
12.85
12.51
11.70
10.10
7.43
4.28
1.97
1.63
3.41
6.27
8.52
8.48
5.49
0.04
-6.53
-12.74
-17.68
-21.36
-24.62
-28.73
-34.79
-43.24
-53.76
-65.53
-77.63
-89.58
-101.42
-113.67
-127.12
-142.43
-159.89
-179.28
-200.07
-221.55
-242.88
-263.24
-281.64
-296.86
-307.32
-311.51
-307.55
-293.85
-269.46
-234.55
-190.47
-139.57
-84.82
-29.40
23.80
72.52
115.25
151.22
180.31
202.87
219.43
230.53
236.56
237.80
234.50
226.93
215.41
200.36
182.24
161.55
138.87
114.86
90.51
67.19
46.53
30.21
19.60
15.44
17.54
24.91
36.10
49.71
64.81
81.15
98.95
118.37
138.96
159.16
176.63
188.65
193.11
189.24
178.01
161.98
144.77
130.27
121.63
120.13
124.48
130.80
133.80
128.66
112.94
87.62
56.49
24.51
-4.30
-28.06
-47.02
-62.49
-75.59
-86.57
-94.82
-99.27
-98.81
-92.74
-81.07
-65.33
-49.04
-37.56
-36.47
-49.16
-74.47
-106.17
-134.99
-152.23
-153.56
-140.50
-118.99
-95.95
-76.02
-60.49
-48.41
-39.04
-33.31
-33.35
-40.48
-53.36
-67.84
-78.82
-83.00
-80.48
-74.47
-69.17
-67.40
-69.15
-71.94
-72.65
-69.32
-62.36
-54.43
-49.48
-51.28
-61.98
-81.16
-105.65
-130.32
-149.64
-159.47
-158.36
-147.91
-131.83
-114.26
-98.20
-84.68
-72.96
-61.61
-49.60
-36.81
-23.83
-11.12
1.85
16.89
36.55
62.84
95.96
133.47
170.63
201.66
221.36
226.53
216.64
193.94
162.97
129.59
99.87
78.77
69.11
70.98
81.89
97.55
112.94
123.56
126.34
120.35
106.92
89.30
71.70
57.60
48.07
41.13
32.74
19.23
-0.15
-22.38
-42.03
-54.32
-57.98
-56.02
-53.84
-55.80
-62.40
-70.07
-73.63
-69.94
-60.26
-49.55
-43.24
-43.48
-47.50
-49.30
-43.40
-28.34
-7.75
11.81
24.57
28.59
26.38
22.73
21.61
24.05
28.09
30.75
30.19
26.96
23.44
22.05
23.55
26.42
27.70
24.83
17.29
7.08
-2.06
-6.50
-4.35
3.86
15.71
28.39
39.92
49.72
58.06
65.08
70.10
71.82
69.31
62.95
54.68
47.04
41.74
38.56
35.40
29.57
19.41
5.57
-9.10
-20.65
-25.69
-22.74
-12.52
2.49
19.30
35.53
50.09
63.11
75.29
87.01
97.79
106.35
111.35
112.36
110.31
106.95
103.86
101.35
98.26
92.73
83.57
71.28
58.11
47.12
40.79
40.12
44.56
52.69
63.17
75.23
88.76
103.78
119.99
136.54
152.11
165.26
174.68
179.41
178.87
172.63
160.36
141.64
115.93
82.70
41.76
-6.17
-59.12
-113.75
-165.54
-209.40
-240.55
-255.63
-253.80
-237.15
-210.55
-180.71
-154.74
-138.59
-135.90
-147.60
-171.89
-204.82
-240.69
-272.79
-294.56
-301.14
-290.99
-266.78
-234.91
-203.14
-178.69
-166.02
-166.12
-177.01
-195.34
-217.71
-241.37
-264.52
-285.25
-301.46
-311.17
-313.23
-307.67
-295.77
-279.61
-261.06
-241.27
-220.32
-197.44
-171.63
-142.28
-109.71
-75.10
-40.15
-6.34
25.57
55.82
85.46
116.03
149.22
186.57
228.89
275.48
323.62
368.39
403.75
424.15
426.38
410.70
380.67
341.79
299.66
258.64
221.46
189.59
164.13
146.22
136.73
135.70
141.93
153.04
166.04
178.08
187.06
191.96
192.62
189.34
182.44
171.93
157.48
138.59
115.03
87.20
56.43
24.73
-5.53
-32.38
-54.72
-72.72
-87.56
-100.94
-114.26
-127.97
-141.41
-153.04
-161.35
-165.46
-165.65
-163.14
-159.58
-156.44
-154.91
-155.98
-160.18
-166.82
-172.99
-173.41
-161.70
-133.16
-87.58
-30.40
28.70
79.47
114.93
133.51
138.50
135.50
129.44
122.98
116.71
110.34
104.00
98.54
94.94
93.44
93.31
93.09
91.20
87.63
83.34
80.64
81.75
86.83
92.67
93.16
81.64
54.29
12.71
-36.03
-81.83
-115.58
-132.70
-134.40
-126.04
-114.03
-103.23
-95.48
-90.43
-87.16
-85.40
-85.16
-85.27
-82.52
-72.64
-52.85
-24.58
5.74
29.01
37.75
29.96
10.19
-12.88
-30.90
-39.64
-39.95
-35.91
-31.55
-28.58
-26.36
-23.32
-18.81
-13.69
-9.65
-7.89
-8.63
-10.80
-12.59
-12.57
-10.27
-6.33
-2.12
0.89
1.89
0.95
-0.96
-2.52
-2.72
-1.23
1.50
4.51
6.82
7.90
7.79
7.09
6.60
6.92
8.19
10.17
12.35
14.26
15.71
16.78
17.88
19.53
22.17
25.96
30.84
36.59
42.74
48.88
54.30
58.38
60.45
59.94
56.41
49.76
40.15
28.01
14.38
0.04
-14.16
-27.47
-39.22
-49.02
-56.70
-62.27
-66.40
-69.10
-70.96
-72.64
-74.78
-77.77
-81.83
-86.81
-92.26
-98.00
-102.68
-105.49
-105.80
-103.20
-97.49
-88.67
-76.82
-61.50
-44.00
-25.31
-6.82
9.97
23.68
33.43
39.06
41.17
41.04
39.86
38.80
38.14
37.42
35.79
32.56
27.63
21.70
16.08
11.77
9.65
9.68
11.10
12.79
13.84
13.36
10.60
5.17
-2.47
-10.29
-15.14
-13.89
-5.08
9.78
26.08
37.87
40.56
33.00
17.93
0.58
-13.97
-22.45
-24.07
-19.83
-11.26
0.41
14.30
29.12
42.94
52.93
56.61
52.47
40.72
23.23
3.12
-16.16
-31.81
-41.83
-45.96
-44.54
-38.26
-27.80
-13.70
2.82
21.09
39.94
59.39
77.10
91.25
100.59
104.60
103.37
97.51
88.13
73.85
57.00
38.58
19.42
0.13
-18.59
-36.19
-52.10
-65.46
-75.90
-82.66
-85.92
-85.41
-80.84
-71.94
-58.74
-41.63
-21.07
1.47
24.48
45.89
63.91
77.15
84.75
86.45
80.27
68.47
53.15
36.44
19.82
4.51
-8.69
-19.35
-27.38
-32.99
-36.15
-37.64
-38.04
-37.99
-37.96
-38.32
-39.32
-41.14
-43.89
-47.26
-51.36
-56.04
-60.98
-65.44
-68.80
-70.30
-69.23
-65.12
-57.72
-47.52
-35.23
-21.84
-8.39
4.16
15.12
24.03
30.59
34.76
36.29
35.24
31.73
26.17
19.22
11.61
4.06
-2.97
-9.30
-15.36
-21.40
-27.55
-33.24
-37.29
-38.19
-34.74
-26.47
-13.76
1.51
17.26
31.48
43.29
53.04
61.93
71.56
83.55
100.27
119.67
141.24
164.74
189.72
215.05
238.66
258.34
272.74
282.17
286.21
283.20
269.41
240.61
194.01
130.15
53.56
-31.65
-113.73
-179.80
-221.92
-240.62
-241.95
-232.54
-216.91
-197.48
-175.83
-153.10
-131.70
-114.12
-101.94
-94.84
-90.81
-87.39
-82.65
-75.81
-66.86
-57.27
-48.98
-43.41
-40.58
-39.35
-38.17
-35.88
-32.13
-27.08
-21.84
-17.74
-15.64
-15.38
-15.99
-16.33
-15.64
-13.86
-11.46
-9.40
-8.65
-9.58
-11.73
-14.05
-15.51
-15.55
-14.44
-13.08
-12.65
-14.06
-17.38
-21.77
-25.85
-28.45
-29.07
-28.04
-26.33
-24.83
-24.13
-24.33
-25.50
-27.52
-29.80
-30.83
-27.98
-18.66
-1.66
21.43
46.42
67.61
80.28
82.39
75.12
61.87
46.41
31.77
19.20
9.22
2.21
-1.27
-0.51
4.95
14.72
26.65
37.81
44.12
42.60
33.01
18.78
5.97
0.83
6.67
22.13
41.66
58.44
67.79
69.34
66.58
64.51
67.01
74.45
83.76
91.27
93.80
91.36
86.41
81.26
76.04
68.33
55.17
36.01
14.11
-4.92
-16.66
-21.19
-23.54
-30.85
-47.45
-72.25
-99.13
-120.43
-131.40
-131.96
-125.70
-115.60
-104.99
-93.65
-80.34
-64.60
-47.79
-32.64
-21.66
-16.05
-15.18
-16.85
-17.82
-15.68
-9.57
-0.49
9.41
17.85
23.41
26.17
27.21
28.52
31.45
36.05
40.99
44.07
43.03
36.17
23.15
5.00
-15.00
-31.90
-40.15
-35.42
-16.32
14.59
51.15
85.19
108.81
116.69
107.38
83.50
50.83
16.10
-14.51
-37.01
-50.25
-55.50
-55.45
-52.96
-50.15
-48.15
-47.62
-49.30
-53.70
-61.14
-70.26
-78.97
-84.91
-86.45
-82.96
-75.27
-64.96
-53.05
-41.40
-30.42
-19.97
-9.66
0.64
10.59
19.39
26.06
30.07
31.23
30.19
27.93
25.51
23.70
22.81
22.66
22.75
22.61
21.77
20.25
18.31
16.39
14.88
14.02
13.82
13.97
14.09
13.72
12.72
11.18
9.46
8.00
7.20
7.19
7.73
8.28
8.28
7.47
6.08
4.84
4.73
6.48
10.38
15.88
21.74
26.49
28.87
28.39
25.29
20.36
14.26
7.38
-0.52
-9.93
-21.03
-33.88
-48.17
-63.47
-79.02
-93.23
-103.21
-105.37
-96.87
-76.86
-48.20
-16.67
11.07
30.13
39.16
40.30
37.36
33.70
30.87
28.52
25.75
22.27
18.82
16.62
16.42
17.89
19.85
20.97
20.19
17.56
13.98
10.71
8.80
8.58
9.65
11.05
11.81
11.31
9.57
7.21
5.02
3.66
3.35
3.86
4.62
5.08
4.87
4.02
2.83
1.71
0.99
0.77
0.94
1.26
1.45
1.38
1.02
0.53
0.03
-0.34
-0.53
-0.57
-0.55
-0.51
-0.52
-0.56
-0.62
-0.68
-0.74
-0.78
-0.81
-0.84
-0.86
-0.86
-0.85
-0.82
-0.77
-0.71
-0.64
-0.58
-0.52
-0.47
-0.44
-0.44
-0.47
-0.53
-0.60
-0.71
-0.83
-0.96
-1.11
-1.27
-1.44
-1.65
-1.88
-2.15
-2.49
-2.86
-3.27
-3.69
-4.09
-4.43
-4.71
-4.94
-5.19
-5.60
-6.21
-7.19
-8.71
-11.01
-14.20
-18.43
-23.75
-30.01
-36.94
-43.83
-49.89
-54.27
-56.16
-54.96
-50.41
-42.62
-32.09
-19.84
-6.66
6.71
19.75
32.10
43.52
53.82
62.68
70.33
75.78
78.54
78.42
75.46
69.96
62.30
52.86
41.95
30.03
17.48
5.33
-4.91
-11.57
-13.25
-9.28
-0.07
12.81
27.15
40.62
51.55
59.26
64.05
66.79
68.48
69.92
71.52
73.35
74.94
75.25
72.69
65.56
53.00
35.56
15.30
-5.08
-23.30
-38.69
-52.14
-65.23
-78.93
-92.51
-103.57
-109.29
-107.91
-99.68
-87.06
-73.63
-62.59
-55.65
-52.42
-50.80
-47.62
-41.21
-31.46
-20.15
-10.29
-5.00
-6.17
-13.64
-24.98
-36.36
-43.90
-44.94
-39.18
-28.55
-16.17
-4.97
3.42
8.80
11.76
12.75
11.97
9.18
4.54
-1.06
-6.15
-9.23
-9.24
-6.00
-0.01
7.87
16.25
23.95
29.97
33.53
34.20
32.28
28.97
26.60
28.72
37.70
54.46
77.16
100.97
119.63
127.71
122.68
104.75
79.13
51.25
25.18
2.66
-16.71
-34.30
-51.55
-69.25
-87.50
-105.33
-120.98
-131.79
-134.15
-126.90
-110.92
-89.31
-66.26
-45.60
-29.19
-17.12
-8.27
-1.59
3.34
6.45
7.86
8.68
11.11
17.54
28.98
43.90
59.14
71.35
78.99
82.84
84.77
85.86
84.79
79.59
68.27
51.18
31.52
14.02
2.65
-1.51
-0.46
2.22
3.33
0.91
-5.42
-15.21
-27.86
-42.51
-57.77
-72.12
-83.70
-90.69
-91.79
-86.39
-74.34
-57.58
-38.78
-21.21
-7.70
0.30
3.37
3.73
4.12
6.49
11.12
16.85
21.72
24.07
23.45
20.72
17.28
14.15
11.38
8.30
4.41
-0.04
-3.82
-5.18
-2.92
2.77
10.50
18.51
25.66
32.06
38.53
45.51
52.11
56.67
57.06
52.22
42.90
31.26
19.82
10.40
3.64
-0.94
-4.17
-6.89
-9.66
-13.14
-18.30
-25.99
-36.51
-48.89
-61.00
-70.22
-74.52
-73.08
-66.39
-55.73
-42.41
-27.26
-11.60
3.18
15.27
22.46
23.13
17.14
6.36
-5.72
-15.35
-19.82
-18.39
-12.01
-3.03
6.20
14.24
20.84
26.70
32.62
39.02
45.72
51.98
56.77
59.18
58.64
55.15
49.24
41.68
33.50
25.19
17.18
9.46
2.07
-4.93
-11.84
-19.22
-28.24
-39.47
-52.23
-63.79
-70.23
-68.42
-58.25
-44.03
-32.47
-30.55
-40.09
-56.36
-69.94
-71.65
-57.36
-30.38
0.47
25.71
39.76
43.39
41.60
39.45
38.75
37.44
32.78
24.12
14.70
9.55
12.02
20.91
31.17
37.42
37.21
32.96
29.32
29.55
33.00
36.17
35.46
30.29
23.52
19.05
18.35
19.14
16.67
6.76
-11.11
-33.67
-55.28
-71.05
-78.87
-79.47
-74.74
-65.93
-54.34
-40.49
-25.68
-12.15
-2.64
0.86
-2.38
-11.35
-23.61
-35.64
-43.21
-42.35
-30.49
-7.81
22.25
53.31
78.97
94.91
100.16
96.75
87.69
75.31
60.78
44.70
28.26
13.47
2.45
-3.61
-4.80
-2.41
2.01
7.35
12.76
17.70
21.29
22.41
20.18
14.74
7.32
-0.02
-5.60
-9.24
-12.46
-18.12
-29.02
-46.20
-68.08
-91.03
-110.80
-122.70
-124.52
-114.76
-92.65
-58.65
-15.29
31.76
74.45
104.77
117.48
111.72
91.64
64.00
35.68
11.55
-6.28
-18.08
-25.21
-28.85
-29.64
-27.38
-22.16
-15.12
-8.81
-6.47
-10.32
-20.26
-33.33
-44.99
-51.14
-50.25
-44.49
-38.15
-35.63
-39.01
-47.17
-56.43
-62.01
-59.93
-48.33
-27.69
-0.74
28.28
54.82
74.71
85.21
85.75
78.13
65.90
53.25
43.24
36.75
32.77
29.18
24.90
20.55
18.10
19.61
25.55
34.35
42.87
47.37
45.07
35.17
19.03
-0.25
-18.43
-31.52
-37.04
-34.76
-26.94
-17.47
-10.30
-8.17
-11.46
-17.69
-22.71
-22.33
-14.66
-1.35
12.70
21.61
21.33
11.82
-2.87
-16.94
-25.54
-27.30
-24.16
-19.52
-15.75
-12.98
-9.13
-1.45
11.63
29.45
48.84
64.96
72.22
67.92
52.76
30.96
8.33
-10.15
-22.19
-28.84
-33.20
-37.96
-43.75
-49.19
-51.17
-47.75
-39.39
-28.78
-19.53
-14.59
-14.29
-16.16
-16.09
-10.65
0.81
15.51
28.33
34.24
30.51
18.44
2.79
-10.51
-17.12
-15.99
-9.14
-0.29
7.00
10.58
10.56
8.61
6.72
5.86
5.57
4.71
1.98
-2.70
-8.58
-14.08
-17.94
-19.60
-19.11
-16.42
-10.07
2.47
23.14
49.31
73.09
85.16
80.76
62.20
36.73
12.90
-3.84
-13.23
-19.01
-24.05
-28.81
-31.69
-30.94
-26.91
-21.72
-19.05
-22.35
-32.99
-49.02
-66.07
-79.63
-86.93
-88.24
-84.82
-76.29
-63.68
-48.59
-32.43
-15.78
1.09
19.65
40.15
62.77
87.30
110.70
130.51
145.50
155.86
162.69
167.44
165.32
154.72
137.37
116.03
92.70
67.65
40.33
10.64
-20.12
-49.87
-75.93
-95.30
-106.54
-110.17
-108.61
-105.17
-102.94
-104.02
-106.61
-108.62
-107.90
-103.40
-95.08
-83.53
-69.37
-52.93
-34.68
-15.66
2.20
16.45
24.58
25.26
19.25
9.23
-1.09
-8.72
-12.32
-12.55
-10.96
-9.05
-7.33
-5.17
-1.58
4.39
12.54
21.65
29.64
34.67
35.57
32.03
24.55
13.90
1.64
-10.93
-21.43
-27.57
-28.21
-23.66
-15.02
-3.42
9.81
25.17
42.51
61.10
79.71
97.39
114.32
128.95
140.73
145.21
140.28
126.08
105.00
80.10
53.85
27.96
3.55
-18.86
-39.92
-58.77
-74.38
-86.03
-93.82
-98.66
-102.13
-103.10
-101.54
-97.76
-91.62
-83.54
-74.58
-66.16
-59.48
-55.11
-52.92
-52.60
-53.55
-54.70
-55.18
-54.46
-52.24
-48.35
-42.80
-35.69
-27.56
-18.91
-9.95
-0.90
8.00
16.54
24.63
32.22
39.28
45.42
50.15
52.93
53.27
51.00
46.36
40.12
33.24
26.60
20.66
15.52
11.04
7.01
3.38
0.28
-2.09
-3.48
-3.60
-2.00
1.87
8.38
17.16
26.82
35.05
39.35
38.09
31.38
21.07
9.97
0.71
-5.33
-8.20
-8.97
-8.78
-8.22
-7.12
-5.02
-1.87
1.87
5.13
6.81
6.10
2.85
-2.54
-9.18
-16.17
-22.71
-27.92
-30.79
-30.36
-26.30
-19.23
-10.68
-2.15
5.04
10.08
12.93
14.32
15.36
16.98
19.68
23.50
28.79
35.33
42.21
48.05
51.87
53.44
53.13
51.50
49.42
48.77
51.16
57.00
65.23
73.86
80.66
83.61
81.54
69.23
46.30
18.24
-6.62
-23.01
-30.38
-30.79
-26.55
-19.05
-8.74
5.75
24.65
45.60
63.54
72.57
68.08
48.19
14.59
-27.84
-72.12
-110.80
-137.37
-148.84
-145.80
-131.37
-109.91
-85.69
-62.15
-41.22
-23.97
-11.02
-2.63
1.72
3.31
3.52
3.28
2.81
1.95
0.20
-2.96
-7.91
-14.45
-21.76
-28.67
-33.95
-36.59
-36.01
-32.25
-25.98
-18.43
-10.84
-4.04
1.66
6.44
10.65
14.53
18.11
21.17
23.38
24.53
24.68
24.08
23.11
22.03
20.92
19.69
18.11
15.98
13.13
9.57
5.46
1.15
-2.92
-6.24
-8.37
-9.05
-8.29
-6.36
-3.76
-1.06
1.22
2.71
3.31
3.11
2.30
1.12
-0.19
-1.35
-2.04
-1.76
-0.13
3.06
7.67
13.26
19.24
25.23
31.12
37.03
43.08
48.85
53.36
55.26
53.33
47.11
37.23
25.15
12.77
1.72
-6.93
-12.65
-15.27
-15.02
-12.71
-9.99
-9.18
-12.41
-20.58
-32.65
-45.80
-56.70
-63.11
-64.77
-63.36
-61.23
-59.98
-59.66
-59.04
-56.62
-51.60
-44.36
-35.95
-27.44
-19.39
-11.79
-4.40
2.68
8.88
13.25
14.86
13.29
8.84
2.54
-4.15
-9.77
-13.27
-14.26
-13.02
-10.29
-6.97
-3.82
-1.31
0.41
1.40
1.85
1.96
1.92
1.88
1.93
2.07
2.21
2.20
1.85
0.98
-0.54
-2.77
-5.68
-9.17
-13.07
-17.04
-20.63
-23.37
-24.84
-24.85
-23.58
-21.56
-19.54
-18.32
-18.43
-19.97
-22.59
-25.64
-28.28
-29.83
-29.88
-28.40
-25.67
-22.22
-18.70
-15.76
-13.83
-13.01
-13.06
-13.47
-13.73
-13.61
-13.22
-13.06
-13.73
-15.64
-18.64
-22.00
-24.69
-25.69
-24.47
-21.04
-16.00
-10.12
-4.12
1.93
8.33
15.40
23.19
31.34
39.24
46.22
52.03
56.80
61.58
67.41
74.70
82.82
90.40
95.88
97.85
96.08
91.13
85.17
80.43
78.25
78.58
80.30
82.02
82.33
81.06
78.69
77.18
78.42
83.33
91.73
102.80
115.99
130.55
146.54
154.81
148.26
124.90
89.52
50.04
12.97
-15.01
-36.05
-52.61
-66.70
-78.44
-87.52
-93.81
-97.40
-98.61
-97.69
-95.35
-91.66
-87.07
-81.37
-74.50
-66.83
-59.23
-52.67
-47.70
-44.68
-42.88
-41.48
-39.29
-35.50
-30.07
-23.86
-18.13
-14.06
-12.65
-13.88
-17.22
-21.49
-25.48
-28.27
-29.52
-29.42
-28.40
-27.00
-25.39
-23.52
-21.14
-18.06
-14.19
-9.59
-4.35
1.58
8.27
15.85
24.19
32.92
41.43
49.07
55.18
59.23
60.86
59.88
56.28
50.27
42.28
33.04
23.47
14.45
6.53
-0.25
-6.46
-12.93
-20.33
-28.77
-37.65
-45.94
-52.60
-56.96
-58.90
-58.74
-56.96
-53.97
-50.02
-45.34
-40.17
-34.86
-29.79
-25.30
-21.59
-18.70
-16.54
-14.99
-13.98
-13.49
-13.55
-14.20
-15.40
-17.03
-18.92
-20.85
-22.59
-23.89
-24.51
-24.22
-22.96
-20.87
-18.38
-16.11
-14.64
-14.36
-15.31
-17.13
-19.21
-20.89
-21.69
-21.40
-20.12
-18.15
-15.94
-13.89
-12.29
-11.25
-10.72
-10.51
-10.41
-10.21
-9.82
-9.34
-8.91
-8.75
-8.88
-9.11
-8.98
-8.01
-5.94
-2.78
1.06
5.14
9.17
13.24
17.79
23.25
29.71
36.66
43.14
48.07
50.78
51.22
50.00
48.02
46.11
44.71
43.87
43.40
43.08
42.81
42.56
42.30
41.97
41.49
40.90
40.33
39.85
39.27
38.14
35.98
32.65
28.60
24.63
21.56
19.63
18.31
16.52
13.22
7.89
0.83
-7.10
-14.95
-22.13
-28.54
-34.38
-39.85
-44.78
-48.60
-50.60
-50.13
-46.97
-41.42
-34.24
-26.30
-18.23
-10.29
-2.49
4.95
11.37
15.77
17.23
15.64
11.92
7.65
4.18
1.73
-0.86
-5.48
-13.60
-25.27
-38.79
-51.33
-60.03
-63.04
-59.99
-51.83
-40.21
-26.96
-13.64
-1.43
8.81
16.50
21.39
23.52
23.30
21.42
18.77
16.27
14.71
14.48
15.50
17.27
18.92
19.58
18.62
15.88
11.92
7.83
4.89
4.12
5.89
9.57
13.65
16.10
15.06
9.65
0.54
-10.15
-19.35
-24.27
-23.38
-16.93
-6.71
4.82
15.63
24.58
31.49
36.56
39.87
41.18
40.24
37.15
32.63
27.80
23.67
20.71
18.48
15.88
11.50
4.31
-5.94
-18.62
-32.45
-45.99
-58.03
-67.74
-74.65
-78.39
-78.49
-74.29
-65.11
-50.62
-31.10
-7.61
18.19
44.36
69.05
90.88
109.09
123.53
134.44
142.19
147.02
148.96
147.83
143.39
135.50
124.08
109.15
90.88
69.73
46.54
22.58
-0.62
-21.65
-39.56
-54.06
-65.44
-74.28
-81.08
-86.12
-89.54
-91.55
-92.45
-92.69
-92.67
-92.58
-92.26
-91.37
-89.52
-86.55
-82.54
-77.76
-72.50
-66.85
-60.63
-53.45
-44.99
-35.22
-24.52
-13.52
-2.93
6.75
15.28
22.63
28.82
33.79
37.40
39.46
39.86
38.65
35.99
32.19
27.62
22.71
17.85
13.41
9.60
6.43
3.67
0.99
-1.92
-5.26
-8.98
-12.90
-16.70
-20.07
-22.73
-24.50
-25.26
-24.97
-23.66
-21.36
-18.17
-14.17
-9.41
-3.97
2.02
8.38
14.73
20.38
24.35
25.57
23.34
17.86
10.37
2.97
-2.05
-3.06
0.34
7.25
15.83
24.06
30.26
33.45
33.37
30.42
25.58
20.33
16.53
15.99
20.00
28.79
41.29
55.42
68.67
78.90
84.90
86.60
84.76
80.39
74.25
66.52
56.93
45.10
31.00
15.13
-1.53
-17.81
-32.69
-45.42
-55.59
-63.01
-67.66
-69.67
-69.26
-66.85
-63.04
-58.52
-53.96
-49.92
-46.72
-44.40
-42.79
-41.58
-40.50
-39.41
-38.36
-37.44
-36.66
-35.84
-34.62
-32.57
-29.41
-25.17
-20.19
-15.02
-10.23
-6.25
-3.27
-1.28
-0.14
0.30
0.18
-0.44
-1.54
-3.17
-5.40
-8.34
-12.01
-16.34
-21.00
-25.38
-28.74
-30.46
-30.23
-28.29
-25.23
-21.71
-18.18
-14.72
-11.13
-7.18
-2.81
1.84
6.62
11.48
16.57
22.04
27.80
33.33
37.77
40.16
39.87
36.81
31.51
24.90
18.00
11.62
6.26
2.13
-0.68
-2.09
-2.05
-0.67
1.77
4.89
8.40
12.16
16.13
20.10
23.38
24.80
23.04
17.25
7.62
-4.53
-17.09
-27.85
-35.16
-38.28
-37.34
-33.06
-26.43
-18.46
-10.08
-2.08
4.96
10.61
14.63
16.90
17.37
16.12
13.40
9.64
5.46
1.54
-1.53
-3.28
-3.34
-1.35
3.01
9.95
19.29
30.34
41.91
52.51
60.76
65.76
67.24
65.50
61.23
55.24
48.24
40.83
33.49
26.64
20.68
15.80
12.01
9.03
6.38
3.52
0.06
-4.21
-9.21
-14.72
-20.44
-26.07
-31.37
-36.10
-40.05
-42.97
-44.62
-44.85
-43.62
-41.10
-37.58
-33.43
-29.01
-24.60
-20.41
-16.60
-13.33
-10.69
-8.68
-7.13
-5.73
-4.09
-1.90
0.96
4.49
8.54
12.91
17.45
22.01
26.46
30.70
34.62
38.13
41.18
43.70
45.62
46.87
47.37
47.02
45.76
43.51
40.24
35.97
30.83
25.04
18.91
12.75
6.83
1.26
-3.96
-8.92
-13.77
-18.56
-23.30
-27.89
-32.22
-36.19
-39.69
-42.65
-44.94
-46.48
-47.19
-47.07
-46.23
-44.84
-43.10
-41.11
-38.88
-36.31
-33.29
-29.85
-26.14
-22.48
-19.25
-16.69
-14.81
-13.39
-12.09
-10.59
-8.80
-6.84
-4.98
-3.47
-2.40
-1.68
-1.12
-0.52
0.21
1.05
1.87
2.52
2.91
3.00
2.83
2.52
2.16
1.83
1.50
1.12
0.63
0.06
-0.50
-0.92
-1.13
-1.16
-1.14
-1.22
-1.48
-1.88
-2.31
-2.63
-2.73
-2.58
-2.25
-1.85
-1.56
-1.50
-1.73
-2.23
-2.85
-3.41
-3.78
-3.94
-3.95
-3.92
-3.96
-4.05
-4.16
-4.23
-4.24
-4.24
-4.24
-4.24
-4.24
-4.22
-4.20
-4.20
-4.20
-4.13
-3.85
-3.23
-2.22
-0.91
0.49
1.73
2.57
2.93
2.87
2.51
2.06
1.64
1.32
1.13
1.06
1.12
1.28
1.55
1.84
2.05
2.10
1.94
1.61
1.21
0.83
0.56
0.40
0.33
0.27
0.16
-0.04
-0.29
-0.55
-0.74
-0.81
-0.77
-0.68
-0.58
-0.51
-0.46
-0.42
-0.39
-0.44
-0.62
-1.01
-1.57
-2.20
-2.74
-3.07
-3.16
-3.02
-2.74
-2.40
-2.10
-1.90
-1.83
-1.93
-2.19
-2.57
-3.03
-3.49
-3.94
-4.36
-4.72
-4.95
-4.98
-4.69
-4.02
-3.02
-1.80
-0.55
0.54
1.35
1.83
2.05
2.11
2.15
2.27
2.51
2.88
3.34
3.80
4.18
4.39
4.33
3.94
3.27
2.43
1.61
1.01
0.73
0.76
0.96
1.20
1.40
1.60
1.84
2.16
2.48
2.68
2.68
2.50
2.30
2.26
2.49
2.88
3.21
3.25
2.91
2.27
1.57
1.03
0.73
0.59
0.40
0.03
-0.59
-1.36
-2.16
-2.88
-3.51
-4.08
-4.63
-5.12
-5.50
-5.74
-5.88
-6.07
-6.44
-7.04
-7.77
-8.37
-8.55
-8.10
-6.99
-5.39
-3.60
-1.97
-0.75
0.01
0.41
0.67
1.03
1.56
2.18
2.60
2.50
1.68
0.23
-1.47
-2.90
-3.62
-3.50
-2.85
-2.27
-2.40
-3.58
-5.67
-8.14
-10.31
-11.70
-12.17
-11.90
-11.27
-10.73
-10.81
-12.13
-15.23
-20.13
-25.86
-30.39
-31.30
-26.90
-17.26
-4.52
8.00
17.17
21.40
21.10
18.10
14.56
12.01
11.03
11.62
13.74
17.52
23.10
30.27
38.18
45.60
51.33
54.61
55.41
54.20
51.64
48.34
44.62
40.58
36.22
31.59
26.80
21.93
17.03
12.02
6.88
1.75
-3.08
-7.19
-10.26
-12.25
-13.37
-13.98
-14.47
-15.04
-15.72
-16.44
-17.09
-17.67
-18.16
-18.45
-18.34
-17.55
-15.93
-13.55
-10.76
-7.99
-5.69
-4.11
-3.33
-3.34
-4.02
-5.24
-6.84
-8.60
-10.28
-11.65
-12.52
-12.75
-12.15
-10.50
-7.55
-3.17
2.49
9.01
15.68
21.73
26.43
29.24
29.91
28.50
25.33
20.97
16.11
11.40
7.38
4.35
2.38
1.32
0.98
1.15
1.69
2.49
3.48
4.62
5.88
7.24
8.68
10.12
11.40
12.26
12.41
11.59
9.70
6.81
3.15
-1.01
-5.37
-9.68
-13.66
-17.00
-19.45
-20.85
-21.23
-20.84
-20.07
-19.32
-18.93
-19.04
-19.64
-20.57
-21.59
-22.38
-22.60
-21.99
-20.39
-17.82
-14.50
-10.78
-7.06
-3.74
-1.13
0.61
1.43
1.43
0.80
-0.24
-1.51
-2.90
-4.43
-6.24
-8.52
-11.42
-14.93
-18.72
-22.12
-24.25
-24.33
-21.96
-17.31
-11.10
-4.37
1.91
7.07
10.88
13.46
15.08
16.03
16.54
16.75
16.75
16.63
16.43
16.16
15.79
15.26
14.53
13.59
12.48
11.29
10.14
9.15
8.37
7.84
7.56
7.48
7.52
7.55
7.42
7.04
6.43
5.72
5.12
4.80
4.82
5.01
5.18
5.12
4.77
4.19
3.43
2.49
1.27
-0.28
-1.99
-3.45
-4.14
-3.64
-1.93
0.57
3.15
5.12
6.00
5.64
3.92
0.61
-4.75
-12.63
-23.17
-35.75
-49.00
-61.13
-70.52
-76.27
-78.38
-77.51
-74.43
-69.59
-62.88
-53.92
-42.48
-28.83
-13.85
1.28
15.50
28.12
38.92
47.94
55.21
60.61
63.90
64.90
63.60
60.24
55.27
49.29
42.83
36.31
30.00
24.05
18.48
13.26
8.33
3.69
-0.67
-4.76
-8.61
-12.23
-15.52
-18.30
-20.44
-21.90
-22.83
-23.47
-24.04
-24.63
-25.18
-25.52
-25.54
-25.15
-24.27
-22.78
-20.52
-17.42
-13.67
-9.70
-6.11
-3.38
-1.66
-0.73
-0.09
0.87
2.56
5.18
8.56
12.27
15.67
18.08
18.91
17.87
15.01
10.70
5.51
-0.02
-5.44
-10.42
-14.75
-18.27
-20.86
-22.40
-22.83
-22.07
-20.05
-16.69
-11.95
-5.85
1.47
9.72
18.43
26.95
34.56
40.60
44.59
46.46
46.51
45.34
43.56
41.62
39.64
37.56
35.18
32.40
29.21
25.73
22.12
18.53
15.09
11.96
9.23
6.97
5.09
3.48
2.02
0.75
-0.16
-0.42
0.20
1.76
4.05
6.73
9.40
11.77
13.76
15.51
17.28
19.36
21.92
24.96
28.28
31.56
34.52
37.05
39.19
41.17
43.20
45.43
47.93
50.69
53.72
57.11
60.98
65.39
70.26
75.42
80.69
85.98
91.11
95.65
98.66
98.66
93.89
83.01
65.93
44.25
20.84
-1.29
-20.14
-35.41
-48.17
-59.92
-71.61
-83.11
-93.48
-101.81
-107.84
-111.84
-113.96
-113.70
-110.03
-102.38
-91.01
-77.33
-63.29
-50.71
-40.33
-31.58
-23.15
-14.39
-6.62
-2.04
-2.26
-6.80
-13.39
-19.29
-22.91
-24.89
-27.85
-35.52
-49.38
-67.47
-85.37
-99.45
-108.84
-114.92
-119.62
-123.93
-128.92
-134.82
-141.54
-148.34
-154.16
-156.91
-152.96
-138.08
-102.33
-44.80
24.60
89.95
139.43
168.98
179.92
175.51
159.12
134.30
103.96
73.02
44.45
21.41
5.74
-2.65
-5.08
-3.13
1.78
7.45
12.07
14.69
15.81
16.10
16.15
16.51
17.47
18.77
19.20
17.94
15.20
12.61
11.78
13.12
15.58
17.23
16.24
11.67
4.22
-4.19
-11.22
-15.41
-16.55
-15.13
-11.65
-6.33
0.62
8.58
16.29
22.21
24.85
23.36
17.98
9.94
1.08
-6.72
-12.06
-14.46
-14.26
-12.34
-9.51
-6.09
-1.75
4.06
11.55
20.11
28.39
34.78
38.23
38.65
36.78
33.77
30.48
27.24
23.94
20.45
16.89
13.59
10.93
8.99
7.52
6.03
4.01
1.25
-2.21
-6.07
-10.12
-14.34
-18.80
-23.41
-27.57
-30.16
-29.81
-25.60
-17.52
-6.66
5.14
15.99
24.64
30.73
34.48
36.25
36.06
33.65
28.85
22.00
14.08
6.47
0.38
-3.63
-5.75
-6.74
-7.37
-8.06
-8.74
-9.08
-8.81
-7.92
-6.76
-5.75
-5.22
-5.31
-5.95
-6.98
-8.24
-9.59
-10.84
-11.82
-12.40
-12.60
-12.57
-12.55
-12.69
-12.95
-13.04
-12.67
-11.66
-10.03
-8.01
-5.84
-3.75
-1.89
-0.46
0.33
0.26
-0.78
-2.70
-5.25
-8.10
-11.04
-13.97
-16.86
-19.62
-21.95
-23.41
-23.41
-21.43
-17.15
-10.57
-2.07
7.67
17.67
26.83
34.16
38.98
41.08
40.73
38.59
35.54
32.49
30.18
29.00
28.91
29.44
29.80
29.20
27.05
23.13
17.58
10.82
3.35
-4.35
-11.74
-18.27
-23.26
-26.21
-26.93
-25.79
-23.59
-21.31
-19.67
-18.89
-18.67
-18.47
-17.89
-16.91
-15.85
-15.16
-15.12
-15.68
-16.52
-17.28
-17.65
-17.45
-16.58
-14.97
-12.67
-9.80
-6.56
-3.20
0.09
3.30
6.43
9.53
12.55
15.34
17.76
19.72
21.24
22.34
22.99
23.07
22.35
20.71
18.09
14.66
10.69
6.59
2.82
-0.14
-1.90
-2.19
-0.96
1.61
5.12
9.00
12.63
15.48
17.23
17.87
17.73
17.28
16.94
16.86
16.81
16.25
14.67
11.87
8.12
3.98
0.05
-3.50
-6.95
-10.90
-15.81
-21.70
-28.04
-33.91
-38.43
-41.08
-41.84
-41.00
-38.98
-36.15
-32.77
-29.10
-25.24
-20.90
-15.15
-6.40
6.96
25.62
48.43
72.13
92.14
103.99
104.91
94.64
75.40
50.89
25.09
1.40
-17.87
-31.50
-39.12
-41.11
-38.45
-32.55
-25.06
-17.49
-10.97
-6.07
-2.98
-1.86
-3.23
-7.99
-17.00
-30.26
-46.27
-61.94
-73.43
-77.50
-72.82
-60.40
-43.10
-24.37
-7.07
7.01
17.04
22.68
23.81
20.67
14.09
5.59
-2.97
-9.98
-14.54
-16.60
-16.72
-15.71
-14.22
-12.51
-10.54
-8.04
-4.83
-0.93
3.20
6.78
8.89
8.82
6.32
1.78
-4.02
-10.15
-15.84
-20.71
-24.78
-28.23
-31.20
-33.72
-35.68
-37.03
-37.79
-38.07
-37.99
-37.59
-36.74
-35.10
-32.14
-27.45
-20.85
-12.55
-3.14
6.49
15.33
22.62
27.95
31.42
33.38
34.31
34.73
35.34
36.62
38.72
41.35
43.90
45.57
45.59
43.52
39.40
34.05
28.14
21.85
15.25
8.95
4.52
4.03
9.29
21.00
38.82
60.43
82.15
100.61
114.19
123.35
129.70
134.82
139.53
144.48
148.97
151.13
148.59
139.08
120.59
91.52
51.48
-2.12
-63.33
-119.76
-159.20
-176.77
-175.92
-163.99
-147.51
-130.13
-112.95
-95.39
-77.93
-62.33
-50.05
-40.53
-31.07
-18.61
-1.51
19.47
42.19
63.25
79.03
87.03
86.65
79.04
66.27
50.32
32.88
15.64
-0.34
-14.53
-26.73
-36.79
-44.80
-50.22
-53.31
-54.99
-55.98
-56.66
-56.86
-56.03
-53.67
-49.79
-45.15
-41.14
-38.94
-38.86
-40.30
-42.12
-43.21
-42.89
-41.07
-38.17
-35.07
-32.57
-31.17
-30.92
-31.43
-32.00
-31.77
-29.91
-25.92
-19.85
-12.33
-4.39
2.86
8.55
12.29
14.27
15.03
15.22
15.34
15.66
16.25
17.07
18.02
18.98
19.82
20.42
20.70
20.61
20.13
19.27
18.03
16.46
14.65
12.73
10.95
9.53
8.67
8.47
8.81
9.46
10.09
10.43
10.32
9.82
9.06
8.23
7.48
6.81
6.16
5.45
4.64
3.75
2.90
2.17
1.57
0.98
0.21
-0.89
-2.37
-4.10
-5.84
-7.31
-8.33
-8.86
-8.98
-8.83
-8.57
-8.34
-8.22
-8.25
-8.34
-8.37
-8.13
-7.46
-6.29
-4.68
-2.81
-0.86
1.05
2.88
4.61
6.20
7.60
8.72
9.51
9.97
10.15
10.11
9.90
9.53
9.02
8.42
7.78
7.16
6.60
6.12
5.75
5.56
5.57
5.75
5.97
6.05
5.82
5.25
4.43
3.53
2.74
2.16
1.78
1.53
1.30
1.04
0.72
0.34
-0.04
-0.39
-0.64
-0.75
-0.72
-0.62
-0.57
-0.67
-0.99
-1.54
-2.25
-3.05
-3.92
-4.81
-5.68
-6.50
-7.21
-7.81
-8.30
-8.71
-9.01
-9.10
-8.84
-8.14
-6.97
-5.41
-3.64
-1.86
-0.25
1.08
2.08
2.75
3.10
3.24
3.27
3.36
3.58
3.93
4.31
4.55
4.58
4.39
4.12
3.91
3.89
4.07
4.38
4.70
4.90
4.92
4.71
4.34
3.88
3.45
3.18
3.11
3.23
3.40
3.47
3.32
2.94
2.43
1.96
1.62
1.43
1.35
1.32
1.34
1.43
1.56
1.66
1.58
1.23
0.59
-0.21
-1.00
-1.61
-2.03
-2.31
-2.58
-2.90
-3.24
-3.53
-3.73
-3.86
-3.98
-4.15
-4.43
-4.81
-5.22
-5.60
-5.83
-5.78
-5.33
-4.39
-2.93
-1.05
1.03
3.07
4.86
6.28
7.37
8.19
8.88
9.53
10.18
10.82
11.46
12.07
12.65
13.21
13.73
14.22
14.66
15.02
15.31
15.58
15.90
16.36
16.94
17.52
17.85
17.63
16.72
15.20
13.42
11.81
10.66
9.93
9.21
7.83
5.09
0.49
-6.19
-14.81
-24.89
-35.67
-46.15
-55.30
-62.23
-66.42
-67.76
-66.55
-63.30
-58.47
-52.35
-45.07
-36.68
-27.33
-17.35
-7.23
2.42
10.99
18.12
23.74
27.99
31.07
33.12
34.15
34.10
32.88
30.44
27.02
23.03
18.92
14.84
10.60
5.70
-0.43
-8.28
-18.06
-29.27
-40.78
-51.19
-59.32
-64.53
-66.69
-65.97
-62.73
-57.30
-49.62
-39.40
-26.49
-11.20
5.74
23.73
42.70
63.15
83.37
100.52
111.75
116.01
114.25
108.22
99.40
88.69
76.40
62.35
46.55
29.63
12.93
-1.72
-12.59
-18.60
-19.84
-17.71
-14.54
-12.38
-12.22
-13.86
-16.32
-18.56
-19.96
-20.61
-21.10
-22.11
-24.10
-26.55
-28.74
-30.15
-30.75
-30.93
-31.16
-31.69
-32.42
-32.86
-32.42
-30.84
-28.47
-26.07
-24.42
-24.02
-24.77
-26.40
-28.51
-30.77
-33.01
-35.17
-37.13
-38.74
-39.96
-40.84
-41.77
-43.16
-44.48
-44.32
-41.37
-34.76
-24.69
-12.89
-0.63
11.03
21.50
30.25
37.17
42.50
46.68
50.06
52.79
54.88
56.06
56.05
54.71
52.18
48.75
44.82
40.78
36.92
33.50
30.52
27.86
25.29
22.63
19.82
17.08
14.98
14.39
16.16
20.63
27.34
35.05
42.07
46.80
48.19
45.99
40.66
33.06
23.99
14.01
3.45
-7.38
-18.06
-27.96
-36.37
-42.72
-46.83
-49.04
-50.15
-51.10
-52.58
-54.91
-57.89
-61.04
-63.76
-65.60
-66.33
-65.95
-64.60
-62.49
-59.78
-56.51
-52.43
-46.95
-39.20
-28.31
-13.78
4.09
23.95
43.54
60.26
71.87
77.18
76.33
70.56
61.68
51.47
41.28
31.96
24.04
17.91
13.85
11.91
11.73
12.54
13.33
13.17
11.57
8.62
4.91
1.20
-1.81
-3.72
-4.45
-4.28
-3.60
-2.82
-2.27
-2.10
-2.29
-2.77
-3.45
-4.34
-5.51
-6.99
-8.74
-10.55
-12.15
-13.32
-13.95
-14.12
-13.96
-13.55
-12.84
-11.62
-9.65
-6.76
-2.94
1.63
6.64
11.75
16.67
21.14
24.96
27.95
29.95
30.86
30.65
29.46
27.53
25.17
22.64
20.11
17.53
14.76
11.57
7.76
3.32
-1.52
-6.36
-10.67
-14.02
-16.12
-16.92
-16.54
-15.17
-13.00
-10.18
-6.86
-3.29
0.22
3.31
5.64
7.03
7.42
6.88
5.52
3.46
0.84
-2.20
-5.51
-8.90
-12.23
-15.35
-18.19
-20.76
-23.13
-25.30
-27.16
-28.46
-28.79
-27.78
-25.14
-20.89
-15.31
-8.91
-2.30
3.95
9.37
13.65
16.63
18.35
18.93
18.62
17.59
15.94
13.68
10.84
7.58
4.23
1.26
-0.85
-1.79
-1.46
0.01
2.31
5.06
7.84
10.22
11.80
12.25
11.44
9.41
6.35
2.54
-1.77
-6.35
-10.98
-15.36
-19.10
-21.73
-22.85
-22.20
-19.77
-15.74
-10.53
-4.64
1.41
7.08
11.93
15.64
17.99
18.92
18.45
16.74
14.04
10.60
6.71
2.61
-1.46
-5.22
-8.31
-10.34
-10.88
-9.70
-6.85
-2.72
2.01
6.59
10.34
12.88
14.08
14.00
12.76
10.47
7.22
3.10
-1.72
-6.96
-12.24
-17.18
-21.47
-24.93
-27.50
-29.15
-29.89
-29.70
-28.60
-26.71
-24.29
-21.68
-19.25
-17.21
-15.57
-14.14
-12.59
-10.69
-8.32
-5.54
-2.48
0.75
4.20
8.05
12.58
18.05
24.64
32.38
41.14
50.61
60.26
69.32
76.81
81.67
82.99
80.14
72.97
61.85
47.62
31.50
14.87
-0.90
-14.73
-25.93
-34.25
-39.79
-42.88
-43.86
-43.13
-41.04
-38.04
-34.61
-31.27
-28.48
-26.57
-25.70
-25.90
-27.06
-28.94
-31.13
-33.13
-34.37
-34.35
-32.70
-29.29
-24.30
-18.13
-11.37
-4.67
1.36
6.30
9.97
12.47
14.15
15.41
16.63
18.01
19.61
21.31
22.93
24.32
25.31
25.78
25.65
24.86
23.45
21.53
19.32
17.04
14.91
12.99
11.29
9.69
8.06
6.26
4.26
2.06
-0.23
-2.47
-4.50
-6.18
-7.43
-8.26
-8.73
-8.97
-9.14
-9.34
-9.65
-10.06
-10.54
-11.06
-11.62
-12.27
-13.05
-13.96
-14.92
-15.81
-16.48
-16.87
-17.00
-16.95
-16.80
-16.54
-16.10
-15.42
-14.50
-13.44
-12.36
-11.37
-10.49
-9.63
-8.67
-7.46
-5.91
-4.01
-1.85
0.38
2.44
4.09
5.21
5.88
6.28
6.68
7.23
7.95
8.72
9.39
9.89
10.20
10.34
10.25
9.83
8.99
7.77
6.38
5.17
4.44
4.30
4.64
5.21
5.70
5.94
5.91
5.70
5.42
5.11
4.81
4.52
4.26
4.08
4.05
4.20
4.48
4.85
5.24
5.58
5.82
5.92
5.82
5.51
5.03
4.48
3.95
3.50
3.13
2.76
2.24
1.45
0.30
-1.22
-2.96
-4.72
-6.23
-7.25
-7.67
-7.49
-6.89
-6.08
-5.22
-4.41
-3.61
-2.77
-1.88
-0.95
-0.02
0.89
1.78
2.66
3.50
4.27
4.87
5.19
5.19
4.85
4.18
3.22
1.98
0.50
-1.21
-3.04
-4.85
-6.48
-7.73
-8.49
-8.66
-8.23
-7.23
-5.73
-3.82
-1.55
1.08
4.07
7.42
11.11
15.00
18.81
22.21
24.79
26.25
26.37
25.09
22.47
18.70
14.08
9.03
4.00
-0.57
-4.35
-7.19
-9.11
-10.30
-10.98
-11.35
-11.56
-11.74
-12.04
-12.65
-13.82
-15.78
-18.61
-22.22
-26.24
-30.19
-33.57
-36.05
-37.51
-38.08
-37.90
-37.09
-35.64
-33.45
-30.49
-26.82
-22.59
-18.00
-13.18
-8.17
-2.99
2.32
7.60
12.58
17.04
20.84
24.04
26.82
29.41
31.89
34.22
36.23
37.76
38.78
39.40
39.74
39.84
39.56
38.64
36.78
33.80
29.63
24.34
18.11
11.10
3.52
-4.33
-12.14
-19.52
-26.13
-31.64
-35.81
-38.43
-39.49
-39.12
-37.62
-35.28
-32.33
-28.89
-24.97
-20.56
-15.67
-10.57
-5.68
-1.42
1.98
4.58
6.56
8.22
9.86
11.99
14.95
19.01
24.30
30.84
38.33
46.04
52.81
57.40
58.92
56.68
50.22
39.32
24.07
4.79
-18.08
-43.92
-72.01
-99.19
-121.62
-136.66
-144.04
-145.02
-140.18
-128.53
-108.70
-80.98
-48.16
-15.23
12.74
32.88
45.43
52.85
57.79
62.20
65.68
67.37
66.76
64.18
60.54
56.58
52.43
47.52
41.04
32.53
22.50
12.08
2.57
-4.99
-10.05
-12.61
-13.01
-11.92
-10.13
-8.11
-6.13
-4.25
-2.47
-0.71
1.12
3.03
4.99
6.88
8.64
10.16
11.32
11.96
12.02
11.55
10.67
9.47
8.02
6.36
4.52
2.52
0.44
-1.58
-3.35
-4.60
-5.11
-4.73
-3.48
-1.51
0.84
3.20
5.20
6.63
7.45
7.74
7.64
7.29
6.78
6.16
5.49
4.81
4.21
3.73
3.38
3.07
2.67
2.03
1.08
-0.18
-1.67
-3.21
-4.66
-5.87
-6.77
-7.28
-7.40
-7.09
-6.34
-5.18
-3.72
-2.13
-0.59
0.74
1.82
2.65
3.26
3.65
3.76
3.54
2.98
2.13
1.12
0.07
-0.97
-2.01
-3.11
-4.28
-5.48
-6.61
-7.54
-8.19
-8.57
-8.75
-8.78
-8.63
-8.23
-7.45
-6.25
-4.73
-3.16
-1.84
-1.01
-0.72
-0.80
-0.94
-0.86
-0.40
0.35
1.17
1.78
1.97
1.71
1.08
0.31
-0.38
-0.78
-0.77
-0.32
0.53
1.68
3.00
4.38
5.74
7.02
8.22
9.33
10.31
11.10
11.54
11.49
10.88
9.70
8.10
6.22
4.25
2.32
0.58
-0.88
-1.95
-2.57
-2.77
-2.71
-2.59
-2.65
-3.03
-3.73
-4.58
-5.35
-5.82
-5.88
-5.52
-4.84
-3.96
-2.94
-1.81
-0.57
0.67
1.76
2.45
2.54
1.92
0.60
-1.25
-3.44
-5.73
-7.94
-9.93
-11.58
-12.84
-13.63
-13.92
-13.67
-12.82
-11.37
-9.38
-6.97
-4.29
-1.48
1.37
4.21
6.95
9.45
11.48
12.80
13.25
12.84
11.79
10.43
9.12
8.12
7.51
7.19
7.03
6.87
6.66
6.47
6.41
6.55
6.87
7.22
7.39
7.18
6.50
5.37
3.92
2.33
0.80
-0.51
-1.50
-2.13
-2.36
-2.24
-1.83
-1.24
-0.58
0.04
0.59
1.08
1.53
1.98
2.44
2.87
3.23
3.48
3.58
3.52
3.28
2.83
2.13
1.14
-0.14
-1.69
-3.43
-5.25
-6.99
-8.51
-9.70
-10.50
-10.85
-10.71
-10.06
-8.92
-7.41
-5.75
-4.17
-2.86
-1.83
-0.91
0.12
1.43
3.00
4.65
6.13
7.22
7.89
8.19
8.21
7.99
7.51
6.76
5.79
4.74
3.80
3.07
2.54
2.08
1.55
0.88
0.09
-0.67
-1.25
-1.53
-1.43
-0.94
-0.07
1.14
2.62
4.21
5.72
6.95
7.76
8.13
8.12
7.86
7.47
7.01
6.45
5.74
4.80
3.60
2.17
0.55
-1.14
-2.80
-4.24
-5.25
-5.57
-5.06
-3.75
-1.87
0.16
1.81
2.67
2.49
1.29
-0.73
-3.22
-5.81
-8.17
-10.11
-11.51
-12.41
-12.87
-12.95
-12.68
-12.04
-10.99
-9.53
-7.77
-5.85
-3.97
-2.29
-0.91
0.14
0.95
1.60
2.22
2.90
3.65
4.42
5.08
5.46
5.44
4.96
4.07
2.95
1.90
1.21
1.16
1.86
3.26
5.10
6.99
8.52
9.37
9.39
8.65
7.40
5.89
4.33
2.81
1.40
0.12
-0.92
-1.60
-1.88
-1.80
-1.58
-1.50
-1.74
-2.31
-3.03
-3.62
-3.84
-3.63
-3.12
-2.57
-2.23
-2.26
-2.67
-3.35
-4.11
-4.82
-5.39
-5.81
-6.10
-6.25
-6.28
-6.17
-5.97
-5.76
-5.65
-5.68
-5.83
-5.96
-5.86
-5.35
-4.33
-2.86
-1.14
0.55
1.97
2.92
3.33
3.27
2.88
2.36
1.90
1.62
1.54
1.59
1.66
1.66
1.58
1.48
1.47
1.61
1.95
2.48
3.14
3.90
4.68
5.36
5.81
5.87
5.53
4.85
4.00
3.16
2.52
2.15
2.12
2.46
3.13
4.01
4.88
5.43
5.44
4.80
3.64
2.26
0.98
0.02
-0.58
-0.95
-1.29
-1.73
-2.25
-2.79
-3.22
-3.56
-3.87
-4.30
-4.91
-5.63
-6.27
-6.61
-6.56
-6.18
-5.71
-5.40
-5.39
-5.67
-6.07
-6.36
-6.31
-5.81
-4.80
-3.33
-1.51
0.47
2.40
4.03
5.16
5.68
5.60
5.04
4.21
3.37
2.72
2.36
2.31
2.49
2.75
2.96
3.03
2.97
2.79
2.57
2.33
2.11
1.93
1.81
1.75
1.75
1.73
1.61
1.31
0.78
0.11
-0.54
-0.97
-1.05
-0.75
-0.21
0.37
0.84
1.08
1.15
1.14
1.13
1.18
1.25
1.28
1.25
1.21
1.19
1.25
1.34
1.36
1.16
0.62
-0.26
-1.35
-2.42
-3.20
-3.56
-3.48
-3.09
-2.55
-2.00
-1.54
-1.23
-1.13
-1.31
-1.78
-2.49
-3.32
-4.07
-4.57
-4.73
-4.55
-4.09
-3.47
-2.74
-1.99
-1.24
-0.54
0.06
0.55
0.91
1.18
1.36
1.46
1.49
1.45
1.40
1.43
1.63
2.00
2.52
3.06
3.51
3.78
3.87
3.77
3.52
3.13
2.62
2.01
1.42
0.94
0.68
0.65
0.75
0.83
0.70
0.26
-0.47
-1.39
-2.30
-3.00
-3.38
-3.39
-3.09
-2.56
-1.86
-1.05
-0.15
0.81
1.76
2.55
3.07
3.24
3.08
2.71
2.31
2.01
1.86
1.77
1.60
1.27
0.75
0.14
-0.46
-0.96
-1.36
-1.76
-2.22
-2.72
-3.10
-3.17
-2.77
-1.90
-0.73
0.48
1.47
2.13
2.47
2.62
2.71
2.80
2.84
2.78
2.60
2.31
2.00
1.77
1.70
1.90
2.41
3.20
4.20
5.25
6.16
6.80
7.14
7.34
7.65
8.21
9.04
10.00
10.89
11.52
11.78
11.71
11.52
11.54
11.89
12.51
13.24
13.87
14.29
14.49
14.59
14.82
15.47
16.36
17.08
17.17
16.34
14.52
11.73
7.96
3.26
-2.28
-8.96
-16.93
-26.02
-35.74
-45.58
-55.44
-65.63
-76.58
-85.10
-87.65
-81.52
-66.53
-45.39
-22.17
-1.04
15.05
25.36
31.25
34.52
36.14
35.80
32.23
24.51
13.02
-0.57
-14.16
-26.41
-37.28
-46.88
-54.10
-56.34
-50.87
-37.13
-18.13
0.30
12.24
14.47
8.15
-2.16
-11.23
-15.94
-16.40
-14.82
-13.32
-12.39
-10.66
-6.23
1.70
12.07
22.54
30.69
35.13
36.18
35.47
34.90
35.97
38.59
41.72
43.84
43.61
40.44
34.83
28.12
22.07
18.00
16.20
15.82
15.25
12.88
7.97
0.95
-6.77
-13.48
-17.93
-19.72
-19.20
-17.27
-14.86
-12.58
-10.63
-8.95
-7.46
-6.18
-5.30
-4.94
-5.15
-5.72
-6.26
-6.32
-5.68
-4.36
-2.73
-1.32
-0.61
-0.99
-2.55
-5.13
-8.37
-11.80
-14.94
-17.41
-19.07
-19.52
-18.65
-16.50
-13.30
-9.43
-5.37
-1.57
1.66
4.26
6.44
8.46
10.52
12.64
14.60
16.10
16.93
17.08
16.75
16.25
15.73
15.18
14.40
13.08
10.92
7.78
3.73
-0.96
-5.82
-10.38
-14.21
-16.99
-18.52
-18.74
-17.71
-15.57
-12.62
-9.31
-6.21
-3.84
-2.52
-2.23
-2.61
-3.13
-3.26
-2.68
-1.31
0.67
3.01
5.46
7.94
10.38
12.75
14.92
16.66
17.68
17.68
16.54
14.32
11.30
7.89
4.56
1.76
-0.21
-1.17
-1.17
-0.33
1.11
2.94
4.94
6.96
8.86
10.54
11.91
12.94
13.66
14.12
14.40
14.49
14.38
14.04
13.45
12.65
11.69
10.64
9.49
8.19
6.65
4.79
2.58
-0.03
-2.98
-6.22
-9.65
-13.13
-16.44
-19.30
-21.41
-22.50
-22.42
-21.20
-19.11
-16.49
-13.74
-11.12
-8.79
-6.80
-5.21
-4.13
-3.66
-3.93
-4.89
-6.46
-8.44
-10.60
-12.74
-14.66
-16.19
-17.22
-17.79
-17.99
-18.06
-18.28
-18.86
-19.98
-21.77
-24.30
-27.60
-31.48
-35.40
-38.47
-39.58
-37.79
-32.68
-24.55
-14.21
-2.75
8.83
20.00
30.56
40.43
49.38
56.87
62.31
65.28
65.75
63.99
60.49
55.62
49.69
42.87
35.33
27.29
19.07
10.93
3.01
-4.56
-11.55
-17.57
-22.07
-24.54
-24.52
-21.80
-16.57
-9.46
-1.43
6.31
12.60
16.52
17.45
15.50
11.23
5.32
-1.59
-8.73
-15.07
-19.47
-20.83
-18.66
-12.85
-4.21
5.64
14.63
21.08
24.49
25.43
25.32
25.47
27.02
29.86
32.51
32.30
26.60
14.01
-5.49
-30.76
-60.56
-93.33
-124.84
-147.67
-155.85
-148.69
-129.43
-102.39
-71.43
-42.28
-15.68
7.50
26.39
40.60
50.60
58.05
62.41
64.18
63.78
62.04
59.41
56.12
51.98
46.58
39.63
31.02
21.20
10.74
0.83
-7.56
-13.78
-17.79
-20.04
-21.22
-21.97
-22.41
-22.53
-21.93
-20.34
-17.78
-14.62
-11.41
-8.70
-6.75
-5.32
-4.02
-2.33
-0.11
2.37
4.51
5.58
5.05
2.87
-0.39
-3.76
-6.00
-6.14
-3.64
1.41
8.32
16.02
23.48
30.02
35.27
39.17
41.76
43.02
42.84
40.92
36.60
28.91
16.79
-0.47
-22.49
-47.29
-71.16
-89.32
-97.15
-91.95
-74.13
-47.44
-17.87
8.51
27.67
38.73
43.43
44.27
42.94
39.73
34.40
27.70
22.16
21.30
27.75
41.45
59.16
75.83
87.01
90.63
87.39
79.87
70.76
61.77
53.40
45.47
37.68
30.01
22.53
15.24
8.03
0.75
-6.68
-14.13
-21.16
-27.14
-31.29
-32.93
-31.96
-29.40
-27.49
-29.13
-36.63
-50.21
-67.32
-83.24
-92.71
-92.12
-80.98
-61.81
-38.74
-15.66
4.89
21.79
34.56
42.46
44.36
39.23
27.00
9.08
-11.83
-32.46
-49.75
-61.53
-66.63
-64.75
-56.24
-41.99
-23.37
-2.26
19.16
38.58
53.90
63.65
67.11
64.38
56.19
43.64
28.05
10.91
-6.23
-21.88
-34.71
-43.66
-48.11
-47.91
-43.46
-35.72
-26.04
-15.95
-6.86
0.18
4.64
6.52
6.23
4.42
1.90
-0.44
-1.66
-0.97
2.05
7.27
14.00
21.15
27.58
32.37
35.00
35.33
33.40
29.37
23.57
16.55
9.12
2.27
-3.12
-6.46
-7.66
-7.03
-5.20
-2.90
-0.83
0.39
0.32
-1.26
-4.24
-8.18
-12.37
-16.00
-18.36
-19.01
-17.85
-15.11
-11.18
-6.63
-2.02
2.06
5.09
6.67
6.60
4.94
1.99
-1.71
-5.55
-8.92
-11.32
-12.50
-12.41
-11.24
-9.27
-6.84
-4.22
-1.57
1.05
3.65
6.23
8.68
10.86
12.59
13.79
14.46
14.65
14.45
13.86
12.89
11.51
9.77
7.86
5.97
4.29
2.93
1.90
1.19
0.85
0.98
1.61
2.67
3.87
4.81
5.08
4.39
2.69
0.17
-2.83
-5.95
-8.92
-11.57
-13.81
-15.60
-16.91
-17.73
-18.13
-18.18
-17.96
-17.47
-16.60
-15.19
-13.15
-10.57
-7.70
-4.91
-2.59
-0.96
-0.12
-0.04
-0.60
-1.66
-2.99
-4.24
-4.99
-4.79
-3.29
-0.32
4.07
9.58
15.77
22.12
28.24
33.89
39.01
43.56
47.42
50.23
51.40
50.38
46.80
40.78
32.89
24.10
15.54
8.25
2.98
0.01
-0.82
-0.15
1.07
1.74
0.74
-2.87
-9.54
-18.97
-30.08
-41.06
-49.86
-54.80
-55.11
-51.28
-44.87
-38.06
-33.04
-31.52
-34.56
-42.42
-54.54
-69.49
-85.07
-98.58
-107.46
-109.84
-105.02
-93.59
-77.09
-57.59
-37.22
-17.86
-0.96
12.51
22.13
28.14
31.34
32.86
33.87
35.28
37.57
40.80
44.68
48.67
52.05
54.06
54.13
52.13
48.45
43.89
39.43
35.89
33.65
32.63
32.39
32.27
31.65
30.00
27.02
22.66
17.16
11.05
5.00
-0.35
-4.56
-7.52
-9.41
-10.56
-11.21
-11.45
-11.14
-10.02
-7.83
-4.50
-0.14
4.91
10.22
15.35
19.87
23.40
25.60
26.20
24.99
21.87
16.85
10.11
1.96
-7.15
-16.60
-25.63
-33.40
-39.15
-42.32
-42.65
-40.25
-35.46
-28.78
-20.80
-12.18
-3.65
3.96
9.84
13.38
14.32
12.86
9.58
5.22
0.52
-4.01
-8.13
-11.87
-15.39
-18.89
-22.52
-26.36
-30.35
-34.39
-38.35
-42.10
-45.52
-48.47
-50.80
-52.31
-52.85
-52.25
-50.45
-47.28
-42.51
-35.77
-26.64
-14.87
-0.51
15.98
33.78
51.88
69.28
85.11
98.62
109.04
115.58
117.51
114.39
106.30
94.01
78.92
62.82
47.35
33.71
22.46
13.56
6.64
1.27
-2.86
-5.86
-7.80
-8.79
-9.04
-8.93
-8.80
-8.84
-9.05
-9.26
-9.31
-9.19
-9.05
-9.15
-9.70
-10.74
-12.08
-13.49
-14.79
-15.97
-17.11
-18.31
-19.54
-20.60
-21.20
-20.99
-19.68
-17.16
-13.54
-9.18
-4.63
-0.45
2.88
5.14
6.34
6.70
6.49
5.93
5.14
4.23
3.35
2.63
2.16
1.93
1.77
1.50
0.99
0.28
-0.40
-0.74
-0.55
0.09
0.87
1.36
1.19
0.24
-1.33
-3.16
-4.86
-6.17
-7.01
-7.44
-7.55
-7.43
-7.10
-6.55
-5.84
-5.01
-4.17
-3.35
-2.59
-1.83
-1.10
-0.44
0.05
0.26
0.16
-0.21
-0.67
-1.06
-1.25
-1.23
-1.03
-0.78
-0.56
-0.40
-0.30
-0.24
-0.25
-0.40
-0.76
-1.35
-2.09
-2.87
-3.48
-3.81
-3.80
-3.49
-2.99
-2.43
-1.88
-1.38
-0.89
-0.39
0.15
0.73
1.35
1.93
2.45
2.85
3.13
3.34
3.56
3.88
4.34
4.87
5.35
5.64
5.66
5.46
5.14
4.84
4.62
4.48
4.35
4.11
3.76
3.31
2.92
2.70
2.77
3.13
3.70
4.34
4.88
5.23
5.38
5.38
5.33
5.29
5.25
5.12
4.81
4.23
3.37
2.33
1.23
0.19
-0.74
-1.55
-2.28
-2.93
-3.50
-3.95
-4.26
-4.43
-4.49
-4.49
-4.47
-4.47
-4.56
-4.82
-5.32
-6.05
-6.91
-7.67
-8.09
-7.95
-7.21
-5.97
-4.45
-2.92
-1.59
-0.60
0.02
0.35
0.52
0.71
1.07
1.67
2.49
3.42
4.31
5.03
5.52
5.85
6.17
6.62
7.28
8.10
8.90
9.47
9.63
9.23
8.26
6.75
4.82
2.59
0.21
-2.21
-4.53
-6.64
-8.40
-9.68
-10.37
-10.42
-9.89
-8.95
-7.84
-6.83
-6.08
-5.64
-5.41
-5.23
-4.96
-4.46
-3.65
-2.53
-1.16
0.36
1.81
2.95
3.59
3.66
3.22
2.45
1.59
0.86
0.45
0.48
0.99
1.97
3.29
4.76
6.11
7.07
7.48
7.35
6.86
6.31
5.99
6.06
6.43
6.86
7.06
6.84
6.26
5.54
5.05
5.06
5.72
6.99
8.67
10.50
12.19
13.48
14.19
14.28
13.84
13.12
12.29
11.46
10.48
9.16
7.31
4.94
2.32
-0.10
-1.83
-2.58
-2.35
-1.41
-0.30
0.33
-0.18
-2.33
-6.33
-11.97
-18.70
-25.83
-32.69
-38.85
-44.10
-48.35
-51.55
-53.59
-54.32
-53.64
-51.55
-48.12
-43.46
-37.63
-30.64
-22.55
-13.48
-3.60
6.86
17.63
28.30
38.18
46.42
52.06
54.39
53.16
48.80
42.26
34.82
27.75
21.98
17.97
15.74
14.95
15.13
15.76
16.39
16.66
16.31
15.19
13.24
10.53
7.26
3.71
0.27
-2.77
-5.28
-7.27
-8.93
-10.42
-11.81
-13.05
-14.01
-14.52
-14.51
-13.96
-12.96
-11.68
-10.32
-9.14
-8.32
-7.97
-8.05
-8.45
-8.97
-9.45
-9.73
-9.67
-9.11
-7.93
-6.11
-3.82
-1.42
0.64
2.00
2.53
2.41
2.01
1.68
1.58
1.63
1.51
0.97
-0.10
-1.54
-3.01
-4.16
-4.82
-4.98
-4.78
-4.37
-3.76
-2.92
-1.81
-0.54
0.62
1.36
1.51
1.14
0.53
0.03
-0.15
-0.05
0.17
0.29
0.19
-0.10
-0.50
-0.86
-1.06
-1.01
-0.62
0.19
1.39
2.81
4.19
5.28
5.92
6.08
5.83
5.26
4.47
3.56
2.62
1.80
1.18
0.81
0.63
0.56
0.49
0.35
0.09
-0.29
-0.84
-1.60
-2.57
-3.71
-4.95
-6.18
-7.27
-8.06
-8.38
-8.09
-7.20
-5.84
-4.31
-2.93
-1.97
-1.56
-1.57
-1.75
-1.83
-1.58
-0.94
0.03
1.14
2.18
2.92
3.21
3.00
2.35
1.40
0.39
-0.50
-1.10
-1.34
-1.19
-0.66
0.18
1.20
2.19
2.93
3.23
3.02
2.37
1.56
0.88
0.51
0.40
0.21
-0.48
-1.96
-4.17
-6.63
-8.55
-9.27
-8.56
-6.81
-5.02
-4.22
-5.00
-7.27
-10.13
-12.29
-12.69
-11.09
-8.11
-5.30
-3.99
-4.80
-7.36
-10.27
-11.76
-10.57
-6.57
-0.55
5.90
11.98
17.65
23.11
28.71
34.67
41.33
49.84
62.91
83.72
112.10
143.55
168.59
177.75
166.75
138.02
98.64
60.27
26.28
-2.21
-25.55
-44.79
-60.59
-73.17
-81.05
-84.50
-85.26
-86.55
-90.65
-98.24
-108.15
-117.55
-123.15
-122.73
-116.12
-104.84
-91.72
-78.95
-67.79
-58.43
-50.13
-41.84
-32.85
-23.30
-13.76
-5.15
2.12
7.92
12.07
14.45
14.99
14.00
12.19
10.87
11.32
14.49
20.28
27.59
34.81
40.66
44.62
46.86
47.79
47.65
46.35
43.75
39.97
35.63
31.58
28.50
26.45
24.94
23.24
20.97
18.43
16.45
15.89
17.07
19.47
21.94
23.29
22.84
20.65
17.41
13.96
10.92
8.46
6.47
4.73
3.21
2.06
1.55
1.80
2.79
4.31
6.12
7.94
9.54
10.68
11.25
11.25
10.90
10.63
10.89
12.01
13.96
16.36
18.60
20.04
20.35
19.58
18.11
16.36
14.66
13.28
12.47
12.47
13.18
13.73
12.25
6.43
-5.24
-22.08
-40.68
-55.90
-63.03
-60.08
-48.77
-33.64
-19.69
-10.15
-5.53
-4.24
-4.13
-3.57
-1.53
3.08
11.76
25.91
45.31
66.80
84.35
90.96
81.67
56.05
18.92
-21.41
-56.36
-80.21
-91.56
-92.54
-86.72
-76.83
-63.93
-47.98
-29.47
-10.50
5.31
14.31
14.50
6.51
-6.89
-22.24
-36.86
-49.50
-59.95
-68.11
-73.22
-73.98
-69.30
-59.27
-45.51
-30.95
-18.73
-11.19
-9.13
-11.73
-17.08
-22.83
-26.86
-27.74
-24.89
-18.54
-9.52
1.00
11.72
21.53
29.57
35.45
39.17
41.09
41.76
41.66
41.11
40.16
38.68
36.52
33.66
30.27
26.62
22.98
19.51
16.24
13.14
10.14
7.26
4.54
2.02
-0.27
-2.31
-4.06
-5.46
-6.46
-7.14
-7.71
-8.48
-9.76
-11.77
-14.52
-17.80
-21.28
-24.46
-26.85
-27.97
-27.48
-25.32
-21.76
-17.44
-13.17
-9.72
-7.55
-6.66
-6.70
-7.12
-7.45
-7.40
-6.90
-6.05
-5.02
-3.97
-3.03
-2.30
-1.89
-1.85
-2.21
-2.88
-3.72
-4.56
-5.23
-5.59
-5.56
-5.11
-4.30
-3.23
-2.06
-0.97
-0.05
0.68
1.38
2.30
3.75
5.96
8.93
12.43
15.97
18.96
20.86
21.34
20.33
18.06
14.93
11.41
7.93
4.82
2.26
0.31
-1.08
-2.02
-2.67
-3.15
-3.55
-3.93
-4.30
-4.65
-4.92
-5.04
-4.94
-4.62
-4.11
-3.55
-3.06
-2.66
-2.30
-1.86
-1.19
-0.25
0.89
2.06
3.07
3.84
4.37
4.74
5.07
5.39
5.67
5.86
5.93
5.88
5.75
5.55
5.24
4.74
4.01
3.08
2.06
1.15
0.48
0.09
-0.17
-0.52
-1.20
-2.31
-3.81
-5.53
-7.19
-8.51
-9.33
-9.53
-9.15
-8.22
-6.81
-4.97
-2.78
-0.33
2.20
4.62
6.77
8.56
9.99
11.12
12.04
12.78
13.35
13.70
13.75
13.49
12.91
12.06
11.03
9.92
8.84
7.90
7.16
6.62
6.24
5.93
5.62
5.27
4.81
4.19
3.32
2.10
0.47
-1.57
-3.86
-6.18
-8.23
-9.76
-10.62
-10.78
-10.30
-9.30
-7.85
-6.05
-3.97
-1.74
0.47
2.45
4.02
5.07
5.59
5.63
5.29
4.68
3.97
3.35
3.08
3.32
4.13
5.38
6.83
8.15
9.11
9.62
9.74
9.61
9.39
9.18
9.01
8.85
8.69
8.53
8.42
8.36
8.34
8.24
7.95
7.36
6.42
5.20
3.83
2.45
1.17
0.02
-1.01
-1.97
-2.87
-3.72
-4.51
-5.25
-5.88
-6.36
-6.56
-6.41
-5.90
-5.16
-4.42
-3.82
-3.40
-3.01
-2.38
-1.36
0.03
1.51
2.67
3.18
2.88
1.87
0.45
-1.03
-2.24
-2.96
-3.08
-2.63
-1.69
-0.39
1.15
2.81
4.49
6.06
7.35
8.13
8.23
7.57
6.22
4.40
2.40
0.50
-1.10
-2.34
-3.22
-3.84
-4.27
-4.62
-4.94
-5.28
-5.66
-6.06
-6.44
-6.69
-6.73
-6.49
-5.96
-5.19
-4.26
-3.28
-2.34
-1.43
-0.51
0.44
1.39
2.30
3.13
3.89
4.69
5.63
6.76
7.99
9.12
9.92
10.29
10.22
9.83
9.24
8.52
7.66
6.58
5.28
3.81
2.27
0.83
-0.40
-1.32
-1.92
-2.23
-2.34
-2.37
-2.45
-2.67
-3.03
-3.44
-3.76
-3.84
-3.66
-3.27
-2.82
-2.47
-2.26
-2.15
-2.07
-1.92
-1.72
-1.54
-1.47
-1.58
-1.87
-2.26
-2.65
-2.92
-3.01
-2.92
-2.70
-2.47
-2.32
-2.31
-2.37
-2.37
-2.17
-1.69
-1.01
-0.26
0.39
0.86
1.15
1.28
1.30
1.25
1.13
1.01
0.95
1.00
1.17
1.39
1.54
1.54
1.32
0.90
0.33
-0.31
-0.94
-1.44
-1.73
-1.75
-1.50
-1.07
-0.60
-0.20
0.06
0.20
0.25
0.27
0.30
0.37
0.50
0.73
1.04
1.38
1.59
1.53
1.11
0.36
-0.60
-1.58
-2.44
-3.12
-3.61
-3.93
-4.10
-4.12
-4.02
-3.86
-3.72
-3.61
-3.51
-3.34
-2.99
-2.44
-1.80
-1.21
-0.84
-0.79
-1.04
-1.52
-2.16
-2.87
-3.56
-4.11
-4.28
-3.78
-2.38
-0.04
3.01
6.28
9.17
11.12
11.85
11.36
9.88
7.74
5.32
2.92
0.79
-0.84
-1.83
-2.09
-1.66
-0.69
0.60
1.95
3.12
3.94
4.31
4.18
3.60
2.66
1.50
0.26
-0.95
-2.02
-2.87
-3.39
-3.53
-3.28
-2.69
-1.90
-1.08
-0.36
0.21
0.61
0.83
0.85
0.62
0.08
-0.73
-1.71
-2.68
-3.43
-3.85
-3.86
-3.56
-3.08
-2.58
-2.14
-1.80
-1.47
-1.09
-0.60
-0.02
0.57
1.12
1.60
2.03
2.50
3.05
3.72
4.47
5.28
6.16
7.12
8.14
9.13
9.93
10.35
10.33
9.94
9.41
9.03
9.02
9.39
9.92
10.25
9.96
8.77
6.62
3.80
0.91
-1.20
-1.74
-0.32
2.79
6.58
9.61
10.43
8.17
2.68
-5.43
-15.22
-25.62
-35.66
-44.41
-50.86
-53.99
-52.88
-47.06
-36.75
-22.99
-7.47
7.74
20.56
29.37
33.37
32.75
28.63
22.72
16.70
11.71
8.06
5.33
2.84
0.03
-3.14
-6.26
-8.70
-9.98
-9.97
-8.92
-7.29
-5.52
-3.88
-2.47
-1.31
-0.48
-0.11
-0.36
-1.24
-2.60
-4.00
-4.93
-4.96
-3.93
-2.08
-0.01
1.64
2.34
1.97
0.82
-0.61
-1.79
-2.44
-2.61
-2.64
-2.93
-3.79
-5.31
-7.32
-9.51
-11.51
-13.00
-13.78
-13.79
-13.10
-11.87
-10.28
-8.50
-6.63
-4.72
-2.78
-0.79
1.23
3.26
5.24
7.08
8.64
9.78
10.43
10.53
10.11
9.24
8.00
6.47
4.73
2.88
1.03
-0.66
-2.02
-2.91
-3.26
-3.13
-2.64
-1.96
-1.26
-0.67
-0.24
0.07
0.32
0.62
1.00
1.46
1.92
2.28
2.45
2.43
2.27
2.07
1.95
2.02
2.31
2.81
3.46
4.21
5.00
5.79
6.51
7.10
7.47
7.56
7.33
6.77
5.95
5.01
4.07
3.24
2.52
1.85
1.15
0.39
-0.41
-1.13
-1.70
-2.10
-2.36
-2.60
-2.81
-2.97
-2.95
-2.70
-2.25
-1.73
-1.30
-1.04
-0.93
-0.83
-0.66
-0.38
-0.07
0.18
0.32
0.36
0.42
0.63
1.05
1.67
2.45
3.36
4.36
5.39
6.33
6.93
6.92
6.12
4.51
2.32
-0.05
-2.18
-3.77
-4.74
-5.23
-5.47
-5.68
-5.88
-5.90
-5.38
-4.04
-1.75
1.28
4.57
7.52
9.58
10.44
10.11
8.81
6.88
4.65
2.39
0.29
-1.49
-2.89
-3.89
-4.56
-5.01
-5.33
-5.49
-5.42
-4.98
-4.14
-2.90
-1.41
0.14
1.52
2.50
2.84
2.33
0.90
-1.34
-4.04
-6.66
-8.70
-9.83
-9.99
-9.36
-8.21
-6.78
-5.22
-3.49
-1.53
0.71
3.15
5.56
7.57
8.80
8.95
8.01
6.24
4.11
2.16
0.68
-0.33
-1.18
-2.33
-4.07
-6.45
-9.16
-11.65
-13.26
-13.45
-11.93
-8.91
-5.29
-2.56
-2.58
-6.80
-15.65
-28.03
-41.60
-53.50
-61.49
-64.74
-63.98
-60.94
-57.52
-54.90
-53.27
-51.90
-49.58
-45.08
-37.47
-26.39
-12.11
4.47
21.96
38.76
53.41
64.81
72.30
75.66
75.07
71.16
65.09
58.39
52.60
48.84
47.35
47.43
47.74
46.96
44.26
39.63
33.74
27.53
21.82
17.05
13.28
10.35
8.11
6.47
5.46
5.10
5.29
5.82
6.38
6.67
6.51
5.91
5.06
4.22
3.61
3.33
3.35
3.52
3.65
3.60
3.31
2.80
2.15
1.45
0.73
-0.04
-0.93
-1.99
-3.22
-4.49
-5.66
-6.60
-7.27
-7.74
-8.14
-8.54
-8.97
-9.37
-9.67
-9.84
-9.86
-9.72
-9.34
-8.60
-7.39
-5.73
-3.80
-1.92
-0.37
0.67
1.23
1.45
1.48
1.35
1.00
0.38
-0.49
-1.44
-2.21
-2.61
-2.58
-2.27
-1.88
-1.59
-1.51
-1.58
-1.75
-1.93
-2.10
-2.26
-2.39
-2.49
-2.54
-2.56
-2.57
-2.63
-2.75
-2.94
-3.18
-3.42
-3.68
-3.95
-4.26
-4.57
-4.81
-4.93
-4.87
-4.65
-4.30
-3.83
-3.28
-2.65
-1.98
-1.35
-0.84
-0.55
-0.49
-0.57
-0.65
-0.55
-0.18
0.47
1.26
1.99
2.49
2.67
2.51
2.12
1.63
1.15
0.76
0.50
0.35
0.31
0.33
0.30
0.10
-0.42
-1.33
-2.57
-3.93
-5.10
-5.70
-5.44
-4.19
-2.00
0.87
4.00
6.95
9.33
10.85
11.39
10.95
9.64
7.64
5.18
2.53
-0.03
-2.28
-4.07
-5.35
-6.11
-6.35
-6.05
-5.14
-3.61
-1.49
1.07
3.85
6.59
9.05
11.09
12.68
13.92
14.99
16.10
17.36
18.78
20.24
21.55
22.56
23.23
23.67
24.03
24.45
24.97
25.47
25.76
25.55
24.58
22.58
19.36
14.88
9.28
2.94
-3.64
-10.01
-16.00
-21.76
-27.66
-34.09
-41.11
-48.35
-54.95
-59.88
-62.18
-61.31
-57.24
-50.48
-41.88
-32.44
-23.12
-14.64
-7.44
-1.68
2.71
5.93
8.20
9.74
10.71
11.21
11.27
10.86
9.88
8.21
5.78
2.63
-0.97
-4.60
-7.70
-9.79
-10.57
-10.05
-8.47
-6.24
-3.81
-1.50
0.45
1.92
2.88
3.37
3.51
3.39
3.13
2.80
2.43
2.03
1.60
1.19
0.85
0.56
0.27
-0.14
-0.75
-1.60
-2.65
-3.81
-5.00
-6.13
-7.15
-7.93
-8.36
-8.27
-7.55
-6.16
-4.12
-1.52
1.49
4.72
7.91
10.78
12.95
14.09
13.88
12.16
8.94
4.47
-0.77
-6.19
-11.14
-15.09
-17.71
-18.88
-18.65
-17.18
-14.67
-11.36
-7.47
-3.28
0.89
4.74
8.03
10.61
12.42
13.47
13.80
13.38
12.20
10.21
7.51
4.29
0.91
-2.23
-4.79
-6.58
-7.56
-7.75
-7.15
-5.73
-3.50
-0.58
2.75
6.07
8.92
10.91
11.83
11.66
10.56
8.76
6.57
4.28
2.11
0.22
-1.36
-2.67
-3.79
-4.71
-5.37
-5.62
-5.33
-4.44
-3.05
-1.33
0.52
2.30
3.93
5.37
6.57
7.45
7.88
7.75
7.02
5.80
4.25
2.59
0.98
-0.52
-1.91
-3.20
-4.40
-5.47
-6.36
-7.00
-7.34
-7.30
-6.81
-5.81
-4.33
-2.49
-0.48
1.52
3.36
4.99
6.41
7.58
8.49
9.07
9.22
8.93
8.19
7.03
5.52
3.73
1.77
-0.20
-2.03
-3.56
-4.70
-5.43
-5.74
-5.64
-5.16
-4.33
-3.23
-1.96
-0.64
0.62
1.76
2.71
3.41
3.80
3.82
3.48
2.83
1.93
0.86
-0.32
-1.56
-2.76
-3.77
-4.46
-4.76
-4.69
-4.39
-4.03
-3.75
-3.60
-3.54
-3.51
-3.44
-3.28
-2.98
-2.55
-2.00
-1.32
-0.56
0.24
1.03
1.80
2.52
3.19
3.75
4.12
4.20
3.92
3.24
2.23
1.00
-0.28
-1.45
-2.31
-2.69
-2.48
-1.64
-0.23
1.56
3.45
5.20
6.59
7.54
8.07
8.25
8.19
7.96
7.58
7.01
6.20
5.11
3.72
2.11
0.41
-1.23
-2.66
-3.78
-4.55
-4.93
-4.92
-4.53
-3.77
-2.72
-1.51
-0.31
0.70
1.47
1.97
2.26
2.37
2.35
2.17
1.89
1.57
1.33
1.25
1.29
1.28
0.98
0.23
-0.99
-2.50
-4.03
-5.36
-6.35
-6.98
-7.28
-7.24
-6.81
-5.90
-4.50
-2.70
-0.69
1.25
2.87
4.01
4.66
4.94
5.02
5.04
5.05
4.96
4.66
4.09
3.29
2.40
1.59
0.96
0.50
0.11
-0.35
-0.94
-1.64
-2.37
-2.99
-3.38
-3.45
-3.16
-2.52
-1.64
-0.66
0.25
0.95
1.39
1.59
1.64
1.61
1.57
1.53
1.45
1.25
0.88
0.31
-0.42
-1.23
-2.03
-2.71
-3.21
-3.51
-3.63
-3.58
-3.38
-3.09
-2.77
-2.54
-2.51
-2.69
-3.02
-3.27
-3.25
-2.82
-2.01
-1.02
-0.08
0.63
1.08
1.36
1.64
2.00
2.42
2.76
2.89
2.75
2.37
1.93
1.59
1.47
1.63
2.04
2.65
3.35
4.00
4.49
4.75
4.72
4.42
3.90
3.20
2.43
1.65
0.94
0.37
-0.03
-0.27
-0.37
-0.41
-0.44
-0.50
-0.64
-0.88
-1.21
-1.64
-2.16
-2.72
-3.26
-3.74
-4.13
-4.39
-4.49
-4.40
-4.11
-3.70
-3.24
-2.87
-2.67
-2.66
-2.81
-3.06
-3.35
-3.65
-3.94
-4.21
-4.41
-4.47
-4.34
-4.05
-3.65
-3.19
-2.67
-2.07
-1.33
-0.47
0.40
1.17
1.71
2.00
2.10
2.10
2.07
2.04
1.98
1.90
1.82
1.85
2.04
2.38
2.81
3.22
3.54
3.79
4.01
4.21
4.38
4.44
4.34
4.14
3.95
3.91
4.10
4.42
4.66
4.61
4.14
3.29
2.30
1.47
1.02
1.02
1.38
1.93
2.55
3.19
3.90
4.73
5.69
6.69
7.59
8.27
8.63
8.57
7.91
6.44
3.97
0.55
-3.53
-7.70
-11.39
-14.20
-16.06
-17.18
-17.86
-18.31
-18.56
-18.45
-17.76
-16.37
-14.25
-11.49
-8.25
-4.67
-0.94
2.77
6.29
9.48
12.26
14.64
16.61
18.13
19.09
19.22
18.20
15.80
11.97
6.94
1.23
-4.47
-9.52
-13.38
-15.76
-16.55
-15.82
-13.79
-10.79
-7.28
-3.82
-0.86
1.25
2.43
2.77
2.49
1.83
0.95
-0.06
-1.20
-2.46
-3.83
-5.26
-6.72
-8.16
-9.57
-10.86
-11.94
-12.68
-13.00
-12.86
-12.38
-11.77
-11.30
-11.20
-11.63
-12.62
-14.14
-16.08
-18.30
-20.66
-23.09
-25.63
-28.41
-31.61
-35.32
-39.47
-43.77
-47.79
-51.05
-53.17
-53.94
-53.34
-51.42
-48.22
-43.65
-37.47
-29.44
-19.34
-7.17
6.80
22.00
37.70
53.08
67.34
79.75
89.74
96.90
101.04
102.23
100.74
97.05
91.69
85.21
78.15
70.94
63.90
57.19
50.93
45.21
40.24
36.30
33.65
32.32
31.95
31.78
30.87
28.39
23.91
17.49
9.65
1.11
-7.37
-15.14
-21.75
-26.94
-30.65
-32.99
-34.21
-34.60
-34.47
-34.04
-33.49
-32.90
-32.27
-31.56
-30.74
-29.76
-28.65
-27.50
-26.42
-25.55
-24.90
-24.37
-23.77
-22.90
-21.68
-20.15
-18.51
-16.98
-15.68
-14.58
-13.54
-12.38
-10.99
-9.41
-7.75
-6.15
-4.67
-3.29
-1.93
-0.53
0.88
2.27
3.53
4.66
5.68
6.64
7.54
8.35
9.00
9.45
9.72
9.89
10.09
10.41
10.87
11.40
11.90
12.27
12.44
12.41
12.17
11.73
11.09
10.27
9.33
8.36
7.47
6.74
6.16
5.69
5.21
4.63
3.94
3.17
2.38
1.61
0.87
0.11
-0.72
-1.64
-2.66
-3.78
-5.03
-6.47
-8.15
-10.13
-12.32
-14.60
-16.75
-18.56
-19.85
-20.52
-20.53
-19.83
-18.40
-16.23
-13.42
-10.15
-6.72
-3.49
-0.72
1.44
3.00
4.05
4.66
4.86
4.62
3.95
2.99
1.95
1.10
0.65
0.63
0.95
1.45
1.95
2.37
2.69
2.96
3.20
3.39
3.47
3.38
3.11
2.71
2.28
1.93
1.70
1.60
1.56
1.51
1.42
1.26
1.06
0.82
0.52
0.09
-0.51
-1.30
-2.22
-3.12
-3.84
-4.20
-4.14
-3.68
-2.94
-2.08
-1.24
-0.53
0.03
0.42
0.61
0.52
0.13
-0.58
-1.49
-2.47
-3.37
-4.10
-4.64
-5.01
-5.20
-5.19
-4.90
-4.32
-3.47
-2.46
-1.46
-0.62
-0.01
0.37
0.57
0.67
0.71
0.75
0.83
1.00
1.28
1.66
2.05
2.36
2.54
2.61
2.68
2.86
3.23
3.79
4.42
4.99
5.38
5.53
5.48
5.29
5.03
4.74
4.44
4.11
3.73
3.32
2.91
2.51
2.11
1.63
0.99
0.10
-1.03
-2.33
-3.61
-4.63
-5.20
-5.20
-4.64
-3.66
-2.49
-1.36
-0.45
0.11
0.34
0.26
-0.04
-0.50
-1.03
-1.54
-1.94
-2.10
-1.93
-1.44
-0.70
0.12
0.86
1.39
1.69
1.80
1.81
1.75
1.55
1.08
0.23
-1.00
-2.50
-4.00
-5.23
-6.00
-6.22
-5.93
-5.20
-4.15
-2.88
-1.48
-0.09
1.19
2.28
3.16
3.84
4.33
4.61
4.58
4.18
3.42
2.43
1.44
0.71
0.49
0.92
2.00
3.61
5.47
7.27
8.71
9.57
9.79
9.47
8.85
8.19
7.74
7.57
7.66
7.84
7.92
7.78
7.36
6.69
5.80
4.70
3.35
1.75
-0.09
-2.02
-3.89
-5.49
-6.73
-7.56
-8.01
-8.13
-7.92
-7.43
-6.71
-5.89
-5.13
-4.57
-4.26
-4.15
-4.14
-4.11
-3.99
-3.75
-3.40
-2.96
-2.51
-2.13
-1.93
-2.01
-2.37
-2.95
-3.67
-4.45
-5.22
-5.93
-6.55
-7.02
-7.29
-7.37
-7.28
-7.02
-6.56
-5.76
-4.52
-2.76
-0.58
1.84
4.24
6.41
8.18
9.44
10.14
10.24
9.77
8.81
7.55
6.17
4.84
3.64
2.54
1.46
0.35
-0.75
-1.74
-2.46
-2.76
-2.62
-2.13
-1.48
-0.84
-0.34
-0.00
0.22
0.37
0.46
0.48
0.35
0.09
-0.25
-0.61
-0.88
-1.06
-1.19
-1.33
-1.57
-1.93
-2.37
-2.80
-3.12
-3.12
-2.68
-1.71
-0.25
1.50
3.27
4.75
5.73
6.13
6.03
5.55
4.83
3.92
2.81
1.50
0.05
-1.41
-2.75
-3.80
-4.49
-4.79
-4.71
-4.28
-3.53
-2.52
-1.37
-0.23
0.72
1.37
1.72
1.79
1.64
1.33
0.88
0.30
-0.37
-1.06
-1.66
-2.07
-2.18
-1.94
-1.37
-0.52
0.48
1.52
2.53
3.49
4.40
5.26
5.95
6.33
6.28
5.78
4.94
3.96
3.02
2.21
1.47
0.68
-0.27
-1.38
-2.58
-3.70
-4.61
-5.21
-5.51
-5.55
-5.43
-5.28
-5.18
-5.21
-5.35
-5.45
-5.31
-4.74
-3.66
-2.20
-0.60
0.83
1.89
2.54
2.90
3.10
3.19
3.13
2.81
2.19
1.33
0.37
-0.53
-1.27
-1.84
-2.24
-2.50
-2.55
-2.34
-1.85
-1.16
-0.39
0.29
0.78
1.03
1.11
1.11
1.12
1.18
1.24
1.27
1.21
1.07
0.88
0.70
0.57
0.52
0.54
0.62
0.77
0.98
1.21
1.39
1.41
1.23
0.85
0.37
-0.09
-0.41
-0.56
-0.54
-0.40
-0.21
0.06
0.40
0.84
1.36
1.90
2.36
2.66
2.72
2.50
1.99
1.19
0.10
-1.22
-2.71
-4.23
-5.69
-6.97
-8.00
-8.77
-9.30
-9.62
-9.71
-9.54
-9.04
-8.14
-6.83
-5.21
-3.44
-1.75
-0.33
0.72
1.48
2.11
2.79
3.61
4.49
5.22
5.62
5.58
5.18
4.58
3.94
3.34
2.72
1.98
1.06
0.03
-0.93
-1.57
-1.71
-1.28
-0.34
0.98
2.52
4.11
5.63
6.95
7.94
8.50
8.56
8.11
7.23
6.03
4.64
3.23
1.92
0.82
-0.02
-0.61
-1.02
-1.29
-1.47
-1.57
-1.56
-1.45
-1.25
-1.02
-0.81
-0.65
-0.54
-0.47
-0.43
-0.39
-0.37
-0.43
-0.62
-0.99
-1.59
-2.42
-3.40
-4.41
-5.29
-5.93
-6.29
-6.43
-6.44
-6.42
-6.37
-6.20
-5.77
-5.01
-3.93
-2.63
-1.28
-0.04
0.96
1.63
1.96
1.99
1.79
1.48
1.17
0.99
1.00
1.26
1.77
2.46
3.24
3.96
4.50
4.74
4.69
4.43
4.07
3.75
3.55
3.46
3.46
3.44
3.33
3.02
2.46
1.61
0.51
-0.71
-1.85
-2.64
-2.84
-2.33
-1.16
0.47
2.19
3.66
4.63
5.04
4.98
4.64
4.20
3.78
3.42
3.10
2.81
2.55
2.27
1.94
1.46
0.77
-0.16
-1.21
-2.26
-3.15
-3.82
-4.29
-4.67
-5.04
-5.46
-5.91
-6.32
-6.61
-6.68
-6.45
-5.89
-4.94
-3.66
-2.16
-0.62
0.76
1.84
2.56
2.94
3.04
2.93
2.70
2.43
2.18
2.02
1.97
2.03
2.15
2.26
2.30
2.21
2.04
1.84
1.72
1.76
1.98
2.36
2.81
3.22
3.48
3.52
3.31
2.90
2.36
1.83
1.46
1.34
1.48
1.76
2.00
2.00
1.66
1.01
0.15
-0.72
-1.48
-2.05
-2.45
-2.76
-3.06
-3.38
-3.71
-4.02
-4.22
-4.31
-4.28
-4.18
-4.01
-3.74
-3.31
-2.71
-1.97
-1.27
-0.80
-0.71
-1.05
-1.69
-2.43
-3.08
-3.51
-3.70
-3.69
-3.55
-3.32
-2.98
-2.56
-2.08
-1.65
-1.32
-1.16
-1.16
-1.24
-1.35
-1.41
-1.40
-1.28
-1.04
-0.64
-0.06
0.66
1.45
2.21
2.87
3.36
3.66
3.74
3.58
3.22
2.74
2.24
1.80
1.41
1.01
0.48
-0.20
-1.04
-1.96
-2.83
-3.58
-4.20
-4.64
-4.85
-4.68
-3.94
-2.54
-0.48
2.12
5.04
8.05
10.92
13.41
15.25
16.20
16.10
14.97
13.06
10.79
8.62
6.85
5.53
4.40
3.11
1.28
-1.27
-4.49
-8.18
-12.04
-15.79
-19.20
-22.07
-24.18
-25.35
-25.39
-24.27
-22.14
-19.30
-16.12
-12.86
-9.67
-6.58
-3.58
-0.69
1.96
4.26
6.13
7.62
8.83
9.87
10.75
11.38
11.67
11.59
11.19
10.61
9.95
9.28
8.56
7.82
7.08
6.47
6.12
6.11
6.47
7.17
8.20
9.62
11.53
13.96
16.79
19.74
22.36
24.09
24.35
22.54
18.20
11.04
1.19
-10.76
-23.71
-36.23
-46.88
-54.48
-58.41
-58.59
-55.38
-49.33
-41.04
-31.07
-20.02
-8.57
2.49
12.35
20.35
26.10
29.50
30.63
29.70
26.87
22.33
16.30
9.18
1.54
-5.90
-12.36
-17.22
-20.02
-20.61
-19.06
-15.66
-10.78
-4.87
1.64
8.28
14.59
20.14
24.43
27.09
27.84
26.62
23.67
19.44
14.51
9.49
4.88
1.01
-1.92
-3.82
-4.64
-4.40
-3.23
-1.33
1.01
3.45
5.68
7.45
8.56
8.89
8.42
7.24
5.54
3.58
1.62
-0.12
-1.50
-2.51
-3.19
-3.63
-3.93
-4.20
-4.51
-4.91
-5.38
-5.81
-6.09
-6.09
-5.76
-5.17
-4.43
-3.69
-2.99
-2.36
-1.77
-1.24
-0.85
-0.71
-0.86
-1.27
-1.77
-2.16
-2.28
-2.06
-1.54
-0.86
-0.19
0.30
0.52
0.45
0.15
-0.27
-0.68
-1.04
-1.35
-1.67
-2.03
-2.42
-2.80
-3.07
-3.17
-3.10
-2.85
-2.44
-1.83
-0.99
0.11
1.41
2.77
3.98
4.79
5.09
4.81
4.02
2.79
1.22
-0.64
-2.69
-4.84
-6.97
-8.92
-10.59
-11.88
-12.78
-13.29
-13.42
-13.21
-12.71
-12.04
-11.36
-10.83
-10.57
-10.60
-10.92
-11.53
-12.43
-13.69
-15.32
-17.31
-19.58
-22.00
-24.44
-26.81
-28.96
-30.60
-31.29
-30.47
-27.71
-22.89
-16.29
-8.52
-0.30
7.80
15.45
22.48
28.73
33.94
37.76
39.94
40.52
39.88
38.65
37.46
36.74
36.67
37.21
38.23
39.65
41.33
43.03
44.36
44.78
43.76
40.99
36.51
30.71
24.22
17.70
11.65
6.34
1.80
-2.12
-5.55
-8.53
-10.99
-12.83
-13.99
-14.48
-14.45
-14.04
-13.41
-12.68
-11.95
-11.31
-10.87
-10.66
-10.68
-10.84
-11.02
-11.10
-11.02
-10.73
-10.21
-9.40
-8.27
-6.88
-5.36
-3.93
-2.75
-1.91
-1.36
-1.01
-0.83
-0.85
-1.15
-1.76
-2.61
-3.51
-4.27
-4.76
-4.98
-5.01
-4.96
-4.82
-4.56
-4.11
-3.42
-2.55
-1.60
-0.69
0.08
0.69
1.15
1.50
1.76
1.94
2.05
2.12
2.20
2.30
2.42
2.50
2.48
2.34
2.10
1.78
1.43
1.04
0.64
0.23
-0.16
-0.48
-0.74
-0.96
-1.21
-1.57
-2.03
-2.55
-3.05
-3.44
-3.70
-3.86
-4.00
-4.20
-4.55
-5.09
-5.77
-6.49
-7.08
-7.43
-7.49
-7.30
-7.02
-6.76
-6.63
-6.62
-6.68
-6.70
-6.58
-6.22
-5.54
-4.51
-3.17
-1.64
-0.04
1.47
2.87
4.17
5.43
6.72
8.02
9.25
10.28
10.99
11.28
11.13
10.58
9.74
8.76
7.79
6.94
6.24
5.66
5.20
4.87
4.70
4.65
4.65
4.58
4.34
3.95
3.50
3.16
3.05
3.17
3.43
3.66
3.69
3.45
2.93
2.23
1.45
0.68
-0.02
-0.64
-1.18
-1.63
-1.99
-2.25
-2.44
-2.66
-3.03
-3.71
-4.77
-6.21
-7.90
-9.65
-11.25
-12.55
-13.52
-14.16
-14.56
-14.77
-14.75
-14.44
-13.73
-12.52
-10.82
-8.69
-6.22
-3.50
-0.62
2.35
5.27
7.91
9.91
10.93
10.68
9.10
6.35
2.86
-0.81
-3.99
-6.07
-6.60
-5.45
-2.88
0.50
3.82
6.30
7.48
7.35
6.35
5.20
4.58
4.89
6.15
8.00
9.90
11.28
11.73
11.06
9.33
6.75
3.66
0.45
-2.46
-4.67
-5.89
-5.98
-5.07
-3.50
-1.81
-0.50
0.06
-0.23
-1.17
-2.43
-3.65
-4.63
-5.35
-5.95
-6.60
-7.34
-8.08
-8.62
-8.79
-8.57
-8.04
-7.41
-6.81
-6.27
-5.69
-4.97
-4.02
-2.92
-1.81
-0.89
-0.29
-0.02
0.04
0.04
0.15
0.42
0.80
1.19
1.52
1.76
1.98
2.31
2.79
3.39
3.93
4.22
4.16
3.75
3.16
2.60
2.21
2.01
1.94
1.88
1.77
1.61
1.47
1.43
1.49
1.61
1.70
1.70
1.59
1.42
1.21
0.98
0.72
0.44
0.15
-0.11
-0.33
-0.51
-0.70
-0.96
-1.30
-1.68
-2.00
-2.17
-2.19
-2.13
-2.11
-2.25
-2.52
-2.81
-2.94
-2.74
-2.14
-1.22
-0.11
1.02
1.99
2.66
2.96
2.87
2.46
1.92
1.44
1.19
1.22
1.45
1.71
1.83
1.71
1.33
0.74
0.00
-0.80
-1.54
-2.09
-2.33
-2.26
-2.00
-1.76
-1.74
-1.98
-2.38
-2.74
-2.87
-2.70
-2.27
-1.72
-1.18
-0.77
-0.58
-0.67
-1.10
-1.83
-2.65
-3.14
-2.80
-1.16
2.04
6.63
12.10
17.57
22.05
24.68
24.88
22.56
18.05
12.06
5.45
-0.88
-6.19
-9.96
-11.94
-12.21
-11.09
-9.20
-7.23
-5.86
-5.48
-6.13
-7.49
-9.02
-10.12
-10.33
-9.48
-7.66
-5.18
-2.47
0.07
2.04
3.19
3.37
2.57
0.95
-1.21
-3.54
-5.68
-7.36
-8.44
-8.89
-8.74
-8.03
-6.79
-5.03
-2.85
-0.41
2.06
4.31
6.15
7.45
8.15
8.22
7.63
6.40
4.66
2.65
0.75
-0.68
-1.35
-1.19
-0.32
0.99
2.45
3.87
5.14
6.25
7.20
7.96
8.47
8.71
8.66
8.35
7.80
7.05
6.13
5.12
4.07
3.05
2.08
1.16
0.19
-0.90
-2.14
-3.44
-4.61
-5.43
-5.72
-5.42
-4.58
-3.39
-2.04
-0.70
0.51
1.48
2.13
2.37
2.14
1.48
0.51
-0.56
-1.53
-2.28
-2.78
-3.12
-3.40
-3.72
-4.10
-4.54
-4.94
-5.22
-5.27
-5.04
-4.53
-3.81
-3.06
-2.47
-2.20
-2.28
-2.61
-2.96
-3.08
-2.79
-2.01
-0.84
0.53
1.85
2.93
3.60
3.76
3.44
2.73
1.83
1.04
0.63
0.75
1.36
2.22
3.00
3.44
3.42
3.03
2.48
1.98
1.65
1.46
1.29
1.00
0.49
-0.28
-1.23
-2.28
-3.28
-4.13
-4.78
-5.19
-5.33
-5.18
-4.69
-3.87
-2.82
-1.78
-1.01
-0.71
-0.92
-1.45
-1.99
-2.24
-2.08
-1.58
-0.95
-0.37
0.10
0.52
0.99
1.55
2.13
2.60
2.90
3.02
3.10
3.25
3.54
3.91
4.23
4.41
4.46
4.49
4.62
4.89
5.26
5.61
5.80
5.78
5.60
5.34
5.09
4.86
4.64
4.38
4.06
3.68
3.30
2.97
2.71
2.49
2.21
1.75
0.99
-0.09
-1.45
-2.96
-4.47
-5.91
-7.25
-8.47
-9.49
-10.10
-10.05
-9.12
-7.27
-4.72
-1.90
0.66
2.53
3.46
3.48
2.79
1.69
0.50
-0.51
-1.19
-1.42
-1.21
-0.59
0.35
1.40
2.38
3.05
3.29
3.06
2.44
1.57
0.59
-0.37
-1.24
-2.01
-2.70
-3.32
-3.88
-4.35
-4.73
-4.96
-5.03
-4.94
-4.73
-4.43
-4.09
-3.76
-3.45
-3.20
-3.05
-2.99
-3.03
-3.08
-3.05
-2.85
-2.43
-1.81
-1.10
-0.43
0.07
0.32
0.33
0.14
-0.14
-0.43
-0.65
-0.82
-0.97
-1.15
-1.37
-1.58
-1.68
-1.52
-1.02
-0.17
0.91
2.07
3.11
3.85
4.15
3.91
3.12
1.83
0.23
-1.45
-2.93
-4.04
-4.73
-5.05
-5.08
-4.87
-4.36
-3.48
-2.19
-0.52
1.34
3.16
4.73
5.89
6.60
6.88
6.77
6.31
5.52
4.48
3.28
2.08
1.01
0.18
-0.37
-0.68
-0.85
-0.99
-1.18
-1.45
-1.73
-1.92
-1.88
-1.54
-0.93
-0.15
0.68
1.50
2.31
3.18
4.15
5.13
5.93
6.37
6.32
5.83
5.04
4.17
3.33
2.56
1.82
1.09
0.40
-0.21
-0.68
-1.06
-1.43
-1.89
-2.47
-3.13
-3.78
-4.33
-4.78
-5.13
-5.42
-5.65
-5.76
-5.69
-5.35
-4.77
-4.04
-3.32
-2.77
-2.52
-2.57
-2.82
-3.12
-3.29
-3.25
-2.97
-2.50
-1.91
-1.23
-0.47
0.35
1.21
2.08
2.92
3.70
4.43
5.09
5.68
6.13
6.35
6.31
6.00
5.53
5.03
4.64
4.45
4.43
4.50
4.55
4.48
4.30
4.06
3.80
3.55
3.26
2.83
2.16
1.21
-0.01
-1.42
-2.87
-4.22
-5.31
-6.06
-6.45
-6.55
-6.52
-6.52
-6.64
-6.87
-7.05
-6.96
-6.47
-5.56
-4.39
-3.18
-2.15
-1.40
-0.91
-0.61
-0.41
-0.25
-0.12
0.03
0.22
0.52
0.93
1.42
1.91
2.30
2.56
2.66
2.66
2.62
2.59
2.62
2.70
2.84
3.00
3.09
3.06
2.83
2.41
1.83
1.21
0.65
0.24
0.02
-0.04
0.00
0.10
0.24
0.44
0.75
1.19
1.74
2.33
2.89
3.35
3.68
3.88
3.97
3.91
3.67
3.23
2.65
2.01
1.43
0.95
0.57
0.20
-0.25
-0.83
-1.52
-2.22
-2.88
-3.42
-3.83
-4.09
-4.18
-4.07
-3.78
-3.35
-2.93
-2.60
-2.40
-2.29
-2.18
-1.98
-1.66
-1.29
-0.95
-0.68
-0.49
-0.30
-0.08
0.14
0.29
0.28
0.12
-0.11
-0.28
-0.26
-0.00
0.42
0.89
1.26
1.46
1.47
1.38
1.29
1.32
1.47
1.72
1.98
2.17
2.30
2.43
2.65
3.00
3.45
3.87
4.17
4.29
4.23
4.04
3.75
3.31
2.65
1.73
0.64
-0.45
-1.32
-1.84
-2.03
-2.03
-2.09
-2.37
-2.94
-3.75
-4.70
-5.68
-6.60
-7.39
-7.92
-8.08
-7.72
-6.81
-5.40
-3.67
-1.84
-0.12
1.32
2.39
3.05
3.32
3.27
2.98
2.62
2.28
2.01
1.78
1.51
1.12
0.58
-0.00
-0.48
-0.67
-0.47
0.11
0.88
1.65
2.23
2.57
2.78
3.00
3.34
3.76
4.13
4.31
4.24
4.03
3.86
3.91
4.22
4.70
5.19
5.59
5.91
6.26
6.76
7.44
8.17
8.72
8.89
8.56
7.80
6.78
5.77
5.02
4.74
5.00
5.81
7.11
8.77
10.62
12.46
14.08
15.29
15.93
15.96
15.29
13.83
11.36
7.57
2.28
-4.48
-12.34
-20.67
-28.71
-35.76
-41.30
-44.99
-46.59
-45.95
-43.04
-37.94
-30.97
-22.63
-13.55
-4.46
3.87
10.73
15.51
17.81
17.56
15.01
10.69
5.32
-0.35
-5.63
-9.96
-12.83
-13.91
-13.05
-10.36
-6.24
-1.29
3.73
8.08
11.15
12.57
12.21
10.18
6.81
2.59
-1.92
-6.11
-9.42
-11.40
-11.79
-10.58
-8.02
-4.54
-0.76
2.76
5.54
7.25
7.81
7.25
5.77
3.63
1.18
-1.22
-3.19
-4.47
-4.90
-4.46
-3.28
-1.59
0.30
2.08
3.45
4.19
4.22
3.62
2.55
1.18
-0.28
-1.71
-3.00
-4.00
-4.55
-4.52
-3.83
-2.52
-0.76
1.22
3.13
4.75
5.86
6.37
6.20
5.40
4.07
2.40
0.64
-1.00
-2.30
-3.10
-3.31
-2.89
-1.92
-0.54
1.02
2.56
3.92
5.02
5.86
6.44
6.77
6.77
6.41
5.67
4.61
3.37
2.09
0.87
-0.23
-1.24
-2.21
-3.11
-3.88
-4.39
-4.56
-4.37
-3.96
-3.58
-3.54
-4.16
-5.60
-7.96
-11.19
-15.25
-20.01
-25.29
-30.79
-36.16
-41.11
-45.50
-49.37
-52.75
-55.47
-56.92
-56.12
-52.02
-43.96
-32.02
-17.03
-0.31
16.75
32.99
47.56
59.80
69.20
75.38
78.27
78.23
75.92
72.06
67.15
61.32
54.50
46.74
38.39
30.17
22.92
17.24
13.35
11.01
9.68
8.71
7.52
5.63
2.78
-1.08
-5.74
-10.73
-15.44
-19.18
-21.40
-21.84
-20.53
-17.83
-14.30
-10.58
-7.21
-4.57
-2.81
-1.88
-1.61
-1.76
-2.09
-2.41
-2.54
-2.39
-1.94
-1.24
-0.46
0.16
0.38
0.02
-1.03
-2.77
-5.03
-7.56
-9.97
-11.84
-12.83
-12.76
-11.72
-9.98
-7.92
-5.89
-4.11
-2.65
-1.48
-0.50
0.33
1.07
1.73
2.36
2.95
3.46
3.87
4.10
4.13
3.95
3.61
3.16
2.67
2.18
1.68
1.13
0.49
-0.31
-1.29
-2.46
-3.69
-4.83
-5.65
-5.91
-5.48
-4.34
-2.58
-0.40
1.93
4.14
5.98
7.27
7.85
7.73
6.99
5.83
4.50
3.21
2.05
1.02
0.02
-1.02
-2.09
-3.04
-3.73
-4.04
-4.00
-3.69
-3.25
-2.74
-2.22
-1.73
-1.29
-1.00
-0.93
-1.09
-1.41
-1.77
-2.14
-2.57
-3.21
-4.23
-5.72
-7.55
-9.40
-10.83
-11.44
-10.94
-9.28
-6.64
-3.37
0.07
3.13
5.35
6.35
6.03
4.60
2.59
0.77
-0.14
0.39
2.43
5.67
9.45
12.97
15.50
16.44
15.44
12.44
7.69
1.79
-4.34
-9.69
-13.27
-14.45
-13.09
-9.54
-4.58
0.84
5.77
9.48
11.52
11.80
10.56
8.26
5.46
2.67
0.27
-1.56
-2.80
-3.51
-3.79
-3.73
-3.41
-2.95
-2.47
-2.16
-2.16
-2.54
-3.26
-4.16
-5.08
-5.85
-6.40
-6.73
-6.88
-6.86
-6.66
-6.23
-5.58
-4.77
-3.91
-3.14
-2.55
-2.14
-1.91
-1.80
-1.78
-1.79
-1.75
-1.52
-0.96
-0.01
1.26
2.61
3.78
4.51
4.70
4.46
3.95
3.38
2.88
2.47
2.12
1.77
1.40
1.02
0.70
0.46
0.34
0.37
0.53
0.82
1.18
1.53
1.80
1.91
1.84
1.64
1.41
1.29
1.40
1.80
2.48
3.32
4.18
4.90
5.33
5.38
4.99
4.19
3.07
1.75
0.42
-0.75
-1.62
-2.15
-2.37
-2.38
-2.29
-2.21
-2.19
-2.24
-2.33
-2.41
-2.41
-2.20
-1.63
-0.58
0.96
2.91
5.01
6.91
8.20
8.57
7.85
6.06
3.42
0.29
-2.88
-5.69
-7.80
-9.00
-9.22
-8.56
-7.27
-5.75
-4.44
-3.72
-3.79
-4.56
-5.74
-6.91
-7.64
-7.65
-6.87
-5.38
-3.46
-1.40
0.47
1.90
2.72
2.90
2.51
1.70
0.72
-0.16
-0.69
-0.69
-0.09
1.00
2.33
3.58
4.49
4.91
4.81
4.28
3.49
2.59
1.77
1.19
1.00
1.27
1.91
2.72
3.36
3.55
3.16
2.31
1.27
0.38
-0.13
-0.26
-0.15
-0.05
-0.10
-0.34
-0.66
-0.97
-1.15
-1.21
-1.11
-0.73
0.10
1.62
3.98
7.16
10.96
15.02
18.96
22.43
25.21
27.17
28.20
28.24
27.18
24.99
21.71
17.48
12.52
7.02
1.14
-4.98
-11.19
-17.13
-22.35
-26.27
-28.46
-28.77
-27.43
-25.00
-22.12
-19.38
-17.17
-15.70
-15.07
-15.33
-16.47
-18.40
-20.88
-23.58
-26.09
-28.08
-29.30
-29.67
-29.20
-27.94
-25.93
-23.14
-19.55
-15.15
-10.02
-4.37
1.48
7.05
11.78
15.15
16.81
16.65
14.92
12.18
9.18
6.73
5.48
5.76
7.51
10.27
13.37
16.02
17.61
17.75
16.44
13.98
10.90
7.77
5.08
3.21
2.35
2.50
3.49
4.99
6.56
7.76
8.25
7.92
6.83
5.20
3.33
1.47
-0.14
-1.35
-2.00
-2.04
-1.50
-0.54
0.59
1.62
2.34
2.71
2.78
2.64
2.36
1.95
1.40
0.73
0.05
-0.55
-0.94
-1.06
-0.98
-0.77
-0.52
-0.29
-0.09
0.13
0.38
0.65
0.93
1.15
1.28
1.31
1.27
1.23
1.27
1.43
1.76
2.22
2.74
3.24
3.60
3.75
3.62
3.22
2.58
1.82
0.98
0.11
-0.81
-1.83
-2.92
-4.00
-4.88
-5.38
-5.38
-4.88
-4.03
-3.00
-1.96
-1.03
-0.26
0.34
0.75
0.95
0.95
0.82
0.65
0.59
0.68
0.96
1.36
1.88
2.51
3.28
4.22
5.31
6.46
7.52
8.39
9.01
9.38
9.52
9.44
9.08
8.41
7.37
5.95
4.19
2.20
0.14
-1.80
-3.40
-4.48
-4.94
-4.74
-3.98
-2.83
-1.50
-0.20
0.97
1.96
2.77
3.39
3.80
3.93
3.78
3.37
2.78
2.13
1.50
0.95
0.48
0.06
-0.36
-0.81
-1.36
-2.06
-2.95
-4.03
-5.25
-6.54
-7.87
-9.25
-10.70
-12.20
-13.64
-14.85
-15.66
-15.98
-15.83
-15.40
-14.88
-14.49
-14.36
-14.47
-14.76
-15.04
-15.17
-15.01
-14.50
-13.65
-12.50
-11.10
-9.49
-7.73
-5.87
-4.04
-2.40
-1.09
-0.18
0.35
0.63
0.78
0.88
0.92
0.80
0.45
-0.10
-0.69
-1.01
-0.83
-0.05
1.13
2.35
3.21
3.43
2.98
2.06
1.07
0.43
0.50
1.53
3.56
6.47
9.93
13.47
16.58
18.82
19.92
19.83
18.70
16.85
14.68
12.56
10.77
9.44
8.57
8.03
7.63
7.21
6.67
6.00
5.24
4.49
3.86
3.46
3.35
3.55
3.99
4.51
4.91
5.00
4.68
3.95
2.89
1.62
0.26
-1.12
-2.42
-3.56
-4.44
-5.02
-5.32
-5.46
-5.54
-5.64
-5.75
-5.77
-5.59
-5.18
-4.60
-3.93
-3.27
-2.63
-1.95
-1.21
-0.42
0.27
0.72
0.83
0.66
0.36
0.14
0.09
0.21
0.39
0.49
0.47
0.33
0.16
0.03
-0.01
-0.01
0.00
0.02
0.05
0.10
0.16
0.17
0.08
-0.12
-0.41
-0.71
-0.99
-1.25
-1.51
-1.83
-2.20
-2.57
-2.84
-2.91
-2.76
-2.39
-1.83
-1.09
-0.20
0.85
1.97
3.06
3.95
4.48
4.57
4.22
3.53
2.65
1.75
0.94
0.26
-0.25
-0.57
-0.68
-0.57
-0.26
0.18
0.65
1.07
1.41
1.72
2.05
2.44
2.86
3.22
3.44
3.49
3.40
3.26
3.17
3.13
3.10
2.96
2.63
2.08
1.38
0.69
0.11
-0.28
-0.50
-0.59
-0.63
-0.67
-0.78
-0.99
-1.33
-1.80
-2.32
-2.80
-3.14
-3.30
-3.32
-3.30
-3.33
-3.49
-3.84
-4.38
-5.07
-5.82
-6.46
-6.80
-6.68
-6.06
-5.01
-3.69
-2.27
-0.90
0.35
1.43
2.24
2.70
2.78
2.58
2.30
2.15
2.27
2.65
3.14
3.57
3.80
3.85
3.80
3.77
3.84
4.02
4.27
4.49
4.62
4.55
4.25
3.70
2.96
2.12
1.29
0.56
-0.02
-0.41
-0.66
-0.80
-0.88
-0.96
-1.01
-1.02
-0.90
-0.61
-0.15
0.41
0.94
1.31
1.45
1.37
1.10
0.71
0.25
-0.22
-0.65
-0.97
-1.09
-0.96
-0.57
0.02
0.69
1.34
1.89
2.25
2.40
2.34
2.11
1.78
1.42
1.11
0.85
0.63
0.43
0.21
-0.02
-0.24
-0.40
-0.44
-0.36
-0.16
0.13
0.49
0.88
1.23
1.43
1.40
1.12
0.63
0.07
-0.41
-0.70
-0.77
-0.67
-0.49
-0.30
-0.11
0.06
0.22
0.32
0.31
0.19
-0.02
-0.25
-0.39
-0.43
-0.37
-0.32
-0.36
-0.56
-0.92
-1.40
-1.95
-2.50
-3.03
-3.52
-3.97
-4.40
-4.81
-5.19
-5.50
-5.62
-5.43
-4.84
-3.85
-2.58
-1.21
0.03
1.02
1.73
2.21
2.55
2.76
2.85
2.79
2.59
2.36
2.19
2.17
2.32
2.58
2.88
3.12
3.29
3.36
3.35
3.25
3.08
2.87
2.69
2.62
2.71
2.94
3.17
3.28
3.12
2.65
1.92
1.06
0.22
-0.44
-0.85
-0.99
-0.94
-0.77
-0.59
-0.44
-0.35
-0.32
-0.33
-0.37
-0.45
-0.60
-0.83
-1.16
-1.59
-2.06
-2.56
-3.04
-3.49
-3.96
-4.51
-5.21
-6.06
-6.95
-7.75
-8.32
-8.57
-8.49
-8.13
-7.57
-6.83
-5.92
-4.83
-3.60
-2.36
-1.25
-0.44
-0.01
0.07
-0.06
-0.26
-0.39
-0.36
-0.16
0.18
0.62
1.14
1.69
2.21
2.63
2.92
3.11
3.26
3.49
3.82
4.23
4.60
4.83
4.84
4.69
4.46
4.22
3.98
3.65
3.09
2.22
1.02
-0.36
-1.63
-2.50
-2.75
-2.27
-1.21
0.18
1.56
2.62
3.17
3.11
2.44
1.24
-0.38
-2.23
-4.07
-5.60
-6.56
-6.82
-6.42
-5.58
-4.63
-3.89
-3.57
-3.67
-4.02
-4.39
-4.51
-4.25
-3.64
-2.77
-1.83
-0.93
-0.14
0.54
1.13
1.59
1.86
1.86
1.55
0.99
0.28
-0.40
-0.88
-1.06
-0.90
-0.45
0.16
0.76
1.21
1.42
1.41
1.27
1.10
1.00
0.99
1.03
1.06
0.98
0.77
0.44
0.04
-0.33
-0.59
-0.75
-0.83
-0.91
-1.07
-1.28
-1.46
-1.46
-1.17
-0.54
0.35
1.37
2.36
3.19
3.80
4.17
4.37
4.45
4.50
4.57
4.65
4.72
4.68
4.47
4.03
3.37
2.53
1.61
0.74
0.05
-0.37
-0.51
-0.43
-0.23
-0.02
0.16
0.28
0.31
0.19
-0.20
-0.99
-2.20
-3.71
-5.30
-6.69
-7.68
-8.17
-8.22
-7.95
-7.48
-6.89
-6.16
-5.29
-4.29
-3.21
-2.13
-1.12
-0.15
0.82
1.87
3.04
4.27
5.41
6.27
6.68
6.60
6.07
5.22
4.23
3.27
2.49
1.98
1.81
1.93
2.24
2.57
2.77
2.76
2.55
2.25
1.97
1.76
1.61
1.46
1.22
0.83
0.27
-0.47
-1.36
-2.31
-3.18
-3.80
-4.04
-3.82
-3.17
-2.20
-1.06
0.08
1.07
1.76
1.98
1.62
0.66
-0.75
-2.29
-3.56
-4.20
-4.03
-3.08
-1.59
0.11
1.69
2.88
3.52
3.59
3.15
2.33
1.35
0.41
-0.30
-0.68
-0.70
-0.41
0.11
0.78
1.53
2.31
3.02
3.56
3.79
3.61
3.01
2.11
1.13
0.31
-0.18
-0.32
-0.18
0.04
0.16
-0.03
-0.65
-1.76
-3.22
-4.77
-6.03
-6.60
-6.27
-5.10
-3.38
-1.61
-0.22
0.48
0.46
-0.09
-0.86
-1.55
-1.95
-2.01
-1.81
-1.46
-1.11
-0.82
-0.58
-0.34
-0.01
0.47
1.10
1.84
2.58
3.22
3.67
3.89
3.89
3.70
3.36
2.90
2.39
1.90
1.52
1.35
1.38
1.56
1.76
1.92
2.02
2.11
2.28
2.50
2.66
2.56
2.04
1.05
-0.30
-1.81
-3.28
-4.56
-5.62
-6.50
-7.17
-7.55
-7.54
-7.04
-6.12
-4.93
-3.74
-2.77
-2.12
-1.73
-1.45
-1.13
-0.73
-0.30
0.08
0.40
0.73
1.18
1.84
2.66
3.43
3.88
3.80
3.16
2.10
0.85
-0.39
-1.54
-2.62
-3.72
-4.88
-6.10
-7.32
-8.43
-9.33
-9.91
-10.06
-9.70
-8.83
-7.58
-6.23
-5.09
-4.43
-4.33
-4.64
-5.06
-5.23
-4.89
-3.90
-2.28
-0.15
2.38
5.13
7.91
10.51
12.78
14.59
15.98
17.06
17.94
18.67
19.18
19.34
18.99
18.10
16.70
14.86
12.69
10.24
7.60
4.90
2.35
0.15
-1.58
-2.90
-3.97
-5.00
-6.11
-7.25
-8.24
-8.89
-9.13
-9.06
-8.92
-8.95
-9.27
-9.80
-10.30
-10.55
-10.35
-9.68
-8.65
-7.45
-6.26
-5.25
-4.48
-3.99
-3.79
-3.82
-3.98
-4.13
-4.13
-3.86
-3.27
-2.39
-1.29
-0.08
1.13
2.27
3.23
3.94
4.38
4.56
4.53
4.38
4.15
3.89
3.63
3.38
3.18
3.02
2.89
2.75
2.59
2.45
2.41
2.54
2.87
3.32
3.76
4.07
4.20
4.21
4.22
4.27
4.36
4.41
4.33
4.12
3.87
3.66
3.53
3.42
3.17
2.68
1.90
0.94
0.01
-0.69
-1.07
-1.18
-1.18
-1.26
-1.59
-2.20
-3.02
-3.88
-4.57
-4.98
-5.10
-5.05
-5.02
-5.17
-5.56
-6.13
-6.74
-7.21
-7.44
-7.36
-6.95
-6.22
-5.19
-3.89
-2.40
-0.84
0.63
1.86
2.77
3.32
3.57
3.61
3.58
3.56
3.61
3.71
3.80
3.77
3.57
3.20
2.75
2.35
2.12
2.11
2.29
2.57
2.82
2.97
2.99
2.91
2.77
2.57
2.30
1.95
1.52
1.10
0.78
0.64
0.67
0.82
0.97
1.06
1.09
1.10
1.17
1.27
1.34
1.23
0.92
0.44
-0.08
-0.49
-0.75
-0.90
-1.06
-1.33
-1.74
-2.22
-2.65
-2.99
-3.23
-3.47
-3.83
-4.36
-5.04
-5.75
-6.35
-6.66
-6.58
-6.04
-5.09
-3.88
-2.58
-1.36
-0.35
0.37
0.79
0.90
0.74
0.43
0.09
-0.15
-0.17
0.04
0.39
0.78
1.11
1.39
1.71
2.17
2.79
3.52
4.21
4.72
5.00
5.04
4.92
4.70
4.44
4.19
3.96
3.72
3.43
3.05
2.54
1.93
1.29
0.74
0.38
0.24
0.27
0.37
0.47
0.53
0.55
0.51
0.42
0.27
0.04
-0.27
-0.61
-0.98
-1.38
-1.81
-2.29
-2.77
-3.19
-3.45
-3.52
-3.44
-3.32
-3.29
-3.45
-3.81
-4.31
-4.84
-5.27
-5.53
-5.57
-5.38
-4.95
-4.28
-3.40
-2.34
-1.20
-0.09
0.85
1.52
1.86
1.92
1.78
1.58
1.40
1.28
1.23
1.23
1.27
1.34
1.47
1.67
1.97
2.38
2.85
3.34
3.76
4.03
4.07
3.89
3.55
3.15
2.78
2.52
2.37
2.29
2.23
2.15
2.00
1.79
1.55
1.37
1.32
1.46
1.74
2.04
2.21
2.15
1.84
1.38
0.89
0.47
0.18
0.01
-0.06
-0.06
-0.02
0.00
-0.05
-0.22
-0.54
-0.96
-1.37
-1.69
-1.89
-2.05
-2.29
-2.73
-3.42
-4.26
-5.04
-5.51
-5.49
-4.95
-3.99
-2.87
-1.84
-1.09
-0.66
-0.46
-0.39
-0.37
-0.42
-0.61
-0.99
-1.56
-2.18
-2.68
-2.89
-2.80
-2.48
-2.08
-1.71
-1.37
-1.01
-0.49
0.22
1.08
1.95
2.66
3.08
3.21
3.11
2.96
2.90
2.98
3.18
3.38
3.44
3.27
2.86
2.28
1.65
1.08
0.61
0.26
-0.01
-0.21
-0.39
-0.52
-0.60
-0.63
-0.61
-0.57
-0.54
-0.60
-0.76
-1.05
-1.45
-1.89
-2.32
-2.70
-3.02
-3.26
-3.37
-3.25
-2.78
-1.94
-0.81
0.42
1.53
2.31
2.69
2.70
2.47
2.15
1.86
1.65
1.49
1.36
1.27
1.22
1.23
1.29
1.36
1.45
1.54
1.66
1.83
2.02
2.15
2.12
1.91
1.57
1.21
0.90
0.66
0.41
0.09
-0.33
-0.77
-1.14
-1.38
-1.51
-1.61
-1.75
-1.94
-2.14
-2.28
-2.32
-2.28
-2.24
-2.24
-2.31
-2.46
-2.65
-2.85
-3.02
-3.10
-3.00
-2.67
-2.09
-1.31
-0.44
0.37
1.02
1.45
1.70
1.85
1.94
2.01
2.01
1.92
1.71
1.43
1.19
1.08
1.18
1.50
2.00
2.57
3.10
3.42
3.42
3.05
2.36
1.52
0.72
0.11
-0.29
-0.54
-0.77
-1.03
-1.28
-1.41
-1.33
-1.05
-0.71
-0.52
-0.67
-1.18
-1.93
-2.71
-3.29
-3.55
-3.53
-3.37
-3.27
-3.37
-3.67
-4.06
-4.35
-4.38
-4.06
-3.41
-2.54
-1.59
-0.66
0.18
0.89
1.43
1.74
1.77
1.50
0.95
0.20
-0.64
-1.45
-2.20
-2.89
-3.56
-4.20
-4.72
-4.92
-4.59
-3.56
-1.81
0.47
3.01
5.49
7.70
9.56
11.06
12.19
12.85
12.90
12.22
10.85
9.04
7.14
5.50
4.28
3.47
2.96
2.64
2.49
2.57
2.93
3.52
4.13
4.49
4.39
3.74
2.65
1.33
0.10
-0.79
-1.21
-1.16
-0.79
-0.32
0.03
0.12
-0.15
-0.79
-1.78
-3.08
-4.54
-5.99
-7.15
-7.78
-7.75
-7.09
-6.01
-4.77
-3.64
-2.81
-2.42
-2.55
-3.24
-4.44
-5.98
-7.52
-8.71
-9.24
-8.99
-8.03
-6.55
-4.80
-2.99
-1.28
0.22
1.43
2.27
2.73
2.87
2.78
2.60
2.42
2.28
2.18
2.07
1.92
1.68
1.36
0.94
0.46
-0.02
-0.42
-0.68
-0.77
-0.74
-0.69
-0.70
-0.83
-1.07
-1.40
-1.78
-2.24
-2.79
-3.41
-3.98
-4.30
-4.17
-3.54
-2.50
-1.27
-0.13
0.84
1.73
2.83
4.44
6.77
9.84
13.40
17.01
20.15
22.32
23.19
22.66
20.92
18.32
15.30
12.25
9.41
6.86
4.51
2.24
-0.13
-2.72
-5.58
-8.72
-12.03
-15.35
-18.55
-21.50
-24.15
-26.46
-28.27
-29.33
-29.24
-27.69
-24.55
-19.99
-14.55
-8.94
-3.84
0.24
3.10
4.76
5.46
5.46
5.08
4.59
4.24
4.23
4.62
5.35
6.24
7.02
7.47
7.44
6.93
6.08
5.09
4.16
3.47
3.08
2.95
2.95
2.94
2.79
2.40
1.79
1.03
0.30
-0.20
-0.32
-0.01
0.66
1.51
2.33
2.95
3.30
3.38
3.24
2.94
2.53
2.07
1.64
1.28
1.03
0.86
0.73
0.62
0.50
0.36
0.22
0.08
-0.07
-0.20
-0.28
-0.24
-0.04
0.29
0.67
0.99
1.16
1.14
0.97
0.73
0.51
0.34
0.25
0.20
0.17
0.10
-0.07
-0.38
-0.87
-1.53
-2.31
-3.17
-4.02
-4.77
-5.32
-5.56
-5.40
-4.82
-3.87
-2.70
-1.50
-0.47
0.24
0.57
0.51
0.06
-0.76
-1.92
-3.33
-4.81
-6.08
-6.80
-6.69
-5.60
-3.60
-0.96
1.89
4.51
6.51
7.65
7.82
7.04
5.45
3.28
0.89
-1.24
-2.65
-2.97
-2.08
-0.14
2.41
5.01
7.20
8.65
9.30
9.20
8.52
7.41
6.01
4.48
2.98
1.67
0.68
0.07
-0.18
-0.14
0.07
0.36
0.61
0.73
0.66
0.37
-0.10
-0.67
-1.18
-1.52
-1.58
-1.39
-1.04
-0.69
-0.47
-0.43
-0.56
-0.82
-1.17
-1.63
-2.20
-2.84
-3.46
-3.94
-4.16
-4.08
-3.77
-3.37
-3.06
-2.98
-3.21
-3.74
-4.49
-5.32
-6.12
-6.73
-7.02
-6.91
-6.36
-5.44
-4.24
-2.95
-1.72
-0.67
0.17
0.76
1.14
1.30
1.27
1.11
0.88
0.68
0.56
0.56
0.67
0.81
0.93
1.00
0.99
0.92
0.78
0.59
0.39
0.20
0.11
0.23
0.60
1.22
1.97
2.68
3.18
3.41
3.41
3.32
3.26
3.24
3.19
2.99
2.58
2.02
1.45
1.01
0.74
0.61
0.49
0.27
-0.06
-0.49
-0.91
-1.29
-1.61
-1.90
-2.20
-2.48
-2.71
-2.83
-2.84
-2.77
-2.69
-2.68
-2.80
-3.02
-3.32
-3.61
-3.81
-3.85
-3.67
-3.22
-2.49
-1.51
-0.33
0.92
2.13
3.14
3.84
4.19
4.23
4.09
3.90
3.73
3.57
3.34
2.98
2.51
2.05
1.74
1.70
1.93
2.33
2.78
3.18
3.50
3.70
3.79
3.72
3.49
3.10
2.64
2.18
1.78
1.44
1.13
0.81
0.47
0.16
-0.07
-0.18
-0.17
-0.12
-0.09
-0.18
-0.43
-0.87
-1.46
-2.12
-2.75
-3.19
-3.32
-3.10
-2.61
-2.00
-1.48
-1.20
-1.22
-1.49
-1.96
-2.54
-3.19
-3.92
-4.70
-5.47
-6.14
-6.59
-6.74
-6.53
-5.94
-4.99
-3.77
-2.40
-1.07
0.06
0.90
1.42
1.69
1.79
1.77
1.65
1.44
1.19
1.02
1.07
1.46
2.18
3.12
4.03
4.71
5.02
4.95
4.58
4.03
3.42
2.81
2.26
1.83
1.64
1.76
2.19
2.85
3.53
3.97
3.97
3.48
2.62
1.63
0.71
0.00
-0.48
-0.80
-0.98
-0.97
-0.67
-0.05
0.82
1.74
2.43
2.64
2.26
1.36
0.16
-1.02
-1.92
-2.40
-2.50
-2.40
-2.33
-2.48
-2.91
-3.59
-4.41
-5.29
-6.13
-6.82
-7.21
-7.11
-6.40
-5.07
-3.28
-1.30
0.55
2.01
2.95
3.34
3.28
2.92
2.45
2.03
1.79
1.81
2.05
2.46
2.94
3.42
3.85
4.19
4.40
4.41
4.17
3.69
3.04
2.37
1.88
1.73
2.00
2.66
3.55
4.46
5.15
5.47
5.37
4.89
4.17
3.32
2.47
1.68
0.98
0.37
-0.15
-0.58
-0.91
-1.17
-1.41
-1.65
-1.93
-2.25
-2.61
-3.02
-3.50
-4.02
-4.56
-5.07
-5.52
-5.88
-6.11
-6.21
-6.18
-6.04
-5.85
-5.67
-5.51
-5.33
-4.99
-4.35
-3.29
-1.85
-0.21
1.35
2.60
3.38
3.68
3.63
3.41
3.18
3.03
2.98
3.02
3.10
3.21
3.35
3.53
3.73
3.90
3.97
3.85
3.54
3.11
2.66
2.33
2.15
2.07
1.96
1.71
1.28
0.75
0.28
0.05
0.15
0.53
1.05
1.54
1.85
1.92
1.76
1.44
1.06
0.70
0.45
0.30
0.19
0.00
-0.41
-1.13
-2.14
-3.26
-4.28
-5.01
-5.38
-5.46
-5.38
-5.29
-5.28
-5.33
-5.37
-5.31
-5.07
-4.60
-3.89
-2.97
-1.90
-0.76
0.38
1.44
2.35
3.07
3.56
3.78
3.72
3.43
2.95
2.39
1.88
1.54
1.46
1.67
2.07
2.51
2.79
2.78
2.48
1.99
1.46
1.02
0.72
0.56
0.49
0.48
0.52
0.59
0.66
0.65
0.50
0.18
-0.26
-0.72
-1.07
-1.27
-1.32
-1.29
-1.25
-1.22
-1.21
-1.18
-1.19
-1.27
-1.51
-1.91
-2.42
-2.90
-3.23
-3.31
-3.20
-3.01
-2.89
-2.97
-3.23
-3.56
-3.78
-3.74
-3.31
-2.51
-1.45
-0.31
0.74
1.58
2.19
2.63
2.99
3.32
3.63
3.83
3.86
3.66
3.27
2.82
2.45
2.30
2.37
2.58
2.76
2.77
2.55
2.14
1.68
1.33
1.20
1.26
1.41
1.47
1.33
0.94
0.43
-0.02
-0.24
-0.18
0.09
0.42
0.63
0.62
0.39
0.01
-0.43
-0.88
-1.33
-1.75
-2.13
-2.42
-2.61
-2.68
-2.62
-2.48
-2.31
-2.22
-2.29
-2.58
-3.09
-3.74
-4.38
-4.85
-5.06
-4.94
-4.53
-3.82
-2.84
-1.66
-0.37
0.86
1.88
2.55
2.88
2.92
2.76
2.51
2.20
1.87
1.55
1.30
1.14
1.08
1.08
1.11
1.16
1.22
1.32
1.47
1.63
1.76
1.83
1.79
1.63
1.38
1.09
0.87
0.76
0.80
0.98
1.20
1.37
1.40
1.27
1.01
0.69
0.38
0.13
-0.04
-0.13
-0.18
-0.24
-0.34
-0.47
-0.61
-0.74
-0.84
-0.95
-1.10
-1.34
-1.65
-1.99
-2.31
-2.61
-2.92
-3.28
-3.71
-4.14
-4.45
-4.53
-4.30
-3.76
-2.98
-2.07
-1.14
-0.25
0.60
1.39
2.06
2.54
2.72
2.55
2.09
1.52
1.01
0.75
0.77
0.97
1.22
1.38
1.41
1.39
1.40
1.53
1.78
2.04
2.19
2.14
1.85
1.43
1.00
0.68
0.52
0.48
0.46
0.40
0.29
0.21
0.20
0.25
0.26
0.10
-0.27
-0.77
-1.26
-1.56
-1.60
-1.42
-1.16
-0.96
-0.92
-1.01
-1.19
-1.37
-1.53
-1.64
-1.73
-1.84
-1.99
-2.23
-2.60
-3.12
-3.79
-4.53
-5.20
-5.61
-5.63
-5.21
-4.42
-3.44
-2.44
-1.55
-0.76
-0.05
0.64
1.27
1.75
1.99
1.98
1.79
1.59
1.50
1.56
1.70
1.84
1.93
2.00
2.14
2.42
2.81
3.20
3.41
3.36
3.06
2.65
2.31
2.16
2.19
2.30
2.32
2.14
1.74
1.23
0.76
0.41
0.20
0.10
0.02
-0.08
-0.15
-0.14
-0.00
0.26
0.57
0.79
0.82
0.60
0.13
-0.48
-1.12
-1.72
-2.22
-2.63
-2.98
-3.31
-3.63
-3.92
-4.16
-4.36
-4.52
-4.65
-4.69
-4.56
-4.15
-3.42
-2.43
-1.34
-0.34
0.40
0.79
0.85
0.69
0.43
0.22
0.16
0.29
0.60
1.04
1.57
2.12
2.66
3.10
3.37
3.43
3.26
2.98
2.74
2.69
2.91
3.35
3.83
4.17
4.20
3.86
3.20
2.39
1.64
1.12
0.95
1.11
1.46
1.80
1.96
1.86
1.55
1.17
0.83
0.56
0.31
0.02
-0.34
-0.72
-1.00
-1.10
-1.02
-0.84
-0.71
-0.76
-1.07
-1.63
-2.37
-3.17
-3.94
-4.62
-5.24
-5.84
-6.48
-7.10
-7.61
-7.87
-7.76
-7.26
-6.43
-5.45
-4.46
-3.61
-2.94
-2.46
-2.13
-1.89
-1.74
-1.67
-1.67
-1.71
-1.69
-1.50
-1.04
-0.26
0.76
1.90
2.99
3.89
4.53
4.95
5.22
5.40
5.57
5.72
5.79
5.72
5.49
5.09
4.62
4.18
3.89
3.83
3.99
4.34
4.80
5.31
5.84
6.38
6.93
7.45
7.91
8.22
8.29
8.04
7.45
6.58
5.60
4.70
4.01
3.57
3.28
2.98
2.51
1.80
0.86
-0.21
-1.36
-2.57
-3.86
-5.27
-6.82
-8.42
-9.92
-11.14
-11.90
-12.06
-11.58
-10.48
-8.89
-7.03
-5.11
-3.37
-1.96
-0.93
-0.28
0.06
0.17
0.17
0.12
0.09
0.07
0.05
0.00
-0.09
-0.24
-0.43
-0.64
-0.86
-1.10
-1.35
-1.61
-1.80
-1.86
-1.75
-1.43
-0.92
-0.23
0.57
1.43
2.27
2.98
3.52
3.87
4.11
4.30
4.49
4.64
4.64
4.35
3.70
2.80
1.84
1.05
0.58
0.42
0.46
0.52
0.47
0.29
0.08
-0.05
-0.00
0.22
0.56
0.93
1.24
1.47
1.60
1.63
1.59
1.52
1.50
1.63
2.00
2.65
3.47
4.25
4.74
4.67
3.91
2.48
0.61
-1.36
-3.09
-4.37
-5.19
-5.68
-6.05
-6.42
-6.78
-6.99
-6.92
-6.53
-5.88
-5.07
-4.23
-3.41
-2.58
-1.74
-0.87
-0.02
0.73
1.37
1.88
2.34
2.80
3.30
3.86
4.44
4.99
5.41
5.61
5.50
5.07
4.38
3.59
2.89
2.43
2.28
2.36
2.46
2.37
1.93
1.09
-0.04
-1.28
-2.42
-3.32
-3.93
-4.30
-4.55
-4.83
-5.23
-5.84
-6.62
-7.47
-8.22
-8.69
-8.74
-8.34
-7.56
-6.48
-5.22
-3.87
-2.51
-1.26
-0.24
0.40
0.59
0.32
-0.26
-0.99
-1.67
-2.18
-2.45
-2.46
-2.22
-1.73
-0.97
0.06
1.29
2.65
4.02
5.25
6.26
7.01
7.51
7.82
8.01
8.14
8.26
8.34
8.34
8.23
7.96
7.53
6.96
6.29
5.58
4.89
4.28
3.77
3.33
2.89
2.35
1.62
0.65
-0.55
-1.94
-3.39
-4.82
-6.10
-7.15
-7.94
-8.46
-8.80
-9.08
-9.39
-9.79
-10.21
-10.50
-10.50
-10.05
-9.12
-7.77
-6.12
-4.32
-2.50
-0.76
0.81
2.13
3.11
3.75
4.09
4.24
4.34
4.49
4.72
5.01
5.21
5.15
4.73
3.94
2.90
1.87
1.12
0.79
0.89
1.23
1.61
1.85
1.90
1.85
1.78
1.78
1.89
2.12
2.45
2.87
3.33
3.74
3.94
3.80
3.27
2.43
1.49
0.67
0.20
0.17
0.49
0.96
1.28
1.17
0.50
-0.68
-2.22
-3.86
-5.35
-6.47
-7.07
-7.04
-6.39
-5.23
-3.80
-2.41
-1.32
-0.63
-0.30
-0.16
-0.08
0.02
0.05
-0.11
-0.56
-1.30
-2.28
-3.36
-4.46
-5.45
-6.26
-6.77
-6.86
-6.45
-5.55
-4.24
-2.68
-1.05
0.50
1.86
2.94
3.67
3.99
3.87
3.35
2.58
1.75
1.07
0.74
0.88
1.52
2.57
3.84
5.05
5.92
6.28
6.09
5.47
4.64
3.81
3.08
2.45
1.86
1.25
0.64
0.12
-0.25
-0.49
-0.68
-0.96
-1.38
-1.85
-2.19
-2.19
-1.76
-1.01
-0.18
0.44
0.69
0.53
0.08
-0.51
-1.14
-1.78
-2.40
-2.96
-3.38
-3.55
-3.43
-2.99
-2.30
-1.43
-0.52
0.30
0.92
1.22
1.18
0.88
0.50
0.27
0.32
0.71
1.31
1.96
2.45
2.70
2.69
2.47
2.16
1.83
1.55
1.32
1.09
0.79
0.31
-0.40
-1.33
-2.36
-3.28
-3.87
-3.95
-3.45
-2.43
-1.06
0.46
1.96
3.28
4.33
5.06
5.45
5.50
5.25
4.72
3.98
3.08
2.10
1.15
0.33
-0.25
-0.50
-0.42
-0.06
0.54
1.32
2.25
3.25
4.19
4.88
5.13
4.88
4.20
3.30
2.46
1.87
1.59
1.52
1.52
1.46
1.29
1.01
0.65
0.27
-0.05
-0.24
-0.23
-0.04
0.24
0.49
0.58
0.50
0.33
0.18
0.19
0.36
0.66
1.04
1.44
1.83
2.17
2.33
2.18
1.66
0.84
-0.10
-0.93
-1.51
-1.86
-2.08
-2.33
-2.64
-2.98
-3.23
-3.33
-3.32
-3.28
-3.29
-3.39
-3.51
-3.61
-3.67
-3.77
-4.01
-4.45
-5.05
-5.67
-6.09
-6.11
-5.62
-4.64
-3.34
-1.93
-0.62
0.44
1.19
1.69
2.01
2.26
2.51
2.79
3.09
3.38
3.59
3.66
3.56
3.29
2.94
2.60
2.41
2.46
2.81
3.44
4.23
5.01
5.53
5.58
5.00
3.81
2.19
0.46
-0.98
-1.81
-1.89
-1.28
-0.23
0.92
1.89
2.50
2.67
2.45
1.86
0.93
-0.33
-1.90
-3.64
-5.33
-6.71
-7.57
-7.86
-7.67
-7.16
-6.51
-5.78
-4.90
-3.77
-2.32
-0.58
1.33
3.19
4.77
5.95
6.65
6.91
6.90
6.82
6.97
7.57
8.71
10.33
12.17
13.97
15.46
16.56
17.26
17.71
18.04
18.37
18.76
19.17
19.47
19.46
18.84
17.26
14.44
10.20
4.53
-2.38
-10.18
-18.42
-26.64
-34.40
-41.30
-46.94
-50.91
-52.79
-52.17
-48.80
-42.71
-34.31
-24.34
-13.83
-3.82
4.75
11.25
15.42
17.35
17.41
16.15
14.20
12.12
10.36
9.15
8.49
8.16
7.77
6.86
5.09
2.37
-1.15
-5.05
-8.82
-12.03
-14.47
-16.16
-17.29
-18.10
-18.77
-19.33
-19.69
-19.65
-19.01
-17.68
-15.73
-13.38
-11.02
-9.01
-7.65
-7.02
-7.00
-7.27
-7.45
-7.16
-6.16
-4.36
-1.84
1.23
4.66
8.30
12.04
15.79
19.37
22.54
25.00
26.55
27.13
26.88
26.09
24.99
23.74
22.33
20.67
18.68
16.30
13.56
10.50
7.21
3.77
0.35
-2.87
-5.70
-7.99
-9.69
-10.82
-11.45
-11.70
-11.67
-11.44
-11.05
-10.48
-9.62
-8.37
-6.64
-4.52
-2.16
0.12
2.05
3.43
4.22
4.53
4.56
4.51
4.51
4.68
5.04
5.61
6.36
7.23
8.12
8.92
9.54
9.87
9.84
9.35
8.34
6.81
4.83
2.61
0.43
-1.44
-2.87
-3.84
-4.48
-4.93
-5.32
-5.69
-6.03
-6.31
-6.53
-6.66
-6.68
-6.56
-6.27
-5.84
-5.34
-4.82
-4.32
-3.87
-3.44
-3.04
-2.72
-2.58
-2.64
-2.87
-3.12
-3.21
-3.04
-2.60
-1.97
-1.30
-0.70
-0.21
0.19
0.50
0.69
0.73
0.59
0.33
0.04
-0.11
-0.03
0.32
0.88
1.52
2.15
2.65
2.92
2.87
2.45
1.66
0.63
-0.46
-1.44
-2.18
-2.71
-3.11
-3.45
-3.72
-3.83
-3.66
-3.20
-2.53
-1.84
-1.28
-0.93
-0.75
-0.65
-0.57
-0.49
-0.45
-0.42
-0.32
-0.05
0.48
1.30
2.30
3.37
4.43
5.45
6.46
7.48
8.47
9.38
10.12
10.65
10.97
11.06
10.92
10.52
9.83
8.81
7.50
5.92
4.16
2.32
0.51
-1.18
-2.65
-3.82
-4.66
-5.14
-5.27
-5.12
-4.77
-4.37
-4.06
-3.94
-4.09
-4.46
-4.98
-5.47
-5.78
-5.78
-5.44
-4.80
-3.96
-3.03
-2.09
-1.22
-0.50
0.00
0.20
0.05
-0.42
-1.07
-1.72
-2.17
-2.33
-2.21
-1.88
-1.43
-0.92
-0.37
0.23
0.88
1.55
2.18
2.73
3.15
3.46
3.66
3.75
3.70
3.46
3.03
2.45
1.85
1.37
1.11
1.05
1.10
1.08
0.85
0.40
-0.20
-0.75
-1.14
-1.31
-1.35
-1.38
-1.52
-1.82
-2.25
-2.69
-3.05
-3.24
-3.20
-2.90
-2.31
-1.40
-0.18
1.29
2.88
4.46
5.86
6.97
7.72
8.10
8.14
7.88
7.40
6.76
6.06
5.36
4.71
4.13
3.64
3.27
3.04
3.01
3.19
3.52
3.92
4.23
4.33
4.18
3.84
3.48
3.33
3.62
4.51
5.98
7.86
9.82
11.50
12.61
12.98
12.57
11.37
9.40
6.64
3.06
-1.41
-6.78
-13.04
-20.03
-27.39
-34.48
-40.39
-44.09
-44.68
-41.68
-35.18
-25.88
-14.89
-3.50
7.03
15.69
21.75
24.82
24.88
22.22
17.42
11.26
4.60
-1.79
-7.32
-11.65
-14.65
-16.41
-17.08
-16.83
-15.79
-14.03
-11.60
-8.56
-5.02
-1.15
2.77
6.46
9.62
11.97
13.37
13.74
13.13
11.67
9.54
7.02
4.43
2.10
0.33
-0.73
-1.06
-0.79
-0.12
0.72
1.61
2.40
2.98
3.21
2.93
2.05
0.61
-1.20
-3.07
-4.69
-5.81
-6.28
-6.09
-5.33
-4.20
-2.97
-1.92
-1.35
-1.41
-2.12
-3.35
-4.77
-6.02
-6.72
-6.57
-5.38
-3.11
0.13
4.07
8.34
12.45
15.95
18.44
19.70
19.69
18.52
16.40
13.49
9.93
5.74
0.97
-4.32
-10.04
-16.02
-22.02
-27.78
-33.01
-37.36
-40.56
-42.36
-42.71
-41.69
-39.51
-36.43
-32.64
-28.28
-23.45
-18.21
-12.68
-7.11
-1.76
3.03
6.94
9.72
11.26
11.60
10.99
9.83
8.63
7.75
7.41
7.51
7.74
7.75
7.26
6.14
4.46
2.34
-0.15
-3.01
-6.23
-9.62
-12.77
-15.07
-15.91
-14.92
-11.98
-7.15
-0.48
8.07
18.61
31.08
44.96
59.13
72.04
82.06
87.90
88.97
85.53
78.48
69.08
58.58
47.87
37.46
27.47
17.88
8.65
-0.12
-8.26
-15.57
-21.94
-27.34
-31.70
-34.88
-36.64
-36.73
-35.10
-31.91
-27.60
-22.72
-17.86
-13.46
-9.81
-7.08
-5.35
-4.69
-5.15
-6.78
-9.51
-13.19
-17.46
-21.81
-25.56
-28.06
-28.79
-27.51
-24.35
-19.76
-14.35
-8.81
-3.68
0.63
3.94
6.24
7.68
8.51
9.04
9.55
10.17
10.81
11.11
10.61
8.81
5.45
0.70
-4.86
-10.26
-14.42
-16.43
-15.74
-12.37
-6.75
0.32
7.92
15.11
21.01
24.95
26.46
25.46
22.27
17.53
12.11
6.80
2.16
-1.52
-4.19
-5.93
-6.86
-7.06
-6.60
-5.54
-3.95
-1.92
0.40
2.80
4.97
6.67
7.69
7.99
7.66
6.81
5.53
3.86
1.82
-0.51
-3.00
-5.41
-7.50
-9.10
-10.12
-10.56
-10.47
-9.92
-8.98
-7.76
-6.36
-4.88
-3.41
-1.98
-0.65
0.53
1.46
2.06
2.29
2.20
1.94
1.67
1.51
1.53
1.74
2.12
2.68
3.38
4.19
4.98
5.61
5.96
6.00
5.79
5.48
5.19
4.99
4.87
4.77
4.61
4.37
4.00
3.53
3.00
2.47
1.99
1.60
1.32
1.09
0.84
0.47
-0.05
-0.71
-1.46
-2.26
-3.12
-4.10
-5.30
-6.73
-8.35
-10.06
-11.74
-13.25
-14.50
-15.37
-15.75
-15.54
-14.72
-13.40
-11.80
-10.19
-8.75
-7.51
-6.38
-5.17
-3.74
-2.01
-0.06
1.95
3.83
5.43
6.68
7.57
8.16
8.48
8.56
8.39
7.98
7.36
6.57
5.68
4.77
3.87
3.05
2.37
1.91
1.76
1.94
2.36
2.87
3.25
3.32
2.95
2.14
0.98
-0.36
-1.73
-2.97
-3.97
-4.65
-4.98
-4.91
-4.40
-3.46
-2.15
-0.59
1.02
2.49
3.68
4.58
5.23
5.75
6.20
6.60
6.89
6.99
6.81
6.31
5.52
4.49
3.28
1.93
0.44
-1.19
-2.92
-4.62
-6.12
-7.21
-7.74
-7.69
-7.12
-6.21
-5.08
-3.84
-2.53
-1.21
0.06
1.15
1.95
2.38
2.50
2.42
2.30
2.23
2.22
2.22
2.16
1.98
1.75
1.56
1.50
1.57
1.72
1.85
1.87
1.76
1.56
1.32
1.10
0.88
0.61
0.23
-0.31
-1.00
-1.76
-2.46
-3.00
-3.31
-3.38
-3.24
-2.92
-2.48
-1.95
-1.43
-1.00
-0.71
-0.56
-0.48
-0.39
-0.27
-0.23
-0.43
-0.98
-1.90
-3.03
-4.16
-5.10
-5.80
-6.32
-6.78
-7.20
-7.50
-7.53
-7.19
-6.52
-5.63
-4.68
-3.79
-3.01
-2.34
-1.83
-1.49
-1.33
-1.28
-1.20
-0.96
-0.52
0.03
0.50
0.74
0.71
0.53
0.39
0.43
0.74
1.30
2.01
2.80
3.60
4.33
4.89
5.17
5.09
4.62
3.79
2.72
1.57
0.47
-0.47
-1.22
-1.75
-2.10
-2.27
-2.24
-1.97
-1.40
-0.48
0.78
2.28
3.87
5.32
6.47
7.20
7.48
7.36
6.90
6.17
5.21
4.08
2.88
1.71
0.68
-0.14
-0.79
-1.35
-1.91
-2.51
-3.07
-3.45
-3.49
-3.12
-2.37
-1.44
-0.56
0.02
0.20
0.00
-0.47
-1.06
-1.70
-2.38
-3.10
-3.88
-4.64
-5.22
-5.44
-5.20
-4.51
-3.52
-2.46
-1.56
-0.94
-0.59
-0.36
-0.10
0.29
0.76
1.18
1.40
1.31
0.96
0.47
-0.03
-0.46
-0.82
-1.14
-1.44
-1.69
-1.83
-1.78
-1.50
-1.06
-0.55
-0.07
0.30
0.52
0.59
0.49
0.21
-0.29
-1.00
-1.82
-2.62
-3.23
-3.51
-3.39
-2.96
-2.38
-1.82
-1.42
-1.22
-1.18
-1.19
-1.14
-1.02
-0.86
-0.78
-0.88
-1.18
-1.63
-2.09
-2.42
-2.57
-2.53
-2.37
-2.14
-1.84
-1.47
-0.98
-0.40
0.26
0.94
1.64
2.39
3.26
4.30
5.49
6.75
7.91
8.83
9.36
9.51
9.36
9.08
8.79
8.55
8.27
7.75
6.88
5.61
4.06
2.49
1.16
0.25
-0.18
-0.16
0.20
0.76
1.44
2.15
2.85
3.47
3.93
4.13
4.00
3.49
2.67
1.70
0.81
0.23
0.12
0.51
1.35
2.50
3.81
5.10
6.19
6.89
7.07
6.65
5.70
4.37
2.86
1.33
-0.14
-1.52
-2.88
-4.24
-5.67
-7.23
-8.95
-10.84
-12.81
-14.69
-16.22
-17.13
-17.21
-16.40
-14.77
-12.51
-9.90
-7.23
-4.75
-2.60
-0.81
0.73
2.16
3.58
5.01
6.38
7.57
8.48
9.04
9.21
8.94
8.23
7.13
5.78
4.41
3.26
2.51
2.22
2.33
2.69
3.15
3.53
3.64
3.34
2.52
1.21
-0.38
-1.95
-3.15
-3.75
-3.65
-2.94
-1.82
-0.58
0.50
1.19
1.34
0.91
-0.04
-1.30
-2.64
-3.77
-4.46
-4.53
-3.91
-2.66
-0.95
0.92
2.63
3.92
4.60
4.60
3.99
2.92
1.62
0.28
-0.89
-1.74
-2.22
-2.33
-2.16
-1.86
-1.57
-1.46
-1.63
-2.15
-2.98
-4.04
-5.17
-6.16
-6.82
-7.01
-6.64
-5.70
-4.28
-2.55
-0.69
1.07
2.57
3.71
4.49
4.98
5.30
5.58
5.89
6.27
6.72
7.22
7.77
8.33
8.83
9.20
9.34
9.19
8.79
8.21
7.59
7.00
6.47
5.91
5.20
4.28
3.19
2.04
1.03
0.26
-0.25
-0.62
-0.99
-1.47
-2.07
-2.72
-3.30
-3.74
-4.05
-4.30
-4.56
-4.82
-5.00
-4.95
-4.59
-3.88
-2.92
-1.87
-0.87
-0.03
0.60
1.07
1.40
1.61
1.67
1.56
1.24
0.74
0.11
-0.60
-1.30
-1.93
-2.46
-2.84
-3.09
-3.25
-3.38
-3.55
-3.80
-4.13
-4.46
-4.71
-4.82
-4.81
-4.72
-4.61
-4.48
-4.32
-4.07
-3.77
-3.48
-3.31
-3.37
-3.66
-4.11
-4.53
-4.79
-4.75
-4.40
-3.80
-3.07
-2.29
-1.55
-0.88
-0.30
0.18
0.55
0.81
1.03
1.31
1.79
2.58
3.68
5.01
6.38
7.56
8.36
8.63
8.35
7.58
6.42
5.02
3.54
2.11
0.92
0.11
-0.21
-0.01
0.64
1.65
2.89
4.25
5.59
6.72
7.35
7.19
6.00
3.75
0.65
-2.90
-6.42
-9.47
-11.71
-12.91
-12.94
-11.77
-9.51
-6.46
-3.10
0.04
2.41
3.65
3.65
2.54
0.63
-1.64
-3.82
-5.57
-6.61
-6.83
-6.26
-5.05
-3.44
-1.72
-0.14
1.14
2.05
2.62
2.90
2.99
2.94
2.80
2.62
2.36
1.98
1.43
0.69
-0.16
-0.97
-1.53
-1.73
-1.57
-1.18
-0.75
-0.43
-0.27
-0.22
-0.21
-0.20
-0.21
-0.26
-0.35
-0.43
-0.43
-0.30
-0.11
0.06
0.08
-0.11
-0.49
-0.97
-1.43
-1.74
-1.85
-1.69
-1.28
-0.68
0.01
0.63
1.03
1.18
1.08
0.89
0.75
0.74
0.85
0.95
0.89
0.56
0.01
-0.65
-1.27
-1.75
-2.07
-2.25
-2.29
-2.13
-1.70
-0.95
0.02
0.99
1.71
1.97
1.73
1.12
0.39
-0.23
-0.63
-0.81
-0.89
